A-DC1,A-DC2,A-DC3,A-DC4,A-DC5,A-DC6,A-DC7,A-DC8,B-DC1,B-DC2,B-DC3,B-DC4,B-DC5,B-DC6,B-DC7,B-DC8,condition
1598.000,430.800,102.400,28.610,1704.000,429.000,114.700,30.380,222.800,55.080,15.370,4.848,339.500,86.530,22.770,8.313,baseline
1588.000,430.200,101.700,28.520,1692.000,429.400,114.500,30.380,221.100,55.100,15.350,4.864,339.800,86.080,22.630,8.279,baseline
1584.000,428.800,102.400,28.630,1700.000,429.900,114.700,30.500,222.000,54.980,15.300,4.839,339.300,86.210,22.810,8.307,baseline
1585.000,427.900,102.300,28.790,1698.000,429.600,114.500,30.550,222.300,54.980,15.350,4.866,339.200,86.390,22.760,8.292,baseline
1590.000,430.100,102.300,28.730,1705.000,429.300,115.200,30.540,222.400,54.920,15.330,4.872,338.300,86.370,22.810,8.375,baseline
1587.000,429.700,102.300,28.850,1700.000,429.500,114.800,30.530,220.900,54.880,15.350,4.882,339.700,86.670,22.980,8.350,baseline
1590.000,430.200,103.000,29.130,1701.000,431.600,114.900,30.460,221.600,55.040,15.340,4.892,341.200,86.580,23.100,8.437,baseline
1602.000,432.300,103.200,28.960,1703.000,430.100,114.300,30.200,223.000,55.040,15.320,4.900,339.900,86.070,22.710,8.333,baseline
1580.000,428.500,101.600,28.540,1697.000,427.600,114.000,30.230,219.300,54.810,15.230,4.843,336.900,85.680,22.460,8.266,baseline
1580.000,424.200,101.400,28.410,1692.000,428.100,113.400,30.170,221.300,54.560,15.200,4.834,335.900,85.250,22.490,8.214,baseline
1583.000,426.200,101.200,28.390,1696.000,427.700,114.000,30.200,219.500,54.540,15.220,4.826,334.500,85.790,22.610,8.217,baseline
1574.000,425.300,100.600,28.440,1695.000,427.600,114.100,30.210,219.600,54.590,15.210,4.819,335.200,85.710,22.590,8.253,baseline
1573.000,424.600,101.900,28.550,1693.000,427.000,113.900,30.320,220.600,54.460,15.210,4.836,336.200,85.390,22.750,8.253,baseline
1581.000,427.400,101.500,28.680,1691.000,428.300,114.600,30.330,220.800,54.670,15.260,4.831,336.800,85.970,22.910,8.350,baseline
1586.000,426.500,102.800,28.940,1704.000,428.800,114.900,30.560,223.300,54.680,15.270,4.835,338.600,86.270,22.960,8.406,baseline
1603.000,433.800,103.100,29.070,1704.000,430.600,115.000,30.330,222.300,54.690,15.270,4.855,337.400,85.910,22.680,8.294,baseline
1592.000,430.500,101.800,28.710,1716.000,431.200,114.200,30.410,222.400,54.680,15.220,4.811,335.300,85.260,22.600,8.240,baseline
1589.000,427.500,102.500,28.670,1707.000,429.300,114.900,30.430,223.800,54.310,15.220,4.807,334.500,85.300,22.520,8.278,baseline
1593.000,430.400,101.800,28.750,1707.000,429.800,114.900,30.500,221.200,54.570,15.170,4.821,335.700,85.440,22.660,8.304,baseline
1590.000,427.800,102.500,28.640,1710.000,431.100,114.700,30.400,222.500,54.480,15.210,4.840,336.100,85.300,22.730,8.302,baseline
1596.000,430.900,102.600,28.980,1713.000,430.400,115.000,30.460,224.600,54.770,15.240,4.834,336.500,86.010,22.850,8.349,baseline
1598.000,433.500,103.700,28.960,1714.000,431.900,115.700,30.530,224.400,54.790,15.300,4.865,338.100,86.490,22.880,8.381,baseline
1608.000,436.000,103.300,29.260,1713.000,431.000,115.600,30.640,226.800,54.840,15.320,4.884,340.000,86.980,23.240,8.422,baseline
1608.000,434.200,104.000,29.460,1720.000,432.600,115.700,30.430,223.300,54.970,15.380,4.857,339.600,86.780,22.990,8.377,baseline
1598.000,433.500,102.000,28.910,1719.000,430.400,115.100,30.400,225.700,54.790,15.320,4.867,338.900,86.090,22.750,8.358,baseline
1600.000,429.300,102.100,28.750,1708.000,428.900,114.500,30.330,226.400,54.650,15.270,4.829,337.000,85.620,22.720,8.319,baseline
1591.000,429.400,103.100,28.910,1713.000,430.200,114.600,30.370,225.600,54.580,15.210,4.851,338.500,86.140,22.760,8.306,baseline
1592.000,430.000,102.100,28.850,1711.000,429.900,114.700,30.360,224.600,54.820,15.260,4.830,337.600,85.720,22.760,8.361,baseline
1590.000,430.900,102.500,29.010,1712.000,430.800,114.500,30.360,223.200,54.760,15.250,4.832,338.800,86.140,22.820,8.442,baseline
1600.000,430.900,102.900,29.100,1706.000,432.300,115.100,30.420,225.700,54.870,15.290,4.866,339.000,86.050,23.160,8.460,baseline
1594.000,431.800,103.600,29.290,1714.000,431.100,114.600,30.420,225.200,54.760,15.280,4.863,341.200,86.720,23.200,8.494,baseline
1610.000,432.800,104.000,29.330,1715.000,430.900,114.700,30.410,226.600,54.900,15.370,4.878,341.000,87.200,23.280,8.448,baseline
1609.000,433.100,103.000,28.790,1705.000,431.400,114.200,30.230,225.600,54.730,15.240,4.836,340.000,86.230,22.830,8.365,baseline
1597.000,431.000,102.100,28.730,1701.000,429.800,114.100,30.250,224.600,54.380,15.230,4.839,337.700,86.200,22.870,8.364,baseline
1595.000,431.400,102.200,28.810,1706.000,430.300,114.300,30.290,224.800,54.300,15.140,4.834,339.300,86.010,22.890,8.349,baseline
1591.000,430.400,101.900,28.790,1713.000,429.100,113.800,30.180,223.700,54.530,15.210,4.816,338.700,86.370,22.900,8.399,baseline
1589.000,429.900,102.500,28.800,1702.000,428.300,113.900,30.150,224.300,54.620,15.240,4.854,339.700,86.560,22.990,8.403,baseline
1594.000,430.500,102.200,28.930,1702.000,428.900,113.900,30.140,223.100,54.610,15.230,4.829,339.200,86.490,23.080,8.447,baseline
1599.000,428.800,102.300,28.900,1706.000,427.800,114.100,30.170,222.800,54.830,15.240,4.852,341.700,87.250,23.210,8.483,baseline
1597.000,432.100,102.600,29.150,1703.000,428.800,113.700,30.290,224.700,55.010,15.360,4.877,343.400,87.530,23.200,8.554,baseline
1600.000,431.900,102.800,28.880,1700.000,429.100,113.200,30.020,223.100,54.850,15.240,4.844,341.900,86.670,22.900,8.394,baseline
1588.000,428.200,101.200,28.590,1693.000,426.700,113.500,29.920,224.100,54.630,15.150,4.807,341.400,86.270,22.870,8.387,baseline
1591.000,427.300,100.800,28.400,1695.000,426.200,113.300,29.980,222.800,54.780,15.180,4.817,341.000,86.510,22.820,8.375,baseline
1593.000,427.100,101.300,28.480,1692.000,427.400,113.600,29.970,223.300,54.450,15.180,4.858,340.700,86.030,22.910,8.390,baseline
1586.000,427.800,101.300,28.400,1696.000,426.400,113.200,29.870,223.500,54.670,15.220,4.826,341.200,86.340,23.030,8.403,baseline
1594.000,429.100,102.000,28.720,1691.000,428.400,113.400,30.100,222.500,54.500,15.200,4.830,342.400,86.750,23.050,8.450,baseline
1596.000,430.400,102.400,28.870,1699.000,426.900,113.900,30.110,223.500,54.800,15.200,4.847,343.100,87.540,23.200,8.537,baseline
1602.000,429.100,102.900,28.970,1686.000,428.000,113.400,30.040,223.600,54.790,15.300,4.884,345.100,87.370,23.410,8.559,baseline
1605.000,430.000,102.700,28.810,1701.000,425.200,113.100,29.900,224.200,54.800,15.320,4.860,343.100,87.000,23.060,8.400,baseline
1588.000,427.800,101.400,28.430,1689.000,426.000,113.000,29.940,222.200,54.620,15.170,4.825,342.500,87.140,22.940,8.420,baseline
1582.000,427.200,101.500,28.410,1686.000,425.100,113.100,29.790,223.300,54.570,15.150,4.815,341.100,86.280,22.800,8.385,baseline
1578.000,426.300,101.300,28.470,1691.000,424.600,113.300,29.740,219.600,54.700,15.170,4.809,342.300,86.790,22.970,8.393,baseline
1587.000,426.800,101.400,28.430,1684.000,426.800,113.000,29.830,221.800,54.610,15.170,4.799,342.000,86.870,23.170,8.428,baseline
1583.000,427.100,101.500,28.720,1691.000,426.900,113.200,30.020,220.500,54.520,15.260,4.791,343.400,87.060,23.050,8.510,baseline
1593.000,428.500,102.300,28.670,1692.000,425.700,113.500,30.080,222.000,54.640,15.220,4.847,343.800,87.640,23.250,8.533,baseline
1607.000,431.100,102.600,28.810,1696.000,427.200,113.700,30.030,222.500,54.760,15.250,4.840,345.000,87.720,23.340,8.471,baseline
1590.000,427.200,102.300,28.650,1687.000,425.500,112.200,29.860,222.700,54.600,15.180,4.837,343.100,86.810,22.910,8.367,baseline
1582.000,425.100,101.000,28.370,1689.000,426.800,112.300,29.670,221.600,54.530,15.180,4.807,341.100,86.850,22.860,8.390,baseline
1584.000,423.800,100.700,28.410,1683.000,425.300,112.800,29.870,221.100,54.520,15.160,4.832,341.600,86.450,22.930,8.427,baseline
1579.000,422.800,101.200,28.540,1682.000,424.800,113.100,29.740,223.700,54.440,15.150,4.815,341.900,86.870,22.980,8.390,baseline
1579.000,423.500,100.800,28.460,1680.000,422.900,112.700,29.950,223.800,54.440,15.130,4.857,342.900,86.900,23.130,8.457,baseline
1579.000,426.800,101.700,28.470,1682.000,424.400,113.100,29.980,221.800,54.520,15.220,4.832,343.100,87.160,23.250,8.462,baseline
1588.000,424.600,101.700,28.740,1683.000,427.000,113.100,29.980,222.100,54.560,15.230,4.825,343.700,87.150,23.260,8.493,baseline
1587.000,426.900,101.900,28.800,1687.000,424.900,113.300,29.790,220.900,54.670,15.300,4.834,343.900,87.570,23.060,8.380,baseline
1577.000,424.500,101.000,28.330,1687.000,423.400,112.400,29.710,223.000,54.340,15.140,4.787,341.200,86.490,22.780,8.335,baseline
1566.000,422.900,100.500,28.160,1680.000,423.100,112.600,29.680,220.500,54.250,15.130,4.795,340.400,85.990,22.800,8.324,baseline
1562.000,422.200,100.400,28.030,1678.000,422.500,112.100,29.780,220.200,54.300,15.120,4.797,339.800,86.530,22.840,8.346,baseline
1569.000,420.800,100.200,28.240,1681.000,425.100,112.600,29.780,221.200,54.440,15.150,4.793,340.900,86.460,22.840,8.391,baseline
1564.000,422.400,100.600,28.240,1679.000,424.300,112.900,29.890,220.600,54.300,15.200,4.799,340.900,86.770,22.970,8.399,baseline
1563.000,423.600,101.000,28.420,1673.000,422.600,112.900,29.920,221.700,54.620,15.200,4.820,341.600,86.690,23.050,8.434,baseline
1566.000,424.600,101.500,28.360,1682.000,422.900,112.400,29.700,221.900,54.630,15.130,4.794,341.900,87.220,23.100,8.400,baseline
1562.000,419.000,99.360,27.970,1672.000,421.200,112.100,29.570,220.700,54.320,15.160,4.803,339.100,85.880,22.610,8.262,baseline
1547.000,419.000,99.210,27.670,1665.000,419.600,111.900,29.560,220.200,54.120,15.080,4.779,337.200,85.630,22.630,8.267,baseline
1544.000,415.800,98.580,27.590,1672.000,419.900,111.900,29.630,222.000,54.120,15.020,4.776,336.100,85.470,22.540,8.230,baseline
1537.000,414.500,98.550,27.640,1659.000,420.800,111.900,29.680,217.100,54.070,15.070,4.796,335.600,85.470,22.560,8.303,baseline
1539.000,415.500,99.120,27.750,1668.000,418.700,111.600,29.790,218.300,53.780,15.080,4.770,336.000,85.440,22.630,8.299,baseline
1544.000,416.600,99.060,27.920,1664.000,419.600,112.000,29.850,219.700,53.970,15.090,4.773,336.100,85.520,22.790,8.363,baseline
1551.000,418.000,99.810,28.040,1676.000,422.200,112.300,30.060,220.600,54.200,15.140,4.812,338.000,86.110,22.830,8.381,baseline
1560.000,424.500,100.300,28.180,1678.000,420.700,112.100,29.850,222.100,54.200,15.130,4.820,336.100,85.690,22.660,8.228,baseline
1545.000,421.300,98.460,27.740,1667.000,420.700,112.000,29.950,220.100,53.890,15.050,4.778,333.800,84.670,22.510,8.237,baseline
1528.000,415.000,98.210,27.630,1669.000,420.100,111.800,29.890,218.400,53.820,15.010,4.772,332.600,84.640,22.350,8.239,baseline
1528.000,414.800,98.000,27.700,1662.000,420.800,112.200,30.110,219.400,53.760,15.100,4.747,332.700,84.510,22.270,8.183,baseline
1541.000,415.000,98.570,27.830,1670.000,421.000,112.300,30.120,220.200,53.740,15.030,4.765,332.000,84.830,22.410,8.257,baseline
1539.000,417.000,99.120,27.690,1674.000,421.700,112.700,30.160,221.800,53.810,15.080,4.780,332.100,84.810,22.460,8.274,baseline
1530.000,415.900,99.130,27.990,1672.000,421.400,112.300,30.120,221.500,53.750,15.140,4.795,332.500,85.110,22.570,8.283,baseline
1546.000,417.700,99.740,28.000,1672.000,421.200,112.900,30.210,218.300,54.120,15.170,4.793,333.500,85.270,22.530,8.329,baseline
1547.000,416.200,99.580,28.230,1678.000,421.700,112.100,30.020,220.500,53.930,15.130,4.807,333.600,85.290,22.560,8.286,baseline
1536.000,413.300,98.060,27.660,1668.000,417.800,111.200,29.920,219.200,53.740,15.020,4.768,331.400,84.210,22.230,8.202,baseline
1534.000,411.900,97.770,27.300,1662.000,417.500,111.200,29.800,217.700,53.460,14.920,4.788,329.900,83.760,22.130,8.095,baseline
1520.000,409.300,97.310,27.360,1659.000,417.300,111.300,29.920,217.600,53.570,15.000,4.771,328.600,83.630,22.080,8.095,baseline
1517.000,410.500,97.400,27.290,1659.000,416.200,111.100,29.860,220.600,53.550,14.920,4.759,328.900,83.770,22.150,8.143,baseline
1528.000,410.700,97.160,27.400,1660.000,418.000,111.700,29.910,217.600,53.610,15.010,4.765,329.500,84.250,22.170,8.135,baseline
1534.000,411.300,98.320,27.560,1661.000,418.500,111.800,30.160,218.800,53.530,15.000,4.793,330.200,83.830,22.210,8.209,baseline
1526.000,412.300,97.710,27.750,1668.000,418.000,111.800,29.980,219.700,53.790,15.030,4.799,330.200,84.430,22.280,8.246,baseline
1528.000,415.000,98.580,27.950,1673.000,420.200,111.700,30.250,219.100,53.800,15.040,4.836,332.300,84.730,22.480,8.299,baseline
1546.000,417.900,99.030,28.020,1673.000,419.700,112.300,30.070,219.100,53.920,15.120,4.831,331.900,84.460,22.400,8.246,baseline
1537.000,415.200,97.990,27.510,1670.000,417.600,111.700,30.020,219.800,53.760,15.020,4.772,329.500,83.470,22.080,8.199,baseline
1530.000,412.300,97.490,27.410,1661.000,418.600,111.700,30.000,217.800,53.420,14.970,4.750,328.400,83.900,21.940,8.146,baseline
1528.000,412.200,97.890,27.450,1663.000,419.500,111.800,30.140,219.400,53.180,15.020,4.757,327.700,83.380,22.020,8.121,baseline
1524.000,412.300,97.550,27.540,1669.000,416.900,111.800,30.000,218.800,53.490,14.950,4.809,329.300,83.350,22.060,8.128,baseline
1535.000,413.800,97.890,27.570,1674.000,419.700,112.400,30.290,217.000,53.710,14.980,4.753,328.600,83.540,22.050,8.167,baseline
1537.000,415.100,98.550,27.710,1674.000,416.600,112.000,30.340,218.100,53.540,15.030,4.753,328.600,84.170,22.350,8.196,baseline
1549.000,418.600,98.660,27.840,1675.000,420.800,112.600,30.180,220.400,53.960,15.110,4.799,330.700,84.270,22.390,8.246,baseline
1547.000,416.600,99.370,28.110,1687.000,421.500,112.600,30.400,219.300,53.670,15.050,4.812,331.900,84.700,22.470,8.272,baseline
1550.000,421.700,99.470,28.330,1677.000,421.600,112.900,30.580,219.200,53.800,15.160,4.815,333.400,85.030,22.470,8.359,baseline
1559.000,417.100,99.450,28.100,1675.000,418.600,112.600,30.280,219.700,53.610,15.170,4.814,331.500,84.430,22.140,8.199,baseline
1534.000,417.800,98.610,27.770,1681.000,420.300,112.000,30.250,218.700,53.670,15.010,4.757,330.100,83.980,22.020,8.207,baseline
1549.000,413.400,99.070,27.720,1672.000,419.000,112.700,30.240,218.000,53.690,15.040,4.797,328.900,83.710,22.030,8.167,baseline
1552.000,414.400,98.820,28.020,1682.000,420.200,112.700,30.300,216.900,53.700,15.040,4.819,330.100,83.710,22.150,8.182,baseline
1546.000,418.900,99.050,27.930,1677.000,421.300,112.700,30.440,219.000,53.710,15.010,4.765,330.300,83.730,22.310,8.198,baseline
1545.000,418.900,99.650,27.930,1686.000,421.200,112.800,30.420,217.700,53.780,15.050,4.804,331.300,83.800,22.250,8.235,baseline
1561.000,419.400,99.740,28.050,1680.000,420.600,112.900,30.470,217.400,53.710,15.090,4.794,332.000,84.330,22.470,8.301,baseline
1564.000,421.300,100.200,28.250,1683.000,422.500,113.800,30.510,218.600,53.840,15.150,4.812,333.100,84.790,22.550,8.308,baseline
1567.000,423.300,100.400,28.460,1686.000,423.700,113.400,30.520,218.300,53.960,15.140,4.825,333.500,84.960,22.630,8.360,baseline
1569.000,422.900,100.200,28.410,1687.000,421.500,113.100,30.460,220.200,53.980,15.110,4.825,332.900,84.730,22.420,8.233,baseline
1554.000,421.900,99.380,28.040,1690.000,420.700,112.700,30.380,219.300,53.790,15.040,4.811,332.300,83.920,22.140,8.197,baseline
1562.000,417.800,98.730,28.040,1682.000,422.900,112.600,30.320,218.900,53.400,15.050,4.814,330.600,84.070,22.190,8.208,baseline
1560.000,419.900,99.150,27.910,1684.000,421.200,112.700,30.430,220.000,53.720,15.090,4.799,330.800,84.500,22.260,8.237,baseline
1564.000,419.100,99.820,28.070,1693.000,422.600,113.200,30.460,220.200,53.650,15.070,4.787,331.800,84.390,22.220,8.266,baseline
1563.000,419.500,100.100,28.210,1694.000,423.400,113.300,30.410,220.100,53.650,15.120,4.827,332.100,84.580,22.500,8.316,baseline
1559.000,422.200,100.300,28.330,1692.000,424.300,113.900,30.550,219.900,53.800,15.100,4.817,333.800,85.170,22.570,8.341,baseline
1567.000,424.600,101.000,28.640,1696.000,423.600,113.900,30.680,219.900,54.090,15.210,4.835,333.600,85.250,22.610,8.432,baseline
1581.000,425.500,101.200,28.850,1696.000,424.500,114.400,30.680,222.300,54.070,15.160,4.820,335.100,86.000,22.830,8.440,baseline
1585.000,424.900,101.000,28.370,1685.000,422.700,113.300,30.440,222.700,54.130,15.130,4.835,334.800,84.900,22.460,8.302,baseline
1566.000,419.100,99.710,28.300,1688.000,420.800,113.400,30.450,220.200,53.740,15.100,4.802,333.500,84.300,22.360,8.216,baseline
1556.000,419.400,99.500,28.170,1690.000,422.200,113.100,30.410,220.300,53.750,15.010,4.797,332.400,83.980,22.280,8.232,baseline
1563.000,420.600,99.650,28.120,1699.000,421.800,113.700,30.330,219.900,53.570,15.060,4.780,332.800,84.270,22.310,8.336,baseline
1560.000,422.300,99.790,28.400,1688.000,423.400,113.200,30.460,220.200,53.610,15.050,4.826,332.800,84.790,22.490,8.303,baseline
1556.000,422.800,100.400,28.420,1698.000,423.600,113.500,30.560,221.600,53.710,15.080,4.813,334.300,84.960,22.540,8.326,baseline
1569.000,424.500,100.600,28.540,1696.000,424.900,113.300,30.640,221.500,53.820,15.080,4.826,334.300,85.220,22.630,8.356,baseline
1566.000,424.400,100.800,28.660,1695.000,426.200,113.900,30.690,220.600,53.910,15.140,4.825,335.300,85.330,22.750,8.437,baseline
1577.000,427.600,101.700,28.760,1693.000,426.300,114.200,30.700,221.800,54.170,15.200,4.854,336.300,85.840,22.780,8.421,baseline
1578.000,425.700,100.800,28.550,1702.000,424.900,113.900,30.540,221.600,53.880,15.170,4.828,334.200,84.810,22.470,8.288,baseline
1567.000,422.900,99.960,28.330,1692.000,424.500,113.600,30.390,219.500,53.640,14.990,4.788,332.600,84.670,22.410,8.275,baseline
1561.000,421.000,100.000,28.200,1688.000,423.600,112.900,30.360,221.000,53.690,15.010,4.767,332.800,83.960,22.240,8.238,baseline
1553.000,421.400,99.770,28.160,1692.000,422.300,113.300,30.420,222.100,53.590,15.090,4.788,332.300,84.790,22.440,8.337,baseline
1554.000,419.600,99.950,28.260,1691.000,423.900,113.800,30.620,220.900,53.720,15.040,4.805,334.100,84.620,22.440,8.299,baseline
1557.000,425.100,100.300,28.450,1687.000,424.000,114.200,30.640,220.900,53.820,15.050,4.830,333.200,84.800,22.590,8.383,baseline
1552.000,423.300,101.000,28.680,1694.000,424.400,114.500,30.710,221.400,53.840,15.090,4.841,334.800,85.190,22.720,8.417,baseline
1566.000,425.900,101.000,28.710,1699.000,424.000,114.600,30.960,223.100,54.160,15.180,4.829,335.700,85.580,22.750,8.467,baseline
1572.000,426.100,101.800,29.040,1698.000,426.100,114.500,30.730,224.200,54.180,15.150,4.833,336.800,85.540,22.850,8.442,baseline
1564.000,423.100,100.800,28.490,1698.000,425.900,113.500,30.630,221.900,53.680,15.170,4.825,334.100,84.870,22.380,8.361,baseline
1551.000,422.100,99.910,28.390,1690.000,422.100,113.400,30.430,224.400,53.720,15.000,4.804,333.400,84.700,22.320,8.276,baseline
1545.000,419.600,99.220,28.140,1692.000,422.800,113.000,30.500,222.400,53.570,15.040,4.810,333.400,84.670,22.380,8.325,baseline
1551.000,418.200,99.770,28.280,1686.000,421.900,113.400,30.370,221.000,53.730,15.010,4.815,332.600,84.430,22.340,8.307,baseline
1548.000,422.200,100.000,28.280,1687.000,421.900,113.800,30.470,220.700,53.700,15.070,4.803,333.300,84.760,22.520,8.340,baseline
1551.000,423.300,99.990,28.380,1678.000,421.700,113.900,30.590,220.600,53.540,15.150,4.829,335.200,84.950,22.540,8.382,baseline
1561.000,420.700,100.600,28.520,1691.000,422.400,114.100,30.690,222.800,53.790,15.150,4.846,335.000,85.610,22.650,8.441,baseline
1561.000,423.600,100.900,28.750,1692.000,424.200,114.400,30.700,222.300,54.180,15.150,4.826,336.000,85.710,22.780,8.465,baseline
1558.000,426.100,100.900,28.620,1693.000,423.600,113.300,30.450,222.800,54.090,15.130,4.839,335.700,84.690,22.550,8.264,baseline
1553.000,419.900,99.390,28.140,1684.000,422.700,113.100,30.370,224.500,53.820,15.070,4.829,333.200,84.610,22.270,8.293,baseline
1553.000,416.900,99.610,28.010,1682.000,421.100,113.200,30.470,223.800,53.770,15.000,4.777,331.800,84.550,22.260,8.251,baseline
1539.000,418.200,98.860,28.140,1679.000,422.100,113.500,30.310,222.500,53.640,15.030,4.784,332.300,84.580,22.320,8.286,baseline
1542.000,417.500,99.390,27.980,1684.000,420.800,113.000,30.400,222.300,53.770,15.060,4.799,332.700,84.390,22.360,8.265,baseline
1545.000,420.000,99.740,28.050,1684.000,422.100,113.700,30.370,222.200,53.650,15.080,4.810,333.100,84.650,22.440,8.296,baseline
1547.000,421.000,100.300,28.190,1686.000,423.500,113.800,30.360,221.100,53.930,15.120,4.838,333.600,84.960,22.570,8.341,baseline
1543.000,420.300,100.600,28.420,1689.000,423.700,113.900,30.610,223.300,53.940,15.150,4.855,334.500,85.360,22.700,8.401,baseline
1553.000,422.300,100.900,28.670,1689.000,423.100,113.500,30.550,221.800,53.990,15.110,4.820,334.900,85.040,22.520,8.304,baseline
1542.000,419.800,100.000,28.350,1694.000,423.500,113.500,30.570,222.000,53.760,15.060,4.793,332.700,84.450,22.260,8.251,baseline
1544.000,420.400,99.500,28.330,1689.000,422.500,114.100,30.490,226.900,53.520,15.070,4.774,331.200,84.440,22.280,8.188,baseline
1537.000,418.600,99.840,28.250,1683.000,424.000,113.200,30.620,224.700,53.600,14.980,4.776,331.700,84.200,22.270,8.251,baseline
1550.000,421.500,99.590,28.270,1691.000,422.900,114.000,30.620,222.500,53.650,15.040,4.804,332.000,84.500,22.360,8.264,baseline
1563.000,422.500,100.400,28.420,1692.000,424.400,113.800,30.860,222.100,53.850,15.070,4.831,333.700,84.610,22.390,8.253,baseline
1553.000,424.000,100.300,28.510,1694.000,425.000,114.700,30.800,225.700,53.960,15.140,4.822,333.400,85.220,22.450,8.306,baseline
1562.000,422.800,101.600,28.610,1695.000,423.900,114.900,30.850,225.500,53.790,15.110,4.821,335.200,85.400,22.570,8.332,baseline
1561.000,428.000,101.500,28.780,1699.000,425.800,115.100,30.960,224.200,54.080,15.140,4.802,336.000,85.620,22.680,8.300,baseline
1561.000,425.100,101.300,28.460,1695.000,425.100,114.700,30.650,225.400,53.990,15.010,4.800,333.600,84.510,22.240,8.234,baseline
1553.000,422.400,100.700,28.250,1687.000,423.700,114.200,30.560,224.000,53.870,15.080,4.771,331.700,84.290,22.180,8.142,baseline
1553.000,422.900,100.000,28.270,1686.000,425.300,115.100,30.790,223.000,53.660,15.000,4.784,331.000,84.330,22.210,8.197,baseline
1546.000,423.800,100.700,28.300,1697.000,425.900,114.500,30.680,224.400,53.820,15.020,4.763,332.200,84.490,22.290,8.178,baseline
1556.000,423.600,100.700,28.410,1700.000,424.500,115.000,30.850,223.800,53.880,15.070,4.782,332.600,84.760,22.210,8.233,baseline
1553.000,421.000,100.900,28.400,1690.000,425.100,114.700,30.700,224.600,53.780,15.070,4.808,332.900,84.790,22.390,8.211,baseline
1550.000,422.000,100.600,28.460,1689.000,423.200,114.300,30.650,221.100,53.790,15.060,4.830,334.500,85.040,22.330,8.214,baseline
1554.000,420.100,100.700,28.450,1693.000,423.900,114.100,30.620,221.800,53.980,15.140,4.819,335.400,85.210,22.610,8.261,baseline
1551.000,423.700,100.700,28.150,1686.000,424.100,113.900,30.410,222.400,53.800,15.060,4.811,332.500,84.340,22.180,8.164,baseline
1541.000,419.400,99.140,27.810,1682.000,422.100,113.400,30.390,220.500,53.670,14.980,4.776,331.600,84.040,21.990,8.138,baseline
1542.000,417.400,99.420,27.840,1682.000,425.100,112.900,30.440,222.300,53.580,14.990,4.771,330.500,83.740,21.970,8.099,baseline
1543.000,415.600,99.470,27.890,1682.000,422.500,113.600,30.520,223.300,53.570,14.970,4.792,331.200,84.080,21.930,8.140,baseline
1537.000,419.500,100.000,27.870,1684.000,424.100,114.200,30.530,219.700,53.820,15.090,4.768,330.500,83.970,22.090,8.152,baseline
1548.000,420.200,99.480,28.110,1689.000,424.000,114.400,30.580,220.300,53.700,15.040,4.767,332.200,84.080,22.350,8.205,baseline
1557.000,419.500,100.000,28.250,1697.000,422.600,113.900,30.620,220.000,54.020,15.000,4.778,333.000,84.510,22.380,8.209,baseline
1556.000,422.200,100.200,28.420,1694.000,425.600,114.300,30.650,221.400,53.830,15.050,4.822,333.700,85.170,22.360,8.226,baseline
1568.000,422.900,101.000,28.620,1692.000,423.700,113.800,30.480,220.200,53.880,15.120,4.787,334.400,84.580,22.160,8.168,baseline
1554.000,419.800,99.300,28.020,1687.000,421.600,113.800,30.480,219.500,53.460,14.860,4.794,332.600,83.850,21.980,8.142,baseline
1550.000,420.200,99.320,27.790,1681.000,424.000,113.000,30.380,220.800,53.430,14.970,4.788,331.100,83.420,22.010,8.054,baseline
1535.000,420.500,99.330,27.830,1687.000,423.200,113.000,30.540,220.300,53.350,14.920,4.752,330.400,83.260,21.950,8.124,baseline
1556.000,418.600,99.910,27.990,1688.000,423.000,113.800,30.490,219.900,53.460,14.900,4.787,331.000,83.620,21.970,8.131,baseline
1562.000,419.100,99.560,28.190,1693.000,424.400,114.500,30.610,219.900,53.590,15.030,4.770,331.100,83.870,22.090,8.103,baseline
1558.000,419.100,100.300,28.320,1691.000,425.200,114.200,30.750,219.600,53.660,14.940,4.788,331.300,84.230,22.120,8.178,baseline
1566.000,421.500,100.300,28.430,1699.000,426.100,114.800,30.880,220.300,53.540,15.000,4.807,333.400,84.610,22.530,8.233,baseline
1572.000,428.100,101.500,28.790,1702.000,427.100,115.200,30.930,222.600,53.850,15.110,4.810,334.400,85.130,22.490,8.325,baseline
1575.000,426.000,101.300,28.460,1708.000,427.500,114.200,30.770,223.700,53.760,15.060,4.818,332.700,84.230,22.100,8.158,baseline
1570.000,422.600,100.300,28.160,1705.000,425.300,114.500,30.710,222.300,53.650,15.030,4.781,332.100,83.550,22.080,8.152,baseline
1564.000,421.600,100.600,28.250,1704.000,423.600,114.600,30.940,223.200,53.680,15.000,4.769,332.100,83.570,22.110,8.174,baseline
1571.000,424.900,101.200,28.420,1708.000,428.200,115.800,31.280,224.300,53.670,15.090,4.803,330.200,83.990,22.140,8.226,baseline
1579.000,430.100,102.100,29.090,1727.000,430.600,116.700,31.600,225.200,53.750,15.120,4.824,332.700,84.280,22.390,8.288,baseline
1601.000,437.300,104.500,29.500,1745.000,434.000,118.400,31.870,228.300,54.160,15.240,4.896,335.100,85.110,22.550,8.400,baseline
1620.000,443.400,105.400,29.940,1750.000,438.200,118.800,32.070,232.000,54.320,15.350,4.918,336.600,86.050,22.740,8.479,baseline
1630.000,442.500,106.200,30.090,1759.000,438.200,119.500,32.170,230.700,54.660,15.470,4.924,338.600,86.270,22.890,8.496,baseline
1636.000,446.600,107.000,30.290,1762.000,439.900,119.500,32.240,232.800,54.720,15.470,4.955,340.600,86.550,23.110,8.578,baseline
1645.000,448.700,106.900,30.290,1760.000,436.500,119.300,32.170,235.100,54.850,15.500,4.976,339.200,85.590,22.760,8.520,baseline
1646.000,443.600,105.200,29.980,1760.000,437.300,119.000,32.080,233.000,54.680,15.380,4.931,337.300,85.360,22.660,8.374,baseline
1635.000,442.300,105.000,29.840,1766.000,435.100,119.100,32.040,233.800,54.470,15.400,4.929,337.100,85.490,22.520,8.386,baseline
1623.000,443.500,105.200,29.870,1760.000,435.400,119.300,32.030,230.500,54.230,15.230,4.917,337.400,84.810,22.510,8.346,baseline
1618.000,440.800,105.000,29.790,1748.000,437.300,118.500,31.920,230.600,54.190,15.290,4.906,336.000,84.980,22.370,8.391,baseline
1622.000,438.800,104.400,29.620,1738.000,433.700,118.200,31.770,230.500,54.320,15.280,4.919,337.300,84.780,22.470,8.380,baseline
1612.000,434.800,104.400,29.520,1741.000,432.100,117.700,31.760,229.100,54.370,15.240,4.876,336.400,85.120,22.580,8.394,baseline
1615.000,439.300,103.900,29.710,1736.000,433.800,117.400,31.710,228.800,54.270,15.280,4.880,337.300,85.330,22.610,8.461,baseline
1614.000,435.700,104.800,29.920,1750.000,437.000,117.800,31.900,227.900,54.110,15.360,4.899,338.900,85.710,22.660,8.453,baseline
1627.000,440.200,105.500,29.960,1744.000,434.900,117.600,31.880,227.700,54.320,15.280,4.902,339.000,85.980,22.700,8.436,baseline
1623.000,436.900,103.900,29.510,1737.000,431.100,117.200,31.620,227.300,54.140,15.160,4.854,335.800,84.520,22.240,8.308,baseline
1620.000,437.000,104.000,29.280,1736.000,432.900,117.400,31.520,226.100,53.750,15.190,4.849,334.800,84.700,22.030,8.232,baseline
1600.000,434.000,103.500,29.230,1739.000,430.600,117.100,31.500,224.200,53.830,15.150,4.807,334.200,84.080,22.150,8.269,baseline
1609.000,435.900,103.200,29.230,1737.000,431.200,117.200,31.610,226.500,53.730,15.150,4.818,334.200,83.990,22.270,8.256,baseline
1604.000,433.900,103.400,29.390,1735.000,433.400,116.800,31.600,226.200,53.690,15.130,4.841,334.900,84.050,22.150,8.329,baseline
1599.000,433.300,102.800,29.440,1720.000,429.700,116.800,31.400,225.200,53.880,15.140,4.858,335.000,84.530,22.310,8.337,baseline
1603.000,435.700,103.600,29.540,1738.000,433.000,117.700,31.600,225.900,53.870,15.100,4.866,336.500,84.920,22.550,8.308,baseline
1606.000,437.200,104.300,29.590,1735.000,433.300,117.500,31.790,225.700,54.210,15.190,4.878,337.400,85.520,22.650,8.427,baseline
1620.000,437.800,105.000,29.980,1739.000,433.300,118.000,31.860,227.600,54.360,15.240,4.890,339.000,85.760,22.850,8.458,baseline
1620.000,437.900,105.100,29.810,1740.000,434.400,117.100,31.580,226.000,54.200,15.200,4.861,336.000,85.320,22.380,8.329,baseline
1606.000,434.400,103.400,29.220,1735.000,431.000,116.900,31.290,226.100,53.970,15.080,4.832,335.300,84.400,22.270,8.251,baseline
1588.000,430.900,101.600,28.920,1722.000,429.400,115.700,31.060,224.500,53.910,15.070,4.862,335.300,84.330,22.200,8.261,baseline
1585.000,428.100,102.000,28.880,1717.000,428.200,115.700,31.170,225.400,53.960,15.120,4.841,336.000,85.060,22.250,8.280,baseline
1588.000,428.900,102.100,28.860,1715.000,428.100,115.400,31.130,227.000,54.070,15.110,4.838,336.500,84.380,22.380,8.314,baseline
1588.000,427.600,101.700,28.930,1709.000,427.700,115.300,31.230,226.300,54.050,15.160,4.845,336.700,84.870,22.440,8.327,baseline
1588.000,428.600,102.700,29.140,1715.000,428.700,116.000,31.310,226.400,54.020,15.220,4.856,337.200,85.470,22.560,8.453,baseline
1596.000,433.200,103.500,29.270,1707.000,429.900,116.100,31.410,226.600,54.600,15.230,4.884,337.300,85.800,22.700,8.422,baseline
1602.000,434.400,103.100,29.450,1726.000,429.500,116.700,31.470,226.100,54.670,15.370,4.893,339.200,85.880,22.770,8.453,baseline
1604.000,431.100,103.100,29.010,1718.000,428.600,115.600,31.100,227.900,54.420,15.260,4.880,337.200,85.220,22.450,8.294,baseline
1596.000,426.200,101.500,28.790,1721.000,426.500,115.300,30.930,225.400,54.000,15.190,4.865,335.300,84.250,22.360,8.291,baseline
1585.000,427.800,101.300,28.850,1709.000,428.200,115.000,30.960,226.100,53.890,15.090,4.804,334.700,84.570,22.300,8.273,baseline
1580.000,427.100,101.600,28.660,1710.000,426.300,115.200,31.000,224.100,53.910,15.170,4.825,334.900,84.640,22.230,8.224,baseline
1574.000,425.600,101.400,28.700,1712.000,427.000,115.000,30.960,224.800,53.850,15.060,4.845,334.100,84.340,22.360,8.245,baseline
1571.000,426.800,101.800,28.730,1715.000,429.300,114.800,30.960,223.700,54.020,15.130,4.820,335.400,84.480,22.400,8.233,baseline
1582.000,426.700,101.700,28.850,1719.000,426.300,115.300,31.000,224.900,54.090,15.160,4.876,336.100,85.170,22.570,8.323,baseline
1585.000,429.600,102.300,29.040,1710.000,428.400,115.500,31.020,224.700,54.180,15.160,4.861,336.900,85.560,22.620,8.385,baseline
1594.000,429.600,102.600,29.220,1713.000,429.400,115.800,31.070,225.200,54.150,15.200,4.886,338.900,85.490,22.790,8.396,baseline
1594.000,430.300,102.000,28.650,1712.000,426.600,114.300,30.740,226.200,54.040,15.100,4.830,335.900,84.440,22.250,8.251,baseline
1574.000,422.400,100.200,28.220,1700.000,424.700,114.400,30.670,223.600,53.580,14.990,4.797,332.400,84.260,22.120,8.205,baseline
1567.000,422.500,99.720,28.330,1704.000,423.300,114.300,30.610,223.400,53.890,15.050,4.780,333.300,84.040,22.210,8.198,baseline
1563.000,422.600,99.570,28.490,1701.000,424.900,114.200,30.700,224.100,53.990,15.040,4.799,332.700,84.100,22.240,8.197,baseline
1565.000,423.000,100.300,28.250,1697.000,425.800,114.400,30.760,223.600,53.930,15.050,4.779,333.900,84.360,22.060,8.250,baseline
1563.000,422.100,100.100,28.470,1706.000,424.500,114.700,30.800,223.100,53.930,15.070,4.796,333.500,84.510,22.240,8.224,baseline
1561.000,423.600,100.300,28.480,1705.000,424.800,114.200,30.790,223.300,53.960,15.120,4.824,334.700,84.550,22.340,8.287,baseline
1573.000,422.600,100.800,28.630,1707.000,425.600,114.700,30.810,223.800,54.030,15.130,4.841,335.300,84.980,22.600,8.339,baseline
1581.000,429.100,101.500,28.800,1716.000,425.800,114.300,30.770,223.500,54.250,15.170,4.842,336.600,84.720,22.360,8.217,baseline
1559.000,420.300,99.840,28.210,1699.000,424.200,114.200,30.600,222.400,53.850,15.050,4.785,332.100,83.790,22.090,8.212,baseline
1552.000,419.200,98.880,28.060,1699.000,422.100,114.400,30.560,223.800,53.680,15.020,4.799,331.600,83.490,22.000,8.142,baseline
1551.000,416.300,99.010,27.970,1703.000,422.900,113.300,30.630,222.600,53.650,15.050,4.793,331.900,83.640,22.080,8.134,baseline
1559.000,419.900,98.830,27.790,1698.000,423.900,114.100,30.620,221.400,53.660,14.990,4.802,331.800,83.840,21.990,8.153,baseline
1537.000,416.900,99.140,27.910,1707.000,421.100,113.800,30.550,222.200,53.740,15.050,4.817,331.600,83.970,22.110,8.237,baseline
1545.000,417.400,99.220,28.090,1705.000,423.100,114.900,30.790,225.800,53.750,15.070,4.813,333.200,84.290,22.250,8.258,baseline
1557.000,420.800,99.480,28.210,1707.000,423.700,113.900,30.750,223.000,53.840,15.090,4.803,332.900,84.490,22.320,8.316,baseline
1550.000,421.000,99.430,28.240,1709.000,423.400,113.800,30.650,223.600,53.950,15.140,4.830,334.800,84.500,22.290,8.256,baseline
1558.000,418.900,98.440,27.730,1699.000,422.100,113.200,30.370,222.000,53.950,15.060,4.784,331.500,83.380,21.940,8.152,baseline
1539.000,416.500,97.440,27.590,1687.000,420.900,112.700,30.250,223.400,53.670,14.990,4.788,330.800,83.360,21.780,8.086,baseline
1537.000,413.500,97.610,27.360,1686.000,419.800,113.200,30.120,223.000,53.600,14.940,4.777,330.300,83.030,21.910,8.073,baseline
1528.000,412.200,96.850,27.360,1685.000,418.900,112.400,30.390,221.600,53.710,14.960,4.782,329.900,83.000,21.790,8.114,baseline
1520.000,408.700,97.050,27.340,1680.000,417.800,112.500,30.220,221.500,53.690,15.010,4.801,329.400,83.150,21.960,8.099,baseline
1523.000,410.900,96.840,27.230,1683.000,419.000,112.500,30.260,221.200,53.690,14.970,4.770,330.200,83.830,22.010,8.144,baseline
1530.000,412.200,97.240,27.360,1681.000,419.300,112.900,30.320,221.500,53.860,15.090,4.783,331.600,83.940,22.230,8.164,baseline
1532.000,415.100,97.580,27.580,1681.000,419.900,112.000,30.230,223.000,53.960,15.120,4.798,332.600,84.030,22.130,8.175,baseline
1529.000,411.400,97.020,26.940,1671.000,415.500,112.000,30.080,220.900,53.780,15.010,4.761,330.300,82.950,21.710,8.046,baseline
1515.000,405.700,95.420,26.880,1676.000,413.600,111.400,29.930,221.900,53.450,14.930,4.745,327.800,82.700,21.600,8.002,baseline
1505.000,403.900,95.240,26.700,1668.000,415.800,111.400,29.910,220.900,53.300,14.850,4.763,327.100,82.330,21.630,8.014,baseline
1510.000,408.000,95.770,26.700,1667.000,416.600,111.900,30.140,220.300,53.350,14.870,4.769,328.100,83.040,21.750,8.025,baseline
1509.000,406.000,96.310,26.810,1674.000,418.700,111.900,30.260,221.900,53.490,14.940,4.777,329.000,82.670,21.770,8.058,baseline
1519.000,407.900,96.640,27.160,1694.000,421.300,113.700,30.390,223.800,53.480,15.000,4.767,328.900,83.020,21.890,8.044,baseline
1528.000,413.300,96.580,27.280,1686.000,419.100,113.100,30.460,222.400,53.760,15.060,4.784,331.600,83.550,22.150,8.111,baseline
1530.000,412.800,97.990,27.510,1703.000,422.800,113.100,30.470,222.900,54.010,15.110,4.840,332.100,83.870,22.150,8.152,baseline
1525.000,410.800,96.860,26.950,1690.000,418.700,112.500,30.210,225.400,53.730,15.040,4.791,330.100,83.130,21.710,7.986,baseline
1518.000,410.100,95.790,26.710,1691.000,418.100,111.800,30.140,222.700,53.520,14.990,4.782,329.600,82.730,21.750,8.003,baseline
1518.000,406.200,95.920,26.580,1683.000,418.200,112.500,30.300,223.300,53.670,15.040,4.778,328.300,83.010,21.620,8.014,baseline
1513.000,405.800,95.550,26.630,1677.000,417.500,112.000,30.300,225.400,53.760,15.060,4.775,329.200,82.940,21.720,8.048,baseline
1515.000,406.900,95.810,26.920,1691.000,417.700,113.100,30.250,224.600,53.970,15.080,4.777,330.000,83.290,21.770,8.086,baseline
1519.000,408.300,96.120,26.920,1691.000,417.600,113.200,30.440,223.000,53.770,15.180,4.809,330.500,83.470,21.800,8.090,baseline
1522.000,410.200,96.270,27.010,1693.000,420.500,113.800,30.660,222.700,53.930,15.140,4.827,331.900,83.650,22.030,8.111,baseline
1530.000,414.200,97.670,27.230,1692.000,421.800,113.200,30.540,225.600,54.060,15.150,4.841,332.100,84.350,21.980,8.139,baseline
1532.000,410.400,96.170,27.020,1682.000,418.000,112.600,30.470,226.700,53.960,15.100,4.815,331.200,82.820,21.760,8.008,baseline
1522.000,408.000,95.820,26.760,1690.000,418.300,113.000,30.260,223.100,53.560,15.040,4.792,328.300,82.520,21.660,7.987,baseline
1512.000,406.400,94.870,26.520,1684.000,416.900,112.400,30.220,223.000,53.770,14.920,4.811,329.200,82.120,21.580,7.992,baseline
1513.000,407.700,95.430,26.620,1682.000,418.600,112.300,30.400,225.000,53.640,15.010,4.786,329.700,82.740,21.600,7.990,baseline
1511.000,408.000,95.410,26.390,1679.000,417.600,112.500,30.430,223.100,53.830,15.090,4.801,329.300,82.780,21.540,7.972,baseline
1519.000,408.100,96.010,26.730,1691.000,419.800,112.600,30.560,223.800,53.820,15.100,4.815,329.700,82.940,21.750,8.041,baseline
1527.000,408.500,95.830,26.770,1687.000,418.200,113.400,30.520,224.200,53.910,15.170,4.827,330.100,82.960,21.810,8.040,baseline
1531.000,410.300,96.450,27.090,1696.000,420.600,113.500,30.820,225.100,53.820,15.080,4.821,331.000,83.160,21.880,8.095,baseline
1531.000,409.300,96.350,26.960,1698.000,420.000,113.000,30.560,224.100,54.010,15.160,4.836,331.300,83.180,21.700,7.956,baseline
1523.000,407.300,95.120,26.490,1689.000,416.600,112.400,30.270,223.300,53.380,15.020,4.788,327.500,82.310,21.510,7.934,baseline
1509.000,405.900,94.830,26.420,1689.000,415.900,112.400,30.380,221.700,53.650,15.040,4.767,327.700,81.760,21.330,7.907,baseline
1513.000,404.600,94.550,26.430,1684.000,415.900,112.100,30.340,221.100,53.320,14.970,4.771,327.400,81.850,21.380,7.912,baseline
1505.000,407.400,94.880,26.530,1681.000,417.100,112.800,30.370,221.300,53.530,15.010,4.778,327.100,81.960,21.380,7.942,baseline
1526.000,405.400,95.710,26.640,1690.000,415.600,112.300,30.540,222.400,53.560,14.980,4.795,328.200,82.320,21.530,7.912,baseline
1526.000,406.900,96.130,26.790,1691.000,417.800,112.300,30.680,220.900,53.540,15.050,4.805,328.500,82.530,21.590,7.956,baseline
1526.000,408.800,96.350,27.010,1687.000,420.600,112.900,30.720,221.600,53.680,15.080,4.817,329.100,82.800,21.700,8.053,baseline
1540.000,410.600,97.070,27.090,1702.000,419.600,113.600,30.760,222.900,53.830,15.140,4.817,329.700,82.880,21.720,8.075,baseline
1540.000,414.000,96.920,27.020,1695.000,417.900,112.400,30.470,222.900,53.810,15.080,4.824,328.400,82.310,21.400,7.897,baseline
1533.000,409.300,95.570,26.690,1694.000,417.800,112.900,30.590,221.300,53.490,15.060,4.789,327.300,81.870,21.340,7.907,baseline
1521.000,407.300,95.570,26.560,1685.000,417.600,113.100,30.610,220.500,53.450,14.980,4.753,327.500,81.600,21.220,7.876,baseline
1529.000,408.600,95.830,26.740,1687.000,417.500,112.600,30.540,220.800,53.470,14.980,4.791,327.300,82.080,21.330,7.916,baseline
1534.000,409.200,95.700,26.900,1693.000,419.300,113.100,30.680,220.400,53.590,15.100,4.825,327.700,81.920,21.430,7.892,baseline
1528.000,409.900,96.370,27.000,1699.000,419.400,113.100,30.880,222.900,53.610,15.060,4.792,329.000,82.300,21.500,7.992,baseline
1537.000,413.300,96.670,27.240,1698.000,419.300,113.600,30.900,222.100,53.860,15.090,4.830,329.800,82.850,21.670,8.037,baseline
1558.000,414.200,97.890,27.410,1705.000,422.400,113.900,31.000,221.800,53.840,15.170,4.831,330.800,83.110,21.800,8.084,baseline
1550.000,416.300,97.610,27.590,1705.000,421.300,114.100,30.880,221.500,54.010,15.220,4.849,331.800,83.110,21.770,8.076,baseline
1550.000,411.500,96.930,27.300,1711.000,422.100,113.500,30.800,221.800,53.850,15.170,4.837,329.700,82.400,21.490,7.949,baseline
1548.000,414.600,97.320,27.250,1710.000,422.400,114.000,31.000,222.700,53.860,15.080,4.823,329.300,82.470,21.360,7.937,baseline
1566.000,417.100,98.120,27.480,1711.000,421.100,114.500,31.170,222.200,53.670,15.110,4.803,328.300,82.530,21.370,7.920,baseline
1558.000,417.100,98.430,27.380,1714.000,424.000,114.400,31.090,220.300,53.910,15.110,4.817,328.800,82.430,21.550,7.998,baseline
1559.000,416.100,98.410,27.620,1718.000,423.100,115.100,31.440,222.800,53.990,15.200,4.858,330.200,83.180,21.750,8.062,baseline
1573.000,421.300,100.400,28.180,1730.000,425.500,115.800,31.420,224.400,54.150,15.200,4.878,330.900,83.210,21.840,8.099,baseline
1580.000,422.900,99.800,28.000,1729.000,425.400,115.800,31.390,224.200,54.100,15.270,4.857,331.100,83.560,21.960,8.120,baseline
1581.000,422.700,100.000,28.180,1729.000,425.300,115.700,31.360,222.500,54.290,15.280,4.888,332.800,83.920,21.960,8.171,baseline
1583.000,424.000,100.300,28.090,1720.000,424.700,115.000,31.150,224.000,54.230,15.270,4.933,332.400,83.320,21.820,8.060,baseline
1573.000,419.700,99.370,27.850,1718.000,424.000,114.300,30.960,222.300,54.160,15.220,4.871,330.800,83.010,21.710,7.959,baseline
1565.000,419.400,99.110,27.640,1716.000,423.000,114.500,31.130,221.800,53.980,15.210,4.856,329.400,83.020,21.660,8.012,baseline
1559.000,418.800,99.410,27.720,1711.000,423.800,114.600,30.990,224.000,53.930,15.220,4.865,329.700,82.770,21.700,8.052,baseline
1568.000,420.100,98.440,27.730,1721.000,423.400,114.300,31.060,222.000,54.070,15.210,4.847,331.000,83.370,21.800,8.065,baseline
1570.000,420.000,99.550,27.950,1719.000,424.600,114.300,31.140,222.700,54.140,15.230,4.861,331.400,83.480,21.890,8.115,baseline
1577.000,418.400,99.390,27.940,1710.000,422.800,114.700,31.230,223.000,54.110,15.240,4.870,331.800,83.690,21.760,8.120,baseline
1582.000,419.200,100.200,27.880,1711.000,424.600,114.600,31.240,221.300,54.210,15.290,4.897,333.000,84.020,22.020,8.153,baseline
1587.000,422.600,100.200,28.200,1725.000,424.300,114.300,31.070,222.800,54.360,15.330,4.871,333.600,84.200,22.150,8.090,baseline
1569.000,422.300,99.140,27.770,1709.000,423.300,114.200,30.810,222.000,54.170,15.190,4.852,331.900,83.390,21.710,8.041,baseline
1574.000,417.700,99.310,27.650,1718.000,421.800,113.800,30.780,221.400,54.170,15.160,4.852,331.500,83.140,21.760,7.994,baseline
1563.000,419.700,98.590,27.680,1707.000,422.100,113.700,30.950,222.900,53.820,15.180,4.854,331.700,83.140,21.790,8.030,baseline
1562.000,419.400,99.040,27.590,1707.000,422.600,113.000,30.780,220.400,54.180,15.140,4.874,330.800,83.460,21.800,8.066,baseline
1569.000,419.500,99.380,27.640,1707.000,422.000,114.100,30.930,222.000,54.060,15.230,4.864,331.300,83.570,21.920,8.091,baseline
1576.000,419.600,99.050,27.800,1709.000,423.500,114.300,31.030,222.300,54.200,15.290,4.879,331.400,84.070,21.940,8.140,baseline
1562.000,419.800,99.840,28.000,1715.000,424.800,114.200,31.100,222.400,54.310,15.260,4.872,335.400,84.500,22.120,8.166,baseline
1569.000,422.600,100.400,28.160,1710.000,423.400,114.400,30.910,221.200,54.440,15.320,4.892,335.800,84.640,22.120,8.185,baseline
1576.000,421.100,99.550,27.910,1711.000,422.200,113.800,30.780,222.300,54.320,15.280,4.894,333.300,84.070,21.850,8.075,baseline
1560.000,419.600,98.870,27.780,1710.000,421.100,114.000,30.810,222.500,54.240,15.250,4.862,331.500,83.770,21.830,8.103,baseline
1560.000,421.100,98.660,27.730,1701.000,420.100,114.200,30.740,221.000,54.090,15.190,4.851,332.300,83.580,22.000,8.119,baseline
1562.000,417.300,98.820,27.920,1712.000,421.500,114.100,30.720,222.100,54.290,15.300,4.883,332.100,83.770,22.050,8.094,baseline
1556.000,419.700,99.040,27.700,1701.000,421.700,113.500,30.830,220.500,54.290,15.220,4.850,333.600,84.300,22.080,8.149,baseline
1557.000,421.500,99.310,28.020,1711.000,420.800,114.000,30.850,220.500,54.300,15.280,4.871,333.200,84.480,22.240,8.155,baseline
1565.000,421.400,99.700,28.050,1711.000,420.100,114.400,30.900,221.400,54.360,15.310,4.881,334.900,84.810,22.210,8.230,baseline
1579.000,422.600,100.500,28.200,1709.000,422.400,114.100,31.010,219.700,54.280,15.290,4.906,335.600,85.310,22.350,8.259,baseline
1571.000,422.100,99.690,28.010,1692.000,420.800,113.600,30.730,221.400,54.410,15.330,4.901,334.100,84.330,22.140,8.152,baseline
1566.000,417.700,98.770,27.640,1702.000,420.400,112.800,30.550,223.000,54.090,15.180,4.880,332.500,83.800,21.960,8.093,baseline
1560.000,416.600,98.480,27.470,1703.000,417.400,112.900,30.620,221.100,53.930,15.180,4.858,331.900,83.930,21.850,8.125,baseline
1545.000,416.800,99.030,27.700,1699.000,419.400,112.600,30.700,220.600,54.050,15.190,4.860,331.700,83.930,21.950,8.142,baseline
1556.000,417.500,98.790,27.770,1693.000,417.400,112.900,30.650,219.300,53.950,15.240,4.849,332.800,84.060,22.080,8.172,baseline
1550.000,418.400,98.950,27.850,1701.000,420.000,113.200,30.680,221.800,54.190,15.250,4.860,333.600,84.810,22.180,8.199,baseline
1561.000,419.900,99.720,27.950,1707.000,419.100,112.700,30.660,221.700,54.300,15.230,4.884,335.400,84.820,22.380,8.215,baseline
1567.000,421.900,100.000,28.040,1706.000,420.300,113.500,30.820,221.600,54.280,15.310,4.879,335.900,84.850,22.310,8.251,baseline
1563.000,421.100,99.860,27.990,1697.000,418.700,113.000,30.420,221.700,54.130,15.220,4.868,334.500,84.330,22.180,8.128,baseline
1552.000,414.600,98.230,27.400,1698.000,417.300,112.800,30.410,220.700,53.850,15.100,4.829,332.400,83.850,21.960,8.064,baseline
1538.000,415.100,98.240,27.300,1693.000,417.200,112.500,30.390,221.100,53.740,15.100,4.828,331.900,83.870,21.960,8.053,baseline
1544.000,415.100,98.340,27.530,1692.000,415.900,112.100,30.250,219.000,53.630,15.110,4.849,332.500,84.230,21.900,8.092,baseline
1548.000,414.300,97.840,27.570,1689.000,416.300,111.700,30.480,220.600,53.770,15.100,4.823,331.700,83.900,22.000,8.081,baseline
1540.000,415.100,98.560,27.530,1693.000,417.700,112.300,30.490,221.000,53.800,15.190,4.813,333.100,84.170,21.960,8.175,baseline
1550.000,417.500,99.170,27.760,1683.000,419.400,112.800,30.510,220.900,53.710,15.160,4.855,334.200,84.470,22.090,8.166,baseline
1556.000,417.300,98.820,27.860,1694.000,419.500,112.800,30.540,218.500,53.860,15.200,4.815,334.100,84.810,22.320,8.251,baseline
1557.000,420.000,99.800,27.890,1701.000,418.600,112.600,30.370,221.500,54.080,15.210,4.831,335.100,84.990,22.220,8.133,baseline
1537.000,415.600,98.170,27.500,1685.000,415.100,112.100,30.350,219.900,53.650,15.130,4.837,333.100,84.310,22.100,8.135,hard
1536.000,415.100,98.460,27.840,1697.000,416.800,112.400,30.400,218.900,53.660,15.070,4.829,333.600,84.410,22.140,8.234,hard
1556.000,417.900,98.720,27.850,1690.000,416.600,112.100,30.430,222.000,53.790,15.190,4.869,335.300,84.860,22.310,8.220,hard
1553.000,417.400,98.260,27.620,1684.000,416.300,111.400,30.100,221.800,53.990,15.110,4.846,333.100,84.150,22.040,8.092,hard
1540.000,412.900,97.840,27.190,1687.000,414.000,111.600,30.080,221.400,53.490,15.110,4.815,332.900,83.620,21.750,8.097,hard
1540.000,411.800,97.120,27.260,1687.000,414.500,110.700,30.110,223.900,53.600,15.050,4.819,332.200,83.210,21.800,8.105,hard
1535.000,415.100,97.930,27.340,1691.000,414.300,111.800,30.210,223.300,53.390,15.120,4.795,332.300,83.780,21.970,8.117,hard
1532.000,412.400,97.900,27.380,1682.000,414.700,111.500,30.020,220.900,53.470,15.090,4.822,332.500,83.840,21.890,8.124,hard
1544.000,412.500,97.090,27.320,1672.000,414.300,110.900,30.160,223.000,53.530,15.050,4.797,331.800,83.830,21.900,8.096,hard
1539.000,413.900,98.180,27.450,1680.000,414.300,111.500,30.090,222.600,53.780,15.150,4.849,333.700,84.010,22.070,8.128,hard
1541.000,415.100,97.330,27.580,1682.000,415.700,111.800,30.250,219.500,53.780,15.050,4.863,334.600,84.160,22.250,8.209,hard
1542.000,415.800,98.460,27.690,1685.000,411.300,111.000,30.150,221.200,53.940,15.150,4.852,335.300,84.700,22.100,8.152,hard
1541.000,413.000,97.660,27.230,1684.000,412.100,111.100,29.960,221.100,53.560,15.070,4.815,333.000,83.490,21.750,8.096,hard
1545.000,413.500,96.740,27.320,1682.000,412.500,111.200,30.000,218.400,53.380,15.030,4.797,331.300,83.300,21.740,8.036,hard
1539.000,410.800,96.880,27.090,1678.000,412.200,111.200,30.020,220.100,53.410,15.030,4.769,330.900,83.460,21.760,8.110,hard
1541.000,413.200,96.550,27.310,1681.000,414.300,111.900,30.140,219.400,53.350,15.030,4.803,331.700,83.420,21.730,8.098,hard
1542.000,411.700,97.620,27.490,1684.000,413.900,111.500,30.190,222.800,53.380,14.950,4.817,332.400,83.370,21.940,8.133,hard
1545.000,415.800,98.460,27.530,1693.000,415.900,111.600,30.300,219.400,53.600,15.040,4.790,333.600,84.080,21.980,8.184,hard
1559.000,415.400,98.510,27.570,1688.000,416.900,112.200,30.540,221.800,53.810,15.150,4.810,334.400,84.370,22.170,8.151,hard
1555.000,417.200,99.080,27.720,1692.000,417.000,112.300,30.400,219.900,53.720,15.070,4.855,334.700,84.510,22.200,8.222,hard
1564.000,421.900,99.000,27.920,1696.000,415.100,112.100,30.120,220.000,53.790,15.080,4.823,334.000,84.030,21.860,8.127,hard
1554.000,415.300,98.450,27.470,1693.000,414.200,111.400,30.170,220.500,53.500,15.040,4.783,332.200,83.340,21.960,8.093,hard
1557.000,413.600,98.320,27.380,1693.000,415.200,111.400,30.080,219.300,53.250,15.000,4.815,332.500,83.500,21.740,8.105,hard
1552.000,415.800,98.200,27.370,1688.000,416.200,111.400,30.080,220.000,53.490,15.100,4.798,332.300,83.530,21.950,8.115,hard
1560.000,418.900,98.380,27.600,1693.000,415.500,111.800,30.200,222.700,53.500,15.100,4.818,333.000,83.590,21.990,8.160,hard
1552.000,415.300,98.770,27.570,1694.000,417.200,111.800,30.290,221.900,53.700,15.070,4.832,333.700,84.330,22.030,8.183,hard
1568.000,420.700,99.310,27.780,1695.000,417.700,111.700,30.340,220.800,53.880,15.160,4.823,335.400,84.380,22.130,8.175,hard
1569.000,421.100,99.750,27.800,1697.000,418.100,112.800,30.600,224.100,53.740,15.200,4.842,335.900,84.940,22.190,8.210,hard
1576.000,421.600,99.110,27.900,1690.000,417.200,112.200,30.180,222.500,53.960,15.150,4.840,334.400,84.160,22.050,8.139,hard
1561.000,418.700,97.820,27.550,1690.000,415.900,111.700,30.250,223.200,53.710,15.040,4.795,333.000,84.110,21.830,8.135,hard
1562.000,418.000,99.040,27.660,1690.000,416.000,112.000,30.350,222.000,53.620,15.060,4.820,332.900,84.000,21.930,8.156,hard
1556.000,419.400,98.710,27.510,1690.000,416.400,111.600,30.190,219.500,53.690,15.120,4.840,334.000,84.270,21.970,8.165,hard
1561.000,419.400,99.280,27.790,1696.000,417.000,111.600,30.360,222.000,53.740,15.090,4.831,334.400,84.050,22.020,8.180,hard
1564.000,423.500,99.960,27.860,1700.000,416.100,112.500,30.330,221.400,53.700,15.130,4.848,334.800,84.270,22.240,8.195,hard
1567.000,421.500,99.650,27.950,1696.000,418.500,112.200,30.390,221.600,54.220,15.140,4.812,334.800,84.870,22.210,8.185,hard
1581.000,423.500,100.100,28.070,1701.000,420.100,112.900,30.410,223.300,54.080,15.270,4.832,336.700,85.350,22.340,8.226,hard
1577.000,421.000,99.210,27.990,1690.000,417.200,112.600,30.120,221.400,54.070,15.140,4.846,334.000,84.580,21.990,8.134,hard
1562.000,421.400,98.630,27.640,1689.000,418.500,111.800,30.210,221.200,53.710,15.100,4.807,333.900,83.800,21.910,8.076,hard
1554.000,418.100,98.840,27.570,1690.000,417.000,112.400,30.160,221.400,53.940,15.140,4.823,333.100,83.950,21.900,8.132,hard
1563.000,420.800,98.800,27.720,1691.000,417.100,111.500,30.330,222.900,53.800,15.160,4.821,333.700,84.060,22.030,8.127,hard
1569.000,421.100,99.250,27.760,1691.000,416.600,111.700,30.350,221.100,53.910,15.120,4.823,334.900,84.290,22.060,8.131,hard
1563.000,421.300,99.800,27.760,1694.000,417.200,111.800,30.310,220.600,53.890,15.190,4.857,335.100,84.430,22.070,8.148,hard
1569.000,422.300,100.400,28.060,1687.000,416.500,111.800,30.410,222.200,54.140,15.230,4.863,335.600,84.640,22.370,8.237,hard
1581.000,424.500,99.490,27.930,1695.000,416.300,112.200,30.300,223.600,54.340,15.300,4.889,335.200,84.430,22.060,8.171,hard
1566.000,420.700,99.430,27.470,1687.000,415.500,111.400,30.260,221.800,53.990,15.160,4.825,333.800,83.560,21.940,8.097,hard
1568.000,422.700,98.950,27.530,1692.000,415.400,112.300,30.230,220.800,54.010,15.110,4.798,332.600,83.840,21.940,8.078,hard
1556.000,419.800,99.120,27.850,1694.000,417.400,112.600,30.380,222.500,54.050,15.120,4.822,333.000,84.050,21.940,8.094,hard
1559.000,422.000,99.050,27.740,1692.000,415.200,112.100,30.400,221.400,54.110,15.150,4.858,332.500,84.140,22.050,8.153,hard
1571.000,419.400,99.750,27.910,1691.000,416.400,112.200,30.590,222.400,54.090,15.180,4.841,333.800,84.110,22.110,8.150,hard
1571.000,423.100,99.560,27.910,1696.000,417.400,112.700,30.770,226.100,54.100,15.310,4.874,333.200,84.740,22.170,8.229,hard
1578.000,426.700,100.800,28.310,1708.000,419.900,113.300,30.640,223.400,54.380,15.290,4.855,334.700,84.870,22.260,8.193,hard
1577.000,425.700,99.820,27.990,1690.000,417.700,112.200,30.400,224.200,54.200,15.300,4.837,333.000,84.580,21.980,8.072,hard
1563.000,422.200,99.060,27.510,1688.000,416.600,112.100,30.330,223.600,54.010,15.210,4.838,332.500,83.320,21.940,8.120,hard
1566.000,421.500,98.930,27.630,1689.000,415.700,112.400,30.460,223.800,54.020,15.140,4.843,331.900,83.600,21.880,8.087,hard
1569.000,420.400,98.530,27.680,1687.000,414.300,111.800,30.380,222.800,54.150,15.220,4.843,331.500,83.580,21.950,8.090,hard
1561.000,419.800,98.970,27.670,1687.000,412.900,111.900,30.520,221.100,54.030,15.220,4.847,332.500,84.150,21.970,8.103,hard
1559.000,420.600,98.590,27.670,1680.000,413.600,111.300,30.380,222.700,54.360,15.240,4.857,331.200,84.370,22.080,8.189,hard
1571.000,417.900,99.370,27.850,1685.000,415.200,111.900,30.540,221.900,54.220,15.300,4.884,332.400,84.430,22.070,8.201,hard
1565.000,421.000,100.100,28.080,1696.000,416.100,112.400,30.680,223.100,54.490,15.310,4.877,334.100,84.850,22.080,8.183,hard
1567.000,420.700,98.820,27.830,1684.000,414.300,111.700,30.380,222.500,54.390,15.250,4.864,331.200,83.720,21.940,8.118,hard
1555.000,416.600,98.300,27.370,1681.000,412.700,111.600,30.370,222.800,54.150,15.270,4.864,331.200,83.610,21.840,8.068,hard
1547.000,416.400,98.130,27.600,1680.000,411.500,111.300,30.320,222.900,54.180,15.220,4.888,331.500,83.700,21.850,8.106,hard
1551.000,414.200,98.410,27.600,1678.000,411.300,111.500,30.410,222.000,54.230,15.230,4.848,330.900,83.800,21.950,8.100,hard
1547.000,415.600,98.040,27.490,1678.000,413.100,111.800,30.530,223.900,54.130,15.260,4.894,330.800,83.910,22.040,8.148,hard
1551.000,416.000,98.510,27.720,1674.000,413.700,111.200,30.520,223.400,54.250,15.290,4.911,331.300,83.880,22.030,8.190,hard
1552.000,417.700,99.140,27.650,1678.000,413.100,111.500,30.500,224.100,54.260,15.370,4.875,333.200,84.140,22.200,8.246,hard
1553.000,418.800,99.060,28.000,1678.000,413.700,111.500,30.520,224.200,54.490,15.330,4.897,333.300,84.350,22.060,8.206,hard
1546.000,415.900,98.270,27.300,1673.000,411.600,110.800,30.140,223.200,54.310,15.250,4.860,330.300,83.380,21.800,8.087,hard
1540.000,412.000,97.360,27.390,1671.000,409.700,110.600,30.030,221.300,54.150,15.170,4.862,329.600,83.160,21.850,8.025,hard
1525.000,411.900,97.250,27.210,1666.000,408.900,110.500,30.220,221.500,53.860,15.250,4.865,330.200,83.480,21.930,8.107,hard
1536.000,411.900,97.810,27.460,1668.000,411.000,111.200,30.320,222.800,53.950,15.280,4.854,329.600,83.140,21.880,8.073,hard
1539.000,414.100,97.710,27.480,1673.000,411.300,111.500,30.460,223.300,54.110,15.210,4.875,330.400,83.330,21.860,8.119,hard
1540.000,412.900,97.920,27.670,1674.000,412.200,111.400,30.420,223.600,54.120,15.230,4.890,330.400,84.040,22.000,8.133,hard
1543.000,414.000,98.650,27.820,1683.000,413.300,111.800,30.580,224.200,54.230,15.370,4.898,332.100,84.350,22.140,8.224,hard
1558.000,418.500,99.360,27.980,1688.000,415.200,112.500,30.720,224.400,54.330,15.350,4.905,329.700,83.680,22.000,8.180,hard
1553.000,422.400,98.950,27.990,1681.000,414.300,112.500,30.610,226.400,54.150,15.320,4.913,329.200,83.420,21.800,8.122,hard
1546.000,416.500,98.600,27.760,1691.000,413.500,111.600,30.580,224.300,54.110,15.250,4.877,329.200,82.920,21.710,8.082,hard
1541.000,415.400,97.510,27.600,1688.000,412.400,111.200,30.410,221.800,54.190,15.310,4.901,328.700,83.000,21.860,8.098,hard
1550.000,415.200,98.040,27.490,1681.000,410.500,111.900,30.480,224.100,53.930,15.340,4.872,328.400,83.440,21.880,8.146,hard
1533.000,413.700,97.660,27.500,1679.000,412.600,111.300,30.400,224.000,54.060,15.280,4.873,328.700,83.410,21.920,8.173,hard
1534.000,414.500,97.650,27.400,1671.000,410.600,110.800,30.350,223.100,54.000,15.330,4.886,330.000,83.500,21.940,8.166,hard
1530.000,413.200,97.950,27.650,1680.000,411.200,111.200,30.380,224.000,54.250,15.360,4.943,330.600,83.600,21.910,8.106,hard
1526.000,411.000,96.910,27.410,1677.000,410.400,110.900,30.110,222.500,54.000,15.360,4.848,328.500,82.890,21.740,8.066,hard
1520.000,411.000,96.350,27.020,1668.000,410.400,110.300,29.910,224.300,53.920,15.190,4.856,327.200,82.350,21.460,7.977,hard
1512.000,406.600,95.830,26.880,1660.000,408.500,110.000,29.890,220.600,53.940,15.190,4.832,326.300,82.390,21.630,7.983,hard
1509.000,407.600,96.370,26.900,1660.000,408.000,110.200,30.180,220.400,53.760,15.200,4.859,327.000,82.560,21.510,8.008,hard
1517.000,405.700,96.310,27.070,1663.000,407.900,110.300,30.010,219.700,53.850,15.260,4.848,326.900,82.600,21.590,8.003,hard
1516.000,407.100,95.880,26.950,1669.000,407.800,109.900,29.950,223.500,53.930,15.170,4.855,327.400,82.690,21.640,7.995,hard
1515.000,406.500,96.230,27.130,1668.000,408.500,110.200,30.100,220.900,54.080,15.220,4.840,327.900,82.890,21.770,8.082,hard
1530.000,409.900,96.820,27.200,1667.000,408.500,110.900,29.930,221.500,54.100,15.300,4.856,329.100,82.890,21.670,8.028,hard
1521.000,407.100,95.790,26.790,1661.000,408.800,109.100,29.710,221.000,53.830,15.160,4.835,327.300,81.630,21.420,7.965,hard
1505.000,402.800,95.180,26.490,1658.000,407.100,109.400,29.700,221.100,53.460,15.060,4.847,325.900,81.470,21.340,7.911,hard
1501.000,403.300,94.850,26.500,1664.000,406.100,109.900,29.660,219.600,53.600,15.070,4.799,324.900,81.660,21.350,7.911,hard
1499.000,401.800,95.090,26.690,1662.000,406.700,108.800,29.700,217.800,53.770,15.150,4.812,325.100,82.000,21.500,7.932,hard
1500.000,404.100,94.740,26.670,1662.000,406.300,109.200,29.700,218.300,53.690,14.990,4.803,325.400,81.750,21.330,7.964,hard
1506.000,404.000,95.180,26.790,1668.000,408.500,108.900,29.820,218.400,53.720,15.180,4.822,327.100,82.150,21.490,7.994,hard
1508.000,405.400,96.030,26.830,1664.000,407.500,109.900,29.900,218.800,53.830,15.180,4.833,327.800,82.450,21.670,7.985,hard
1513.000,407.100,95.970,27.210,1657.000,410.300,110.200,29.810,218.300,54.010,15.200,4.858,327.400,82.560,21.610,7.944,hard
1515.000,404.400,95.130,26.650,1665.000,408.400,109.300,29.560,218.100,53.710,15.110,4.805,325.700,81.570,21.390,7.862,hard
1512.000,402.300,95.150,26.430,1655.000,407.000,109.100,29.620,218.300,53.750,15.020,4.796,325.300,81.460,21.360,7.832,hard
1500.000,400.700,94.870,26.650,1659.000,407.300,109.500,29.560,215.600,53.700,15.030,4.797,324.800,81.450,21.330,7.892,hard
1488.000,400.200,94.920,26.640,1660.000,407.100,109.200,29.650,218.400,53.650,15.100,4.783,326.400,81.680,21.290,7.901,hard
1511.000,404.700,95.670,26.740,1663.000,408.200,110.200,29.880,217.400,53.490,15.070,4.790,326.400,81.690,21.440,7.960,hard
1512.000,404.300,95.690,26.780,1659.000,408.200,109.000,29.790,218.400,53.730,15.160,4.799,327.800,82.170,21.660,7.989,hard
1521.000,405.800,96.350,27.070,1666.000,411.100,110.400,29.860,218.200,53.930,15.100,4.845,328.500,82.740,21.680,8.047,hard
1526.000,409.100,97.110,27.140,1667.000,411.700,110.000,29.660,218.900,54.180,15.220,4.830,328.800,82.450,21.570,7.944,hard
1510.000,405.300,95.120,26.740,1662.000,407.300,109.200,29.650,218.300,53.810,15.100,4.779,326.400,82.230,21.370,7.926,hard
1505.000,404.900,95.900,26.530,1658.000,410.600,109.400,29.690,217.900,53.710,15.140,4.765,324.900,81.620,21.460,7.903,hard
1506.000,406.400,95.620,26.670,1666.000,409.900,109.700,29.700,216.800,53.880,15.070,4.773,327.200,81.610,21.480,7.954,hard
1513.000,405.400,96.040,26.720,1664.000,410.200,109.600,29.740,218.900,53.940,15.130,4.796,327.100,81.990,21.490,7.929,hard
1516.000,408.100,95.790,26.930,1667.000,410.800,109.900,29.960,219.900,53.920,15.130,4.814,327.300,82.220,21.570,7.989,hard
1523.000,410.000,97.030,27.220,1678.000,410.700,110.800,29.760,219.400,53.930,15.170,4.828,328.500,82.690,21.660,8.021,hard
1523.000,411.000,97.040,27.220,1676.000,414.400,110.200,29.840,217.600,54.320,15.150,4.845,330.500,83.120,21.720,8.063,hard
1529.000,410.700,96.740,27.040,1668.000,411.000,109.600,29.660,219.000,53.990,15.170,4.806,329.200,82.020,21.570,7.962,hard
1513.000,409.400,95.980,26.830,1666.000,410.900,109.900,29.730,219.300,53.920,15.120,4.804,327.800,81.730,21.550,7.963,hard
1520.000,408.100,96.420,26.610,1671.000,411.300,110.000,29.820,218.700,53.820,15.040,4.796,326.400,82.220,21.490,7.961,hard
1524.000,410.200,96.430,26.910,1672.000,411.800,110.000,29.950,220.200,53.870,15.070,4.810,328.000,82.270,21.580,7.986,hard
1528.000,409.200,96.370,27.050,1673.000,412.600,110.600,29.920,218.700,53.840,15.170,4.800,329.100,82.320,21.620,8.005,hard
1531.000,410.600,96.510,27.210,1678.000,413.500,111.000,29.990,220.300,53.900,15.130,4.844,329.000,82.730,21.810,8.023,hard
1541.000,415.800,97.620,27.320,1679.000,413.400,111.100,30.040,222.000,54.230,15.150,4.798,330.400,83.400,21.940,8.085,hard
1540.000,414.900,97.700,27.110,1685.000,413.200,110.900,29.980,220.000,54.190,15.190,4.836,329.400,82.880,21.700,8.013,hard
1534.000,411.800,96.970,27.110,1677.000,412.400,110.100,29.960,220.100,53.940,15.180,4.805,328.600,82.340,21.550,8.008,hard
1540.000,413.800,96.460,27.050,1683.000,412.200,110.400,29.980,219.300,53.950,15.150,4.815,327.900,82.370,21.540,8.004,hard
1531.000,411.000,97.170,27.180,1681.000,413.800,110.900,29.990,218.900,54.120,15.240,4.822,329.100,82.470,21.630,8.043,hard
1531.000,413.700,97.400,27.150,1680.000,413.100,110.600,30.100,221.400,54.120,15.150,4.842,330.600,83.210,21.880,8.054,hard
1543.000,413.600,97.290,27.290,1683.000,415.500,111.200,30.230,221.900,54.300,15.170,4.849,330.300,83.400,21.910,8.137,hard
1548.000,415.600,98.200,27.720,1686.000,414.700,111.500,30.190,222.100,54.170,15.270,4.855,331.300,83.230,22.060,8.171,hard
1537.000,417.900,97.970,27.550,1684.000,414.100,110.500,30.020,222.000,54.290,15.290,4.856,331.000,83.410,21.760,8.095,hard
1545.000,414.400,97.630,27.310,1684.000,412.500,110.200,29.870,219.000,54.180,15.140,4.840,329.200,82.550,21.790,8.006,hard
1534.000,412.600,97.260,27.050,1677.000,411.100,110.300,29.940,221.400,53.880,15.090,4.799,328.300,82.630,21.690,8.026,hard
1536.000,412.500,97.340,27.130,1682.000,412.500,110.900,29.970,220.100,53.980,15.120,4.824,328.800,82.670,21.680,8.027,hard
1537.000,415.100,97.710,27.230,1669.000,413.900,110.800,30.060,220.900,53.910,15.180,4.820,329.700,82.890,21.790,8.030,hard
1538.000,417.000,98.160,27.360,1687.000,415.000,111.100,30.260,221.700,54.290,15.280,4.835,329.900,83.300,21.840,8.094,hard
1549.000,417.000,98.110,27.710,1676.000,413.700,111.500,30.340,221.500,54.250,15.280,4.869,331.200,83.840,22.030,8.135,hard
1555.000,417.100,98.900,27.780,1682.000,415.500,111.000,30.240,222.000,54.340,15.300,4.860,331.800,83.520,21.970,8.076,hard
1539.000,415.500,97.710,27.230,1681.000,415.300,111.100,30.040,222.100,54.170,15.260,4.840,329.700,83.160,21.740,8.002,hard
1546.000,414.800,96.930,27.020,1680.000,411.900,110.600,30.090,221.100,54.180,15.200,4.815,328.700,82.690,21.570,8.090,hard
1544.000,412.700,97.650,27.100,1683.000,413.300,111.000,30.200,222.400,54.180,15.200,4.863,329.000,82.730,21.860,8.092,hard
1542.000,414.400,97.890,27.110,1677.000,412.900,111.100,30.220,222.300,54.160,15.230,4.824,330.700,83.300,21.840,8.037,hard
1535.000,414.600,98.140,27.440,1677.000,414.700,111.400,30.340,219.300,54.390,15.260,4.849,330.100,83.040,21.900,8.096,hard
1546.000,417.100,98.090,27.580,1686.000,416.000,111.900,30.260,222.100,54.280,15.350,4.871,331.700,83.590,21.960,8.126,hard
1549.000,419.600,99.150,27.740,1680.000,414.600,111.400,30.340,220.000,54.430,15.320,4.889,332.100,84.130,22.010,8.098,hard
1550.000,416.300,97.630,27.350,1682.000,413.900,110.600,30.190,222.100,54.230,15.250,4.867,329.700,83.210,21.820,8.087,hard
1548.000,415.200,97.750,27.270,1686.000,412.500,111.000,30.160,222.600,54.150,15.250,4.826,329.500,82.980,21.700,8.005,hard
1543.000,414.400,97.420,27.310,1681.000,415.400,111.200,30.180,221.400,54.280,15.150,4.854,328.900,83.030,21.780,8.031,hard
1538.000,415.600,97.930,27.390,1678.000,414.100,110.900,30.310,219.100,54.510,15.240,4.856,330.100,83.100,21.820,8.099,hard
1543.000,414.200,97.950,27.440,1680.000,415.400,111.600,30.280,222.200,54.340,15.300,4.853,330.400,83.320,21.840,8.133,hard
1541.000,415.100,98.510,27.720,1678.000,415.200,111.600,30.470,221.600,54.610,15.270,4.874,331.000,83.520,22.010,8.158,hard
1551.000,416.000,98.600,27.710,1680.000,417.500,111.500,30.470,221.400,54.440,15.340,4.873,331.600,84.010,22.120,8.129,hard
1557.000,418.900,98.970,27.480,1681.000,413.400,111.300,30.180,222.200,54.430,15.300,4.863,332.000,83.320,21.700,8.101,hard
1547.000,414.100,97.760,27.460,1676.000,413.300,111.000,30.220,222.800,54.360,15.260,4.828,329.900,83.420,21.700,8.029,hard
1542.000,413.200,97.020,27.290,1683.000,413.600,111.200,30.270,220.000,54.070,15.210,4.819,329.200,83.450,21.680,8.060,hard
1540.000,413.800,97.390,27.480,1676.000,414.300,111.100,30.270,223.100,54.290,15.270,4.841,328.600,83.300,21.780,8.039,hard
1546.000,414.900,98.230,27.510,1684.000,411.600,111.500,30.300,221.200,54.180,15.280,4.865,330.100,83.500,21.920,8.095,hard
1536.000,414.600,98.220,27.770,1678.000,413.700,111.500,30.300,220.700,54.240,15.330,4.867,330.000,83.590,22.010,8.131,hard
1556.000,416.500,98.970,27.790,1682.000,415.400,111.800,30.490,220.400,54.520,15.330,4.854,330.900,83.850,22.090,8.168,hard
1556.000,416.000,99.180,27.910,1689.000,415.200,112.200,30.390,221.900,54.620,15.390,4.883,332.500,83.720,21.960,8.147,hard
1551.000,414.300,98.650,27.520,1686.000,414.900,111.000,30.200,222.400,54.270,15.290,4.831,329.700,82.950,21.820,8.052,hard
1542.000,416.800,97.520,27.370,1684.000,412.400,111.200,30.280,221.200,54.170,15.200,4.829,328.700,82.920,21.690,8.029,hard
1540.000,413.500,98.030,27.480,1679.000,414.200,111.900,30.340,223.400,53.960,15.300,4.833,329.600,83.200,21.730,8.040,hard
1532.000,412.800,97.860,27.480,1679.000,416.000,111.800,30.310,221.200,54.260,15.160,4.839,329.400,83.050,21.890,8.087,hard
1534.000,415.500,98.380,27.630,1686.000,415.000,111.500,30.390,221.800,54.440,15.340,4.845,330.300,83.690,21.940,8.128,hard
1542.000,414.700,98.480,27.880,1674.000,414.900,112.000,30.430,221.700,54.350,15.310,4.876,331.400,83.450,22.110,8.181,hard
1541.000,415.700,98.780,27.740,1677.000,414.800,111.500,30.470,220.600,54.520,15.230,4.868,330.700,83.710,22.080,8.172,hard
1542.000,415.000,98.220,27.420,1679.000,413.000,110.800,30.170,222.100,54.220,15.260,4.877,329.100,83.010,21.770,8.056,hard
1525.000,411.300,96.910,27.270,1675.000,411.800,110.700,30.130,221.000,54.120,15.240,4.835,328.900,82.460,21.650,8.004,hard
1525.000,410.100,97.230,27.330,1673.000,411.400,110.500,30.070,220.800,54.020,15.210,4.820,327.900,82.500,21.740,8.059,hard
1530.000,410.100,96.960,27.320,1672.000,413.300,110.800,30.200,221.200,54.100,15.230,4.852,326.400,82.550,21.720,8.020,hard
1525.000,411.300,97.680,27.190,1664.000,412.300,111.100,30.070,220.900,53.990,15.230,4.849,328.600,82.930,21.800,8.064,hard
1528.000,412.600,97.440,27.460,1672.000,410.500,111.500,30.230,220.700,54.220,15.320,4.868,328.000,83.070,21.830,8.134,hard
1529.000,413.000,97.730,27.700,1674.000,414.400,111.500,30.280,221.800,54.460,15.290,4.860,328.100,83.220,21.920,8.176,hard
1532.000,411.100,97.580,27.690,1679.000,413.400,110.900,30.120,223.000,54.230,15.270,4.864,328.800,82.930,21.630,8.070,hard
1519.000,408.600,96.690,27.160,1669.000,412.000,110.300,30.080,220.800,54.100,15.230,4.826,326.700,82.430,21.580,8.052,hard
1507.000,408.500,95.830,26.960,1665.000,411.800,110.300,30.050,220.800,54.020,15.170,4.837,326.000,81.540,21.480,8.010,hard
1508.000,406.200,97.270,27.100,1660.000,410.800,110.600,30.060,220.600,54.220,15.180,4.846,324.900,82.010,21.540,8.053,hard
1511.000,406.500,96.180,27.230,1671.000,412.200,110.400,30.130,220.400,54.140,15.310,4.855,326.100,82.240,21.540,8.062,hard
1508.000,406.900,96.810,27.150,1666.000,411.700,110.300,30.160,220.000,54.140,15.210,4.866,327.400,82.840,21.650,8.066,hard
1507.000,408.400,96.580,27.330,1673.000,411.600,110.700,30.240,223.700,54.180,15.280,4.834,327.500,82.470,21.820,8.112,hard
1516.000,408.300,97.210,27.480,1678.000,411.300,110.600,30.070,223.400,54.220,15.290,4.886,327.700,82.460,21.600,8.029,hard
1507.000,405.200,96.110,27.080,1672.000,408.500,109.900,29.870,222.000,54.030,15.190,4.829,325.400,81.450,21.440,7.986,hard
1499.000,404.100,95.270,26.730,1667.000,409.100,110.000,29.850,218.000,53.810,15.120,4.851,323.200,81.090,21.260,7.939,hard
1498.000,403.200,95.230,26.850,1664.000,409.100,109.300,29.910,220.300,53.940,15.160,4.808,323.000,81.360,21.340,7.973,hard
1497.000,402.400,95.260,26.890,1666.000,409.600,109.600,29.900,221.200,53.730,15.210,4.814,323.100,81.540,21.370,7.959,hard
1497.000,405.100,95.360,27.020,1661.000,409.100,110.100,30.040,223.300,53.780,15.180,4.838,324.500,81.560,21.500,8.007,hard
1498.000,405.000,95.420,27.170,1670.000,412.000,110.200,30.030,220.800,54.110,15.240,4.844,324.400,81.870,21.510,8.087,hard
1504.000,405.100,96.400,27.320,1675.000,410.600,110.200,30.140,220.900,54.100,15.210,4.842,325.900,82.060,21.600,8.045,hard
1506.000,405.500,95.310,27.070,1669.000,408.300,110.000,29.750,222.900,53.940,15.170,4.830,323.400,81.170,21.380,7.987,hard
1491.000,400.000,94.860,26.920,1667.000,408.300,109.400,29.810,220.400,53.690,15.090,4.787,323.000,81.150,21.290,7.920,hard
1482.000,402.200,95.050,26.730,1667.000,409.800,110.100,29.790,219.100,53.670,15.120,4.839,323.000,81.320,21.220,7.927,hard
1493.000,399.300,94.710,26.840,1665.000,410.900,109.900,29.850,221.600,53.940,15.060,4.795,323.000,81.280,21.380,7.943,hard
1484.000,403.200,95.280,26.900,1664.000,408.800,110.200,29.940,221.300,54.160,15.200,4.818,322.900,81.200,21.340,7.998,hard
1496.000,403.400,95.650,27.310,1675.000,412.600,110.400,30.030,220.000,54.190,15.250,4.824,325.100,81.480,21.610,8.069,hard
1495.000,407.900,96.160,27.320,1674.000,413.000,111.100,30.050,222.000,54.440,15.270,4.838,326.000,82.080,21.750,8.070,hard
1499.000,407.100,96.460,27.130,1678.000,411.800,110.000,29.850,222.700,54.260,15.240,4.839,324.900,81.710,21.470,7.969,hard
1496.000,403.100,95.090,26.840,1675.000,411.700,110.000,29.790,221.900,54.060,15.190,4.848,324.800,81.400,21.400,8.006,hard
1486.000,401.300,94.560,26.840,1669.000,411.500,110.400,29.840,222.500,54.110,15.180,4.810,324.100,80.940,21.410,7.984,hard
1489.000,405.000,95.370,27.000,1668.000,411.000,110.100,29.780,220.900,54.250,15.190,4.835,324.600,81.630,21.380,8.007,hard
1489.000,403.700,95.850,26.980,1679.000,410.500,110.200,30.060,220.300,54.280,15.170,4.834,324.600,81.940,21.650,8.020,hard
1498.000,405.100,95.830,27.330,1677.000,413.000,111.100,30.100,221.000,54.210,15.250,4.848,326.800,82.030,21.660,8.062,hard
1508.000,409.100,96.510,27.250,1675.000,414.700,110.900,30.120,222.700,54.280,15.250,4.887,328.100,82.390,21.840,8.096,hard
1509.000,405.700,96.110,27.370,1674.000,412.700,110.300,29.890,223.800,54.630,15.250,4.839,325.900,81.950,21.610,8.011,hard
1495.000,407.000,96.280,26.990,1676.000,412.200,110.400,29.920,223.100,54.240,15.150,4.821,325.200,82.150,21.480,8.025,hard
1493.000,403.400,95.690,27.040,1673.000,411.400,110.600,29.920,222.700,54.330,15.180,4.813,326.100,81.750,21.620,8.020,hard
1489.000,406.200,95.820,27.240,1680.000,413.900,110.800,29.980,220.500,54.310,15.320,4.857,326.000,81.950,21.750,8.082,hard
1503.000,405.200,96.430,27.290,1683.000,415.000,111.100,30.010,222.300,54.380,15.240,4.863,327.000,82.710,21.800,8.155,hard
1512.000,408.700,97.090,27.480,1682.000,416.200,110.800,30.220,223.700,54.680,15.270,4.888,328.300,82.320,21.850,8.165,hard
1514.000,410.300,97.760,27.760,1683.000,416.100,111.700,30.120,222.900,54.550,15.340,4.871,329.700,83.290,22.050,8.121,hard
1515.000,409.100,96.940,27.430,1681.000,415.600,110.800,29.830,223.100,54.670,15.340,4.868,327.300,82.250,21.800,8.083,hard
1503.000,405.100,96.240,27.160,1684.000,415.200,111.000,29.970,223.600,54.330,15.250,4.863,326.400,82.320,21.610,8.037,hard
1501.000,408.100,96.170,27.090,1684.000,416.000,111.200,29.960,222.200,54.350,15.220,4.850,327.700,82.500,21.610,8.056,hard
1502.000,408.700,96.640,27.370,1686.000,414.400,111.100,30.110,223.300,54.540,15.310,4.870,328.100,82.890,21.760,8.097,hard
1517.000,409.200,96.660,27.360,1689.000,416.400,111.800,30.100,222.600,54.570,15.210,4.841,329.300,83.100,21.880,8.144,hard
1513.000,410.200,97.600,27.560,1689.000,416.000,111.500,30.230,223.800,54.580,15.310,4.862,329.300,83.290,22.130,8.223,hard
1522.000,412.000,98.300,27.870,1697.000,417.300,112.600,30.310,223.600,54.870,15.350,4.887,331.900,83.560,22.140,8.202,hard
1525.000,410.200,97.320,27.450,1685.000,415.100,111.500,30.070,223.800,54.750,15.330,4.884,329.400,82.780,21.810,8.127,hard
1513.000,410.000,96.900,27.320,1696.000,416.200,111.500,29.930,223.800,54.650,15.310,4.844,329.600,82.960,21.850,8.114,hard
1525.000,413.100,96.530,27.260,1686.000,418.400,111.500,30.200,222.700,54.670,15.230,4.887,328.800,82.760,21.890,8.164,hard
1517.000,413.100,97.500,27.520,1692.000,416.500,111.800,30.250,224.700,54.590,15.270,4.858,330.100,83.300,22.010,8.188,hard
1526.000,413.700,97.680,27.470,1697.000,418.600,112.200,30.220,224.300,54.800,15.330,4.893,332.600,83.800,22.060,8.209,hard
1532.000,414.500,97.430,27.770,1701.000,419.200,112.300,30.490,223.900,55.110,15.370,4.903,332.800,84.050,22.190,8.270,hard
1538.000,416.600,98.880,28.060,1705.000,419.800,112.900,30.470,225.100,55.000,15.430,4.916,334.200,84.330,22.340,8.290,hard
1529.000,415.200,98.220,27.800,1707.000,418.800,112.100,30.420,226.400,54.930,15.400,4.883,332.600,84.080,22.040,8.197,hard
1539.000,414.400,98.130,27.540,1702.000,419.100,112.300,30.180,226.500,54.930,15.260,4.885,333.000,83.960,22.050,8.197,hard
1531.000,413.200,98.370,27.500,1695.000,419.900,112.300,30.380,225.900,54.940,15.390,4.894,333.200,83.960,22.160,8.183,hard
1534.000,416.300,98.620,27.890,1709.000,418.100,112.600,30.410,224.900,54.860,15.450,4.896,334.500,84.320,22.140,8.219,hard
1542.000,418.100,99.080,27.920,1705.000,421.800,113.600,30.640,224.600,55.240,15.490,4.895,335.300,84.720,22.370,8.249,hard
1542.000,415.700,98.760,28.160,1709.000,421.300,113.200,30.660,226.900,55.050,15.470,4.920,336.500,84.790,22.570,8.373,hard
1547.000,419.800,100.200,28.340,1718.000,423.300,113.600,30.690,226.400,55.340,15.540,4.957,337.300,85.230,22.480,8.364,hard
1555.000,418.800,100.200,27.980,1704.000,423.300,113.200,30.490,228.100,55.150,15.450,4.917,335.000,84.380,22.250,8.245,hard
1551.000,418.100,99.200,28.050,1713.000,421.000,113.400,30.440,225.600,55.080,15.390,4.889,335.500,84.770,22.330,8.268,hard
1550.000,418.500,99.670,28.120,1711.000,422.100,113.400,30.740,224.700,55.270,15.470,4.888,335.500,85.050,22.340,8.310,hard
1555.000,419.000,99.740,28.250,1715.000,421.800,113.500,30.750,226.700,55.100,15.480,4.938,336.700,85.010,22.520,8.352,hard
1564.000,420.600,100.300,28.460,1720.000,424.400,113.700,30.960,227.400,55.340,15.580,4.952,336.900,85.670,22.760,8.380,hard
1555.000,421.800,100.200,28.550,1720.000,423.500,114.400,30.920,228.100,55.410,15.570,4.963,337.900,85.900,22.750,8.485,hard
1565.000,425.500,101.800,28.740,1723.000,425.200,114.000,30.760,227.200,55.700,15.670,4.951,339.400,85.970,22.700,8.410,hard
1560.000,422.000,99.470,28.350,1714.000,423.400,114.100,30.710,228.400,55.400,15.610,4.956,337.200,85.330,22.540,8.370,hard
1556.000,421.400,100.100,28.420,1726.000,422.600,114.000,30.810,228.800,55.420,15.590,4.956,337.200,84.970,22.510,8.354,hard
1556.000,422.600,100.500,28.500,1719.000,422.400,114.300,30.810,229.500,55.280,15.570,4.932,336.400,85.280,22.510,8.423,hard
1555.000,423.600,100.900,28.630,1712.000,423.700,113.800,30.970,228.000,55.500,15.580,4.977,338.000,85.680,22.620,8.361,hard
1565.000,423.400,102.300,28.760,1716.000,425.300,114.800,31.190,229.800,55.610,15.630,4.965,338.500,85.920,22.760,8.429,hard
1556.000,426.000,101.600,28.920,1724.000,425.700,114.800,31.220,229.800,55.650,15.670,4.952,338.900,86.030,22.800,8.494,hard
1576.000,425.800,101.400,28.880,1724.000,424.000,114.300,31.010,227.900,55.670,15.620,4.959,338.300,85.640,22.510,8.407,hard
1559.000,424.400,101.200,28.680,1716.000,423.500,113.900,30.850,227.900,55.360,15.630,4.936,335.500,85.200,22.500,8.356,hard
1553.000,421.600,100.800,28.600,1719.000,425.100,114.300,30.920,225.900,55.250,15.540,4.947,335.100,84.980,22.340,8.343,hard
1551.000,419.800,100.900,28.650,1714.000,422.900,113.900,30.840,227.700,55.120,15.560,4.958,336.000,84.930,22.550,8.394,hard
1556.000,423.900,101.600,28.790,1717.000,422.900,114.600,30.990,228.100,55.320,15.530,4.950,336.400,85.180,22.440,8.425,hard
1553.000,423.300,101.400,28.810,1713.000,423.300,113.900,31.020,227.100,55.230,15.560,4.960,336.800,85.530,22.650,8.456,hard
1560.000,425.100,101.700,28.910,1720.000,425.800,114.600,31.010,228.700,55.410,15.600,4.956,337.800,85.980,22.690,8.457,hard
1555.000,423.200,101.000,28.700,1714.000,424.200,114.100,30.810,227.400,55.360,15.510,4.977,335.600,84.790,22.370,8.345,hard
1546.000,419.900,100.300,28.350,1711.000,421.600,113.500,30.800,226.200,55.050,15.450,4.915,334.700,84.240,22.240,8.289,hard
1549.000,418.300,100.000,28.380,1711.000,420.900,113.500,30.700,226.800,54.830,15.470,4.901,333.700,84.010,22.380,8.293,hard
1539.000,417.400,100.100,28.320,1706.000,420.200,113.500,30.610,225.500,55.120,15.440,4.947,332.400,84.670,22.180,8.329,hard
1542.000,418.400,100.200,28.370,1704.000,421.000,113.400,30.740,226.200,54.800,15.430,4.907,333.000,84.330,22.270,8.311,hard
1544.000,418.500,99.920,28.560,1715.000,422.300,113.500,30.850,226.700,54.980,15.480,4.907,333.700,84.780,22.490,8.382,hard
1541.000,418.600,100.200,28.610,1710.000,421.200,113.900,30.590,225.100,55.100,15.500,4.913,334.700,84.820,22.520,8.351,hard
1544.000,418.100,99.610,28.330,1707.000,419.100,112.800,30.520,225.800,54.760,15.500,4.921,332.300,84.130,22.120,8.212,hard
1523.000,411.800,98.550,27.930,1694.000,418.400,112.900,30.440,222.900,54.580,15.390,4.854,330.500,83.270,22.210,8.200,hard
1524.000,411.100,98.760,28.080,1698.000,418.100,113.200,30.530,223.600,54.690,15.350,4.885,330.300,83.780,21.970,8.221,hard
1520.000,414.100,98.410,27.970,1704.000,419.400,112.800,30.580,225.000,54.500,15.380,4.890,330.200,83.990,22.010,8.278,hard
1533.000,415.600,98.910,28.190,1693.000,420.300,113.300,30.500,221.700,54.630,15.480,4.896,330.600,83.830,22.210,8.304,hard
1525.000,413.900,99.620,28.360,1697.000,418.300,113.400,30.660,225.900,54.790,15.400,4.898,332.100,84.210,22.170,8.337,hard
1538.000,417.700,100.000,28.550,1700.000,420.600,113.100,30.620,225.800,54.910,15.400,4.931,331.100,83.880,22.130,8.285,hard
1533.000,412.300,98.770,28.150,1698.000,418.000,111.900,30.460,225.300,54.650,15.380,4.915,328.000,83.450,21.950,8.185,hard
1520.000,411.500,98.110,27.930,1697.000,417.200,111.900,30.440,224.400,54.400,15.330,4.870,327.700,82.600,21.920,8.201,hard
1520.000,410.400,98.100,28.070,1695.000,418.000,112.400,30.490,223.900,54.360,15.420,4.870,328.100,83.140,21.950,8.202,hard
1519.000,413.000,98.640,27.910,1689.000,418.700,112.500,30.520,223.200,54.560,15.330,4.884,328.300,83.160,21.910,8.271,hard
1519.000,410.900,98.690,28.040,1696.000,416.600,112.600,30.560,225.900,54.510,15.360,4.893,329.000,83.480,22.120,8.285,hard
1525.000,413.500,99.680,28.120,1697.000,419.900,112.800,30.600,223.500,54.740,15.420,4.920,330.300,83.810,22.220,8.305,hard
1534.000,413.200,99.470,28.080,1702.000,418.400,112.000,30.290,222.400,54.470,15.410,4.887,328.000,83.280,21.930,8.227,hard
1507.000,408.400,97.970,27.730,1686.000,415.900,112.200,30.340,223.800,54.250,15.330,4.859,327.200,82.590,21.780,8.126,hard
1503.000,408.800,97.180,27.700,1685.000,417.000,112.400,30.390,222.800,54.270,15.360,4.862,325.400,82.180,21.980,8.226,hard
1505.000,409.200,97.160,27.820,1683.000,416.200,112.400,30.320,223.900,54.210,15.310,4.859,325.600,82.400,21.960,8.178,hard
1508.000,406.900,97.390,27.630,1688.000,416.300,111.900,30.330,222.200,54.530,15.370,4.846,327.400,82.930,22.090,8.262,hard
1513.000,410.700,97.620,27.900,1692.000,417.300,112.300,30.310,223.500,54.520,15.350,4.878,327.800,82.750,22.100,8.271,hard
1511.000,412.100,98.150,28.020,1686.000,417.400,112.100,30.140,223.800,54.520,15.340,4.895,328.400,83.130,22.100,8.209,hard
1500.000,407.900,97.090,27.370,1687.000,413.900,111.300,29.980,222.300,54.220,15.300,4.846,325.600,82.310,21.890,8.150,hard
1502.000,407.200,96.530,27.510,1685.000,415.000,111.100,30.060,223.400,54.390,15.320,4.851,324.400,81.980,21.840,8.110,hard
1492.000,407.100,96.780,27.460,1684.000,414.800,111.100,30.150,221.700,54.090,15.340,4.849,323.700,81.950,21.930,8.181,hard
1494.000,405.800,96.660,27.580,1675.000,415.200,111.500,30.170,222.600,54.160,15.350,4.852,325.200,82.090,21.890,8.209,hard
1504.000,409.700,97.230,27.690,1687.000,415.700,112.000,30.220,222.200,54.270,15.320,4.871,326.100,82.790,22.050,8.213,hard
1516.000,406.600,97.550,27.590,1700.000,417.800,111.800,30.300,221.900,54.330,15.290,4.843,327.300,83.090,22.040,8.266,hard
1510.000,408.800,97.240,27.540,1694.000,417.900,111.300,30.010,223.200,54.110,15.280,4.865,325.600,82.320,21.770,8.107,hard
1496.000,407.000,96.540,27.340,1685.000,414.800,111.500,29.990,222.100,54.210,15.230,4.831,324.400,81.710,21.690,8.077,hard
1495.000,406.100,95.970,27.270,1691.000,415.400,111.800,29.970,222.200,53.910,15.250,4.845,323.400,81.720,21.740,8.142,hard
1500.000,405.700,96.170,27.420,1688.000,417.100,111.800,30.250,221.200,53.980,15.310,4.835,325.300,82.360,21.950,8.147,hard
1499.000,407.200,96.800,27.480,1688.000,418.100,112.100,30.180,221.800,54.140,15.300,4.859,324.900,82.380,21.880,8.175,hard
1502.000,408.400,97.710,27.560,1691.000,415.900,111.700,30.280,222.700,54.160,15.280,4.856,326.600,82.630,21.920,8.221,hard
1511.000,413.400,97.340,27.570,1696.000,416.600,111.400,30.100,223.100,54.470,15.380,4.848,326.800,82.410,21.800,8.111,hard
1498.000,407.700,96.260,27.220,1688.000,416.700,111.300,30.060,221.800,54.270,15.230,4.835,323.400,81.700,21.640,8.126,hard
1496.000,408.000,95.970,27.260,1680.000,417.800,111.500,30.100,222.000,54.100,15.150,4.843,323.200,81.840,21.700,8.097,hard
1494.000,405.100,96.740,27.200,1695.000,416.400,111.500,30.130,223.300,54.110,15.240,4.836,324.400,81.750,21.800,8.127,hard
1505.000,405.700,96.500,27.270,1693.000,418.800,111.900,30.180,223.300,54.270,15.300,4.852,325.200,82.410,21.820,8.141,hard
1499.000,408.200,97.180,27.360,1695.000,418.300,112.400,30.220,223.400,54.250,15.350,4.838,326.400,82.750,22.030,8.255,hard
1511.000,411.200,97.800,27.670,1699.000,418.900,112.400,30.280,220.600,54.550,15.370,4.864,326.700,83.010,22.020,8.211,hard
1518.000,408.200,96.720,27.270,1701.000,417.700,111.900,30.160,221.500,54.280,15.310,4.853,324.400,82.190,21.730,8.094,hard
1498.000,406.100,96.420,27.140,1692.000,417.000,111.800,30.200,221.100,54.230,15.270,4.809,325.200,81.820,21.710,8.080,hard
1496.000,406.800,96.040,26.930,1690.000,418.100,111.800,30.370,220.500,54.020,15.310,4.849,323.800,82.200,21.870,8.165,hard
1501.000,406.500,96.620,27.320,1692.000,419.900,112.500,30.440,223.400,54.430,15.310,4.856,325.300,82.820,21.940,8.202,hard
1500.000,408.200,96.760,27.340,1696.000,419.700,112.800,30.380,223.500,54.330,15.350,4.888,326.500,82.760,22.080,8.194,hard
1515.000,411.400,97.730,27.500,1701.000,422.400,113.500,30.720,222.300,54.510,15.410,4.844,328.600,83.340,22.140,8.247,hard
1520.000,413.500,98.030,27.590,1712.000,419.900,112.800,30.370,226.200,54.800,15.440,4.883,327.300,82.660,21.870,8.156,hard
1517.000,409.400,96.680,27.310,1700.000,419.900,112.800,30.540,223.000,54.470,15.340,4.868,326.900,82.440,21.940,8.110,hard
1519.000,410.000,96.510,27.290,1701.000,420.800,112.800,30.710,226.100,54.310,15.410,4.892,326.300,82.080,21.860,8.188,hard
1513.000,411.400,97.010,27.410,1700.000,421.900,113.500,30.750,222.500,54.720,15.360,4.890,326.800,82.740,21.930,8.213,hard
1506.000,409.900,96.930,27.530,1702.000,420.000,113.600,30.850,225.800,54.710,15.400,4.902,326.300,83.060,22.070,8.266,hard
1516.000,409.600,97.690,27.600,1710.000,421.900,113.600,30.890,225.000,54.690,15.500,4.917,329.400,83.480,22.210,8.317,hard
1525.000,414.200,98.070,27.700,1714.000,422.500,113.600,30.830,225.000,54.770,15.540,4.930,329.600,83.560,22.300,8.272,hard
1520.000,412.700,97.080,27.550,1703.000,420.400,114.000,30.650,225.800,54.780,15.550,4.906,327.900,82.470,21.900,8.201,hard
1517.000,410.400,96.430,27.120,1709.000,421.700,113.200,30.600,225.100,54.670,15.440,4.893,327.500,82.500,21.830,8.175,hard
1505.000,406.800,96.640,27.210,1707.000,420.300,113.000,30.770,224.400,54.570,15.340,4.878,327.900,82.690,21.950,8.205,hard
1514.000,407.900,96.240,27.350,1701.000,421.200,113.200,30.730,224.900,54.870,15.430,4.907,328.700,83.460,22.040,8.270,hard
1507.000,409.800,97.540,27.430,1697.000,420.900,113.700,30.870,226.200,54.810,15.420,4.926,329.500,82.970,22.130,8.277,hard
1523.000,412.500,98.060,27.780,1705.000,421.200,114.100,30.970,226.100,54.780,15.540,4.921,331.100,83.850,22.210,8.355,hard
1524.000,414.700,98.800,27.920,1714.000,421.600,113.600,30.870,224.300,55.220,15.530,4.951,330.900,83.780,22.220,8.243,hard
1521.000,408.800,96.950,27.450,1711.000,421.600,113.500,30.790,225.100,54.810,15.420,4.926,328.400,82.540,21.940,8.167,hard
1519.000,408.700,97.080,27.330,1705.000,421.100,113.300,30.780,224.700,54.710,15.450,4.896,328.100,82.790,21.890,8.192,hard
1520.000,411.200,97.100,27.540,1703.000,421.500,113.400,30.870,225.500,54.910,15.410,4.910,328.000,83.020,22.060,8.235,hard
1516.000,410.100,97.590,27.520,1702.000,422.100,113.700,31.000,227.300,54.860,15.540,4.914,328.800,83.020,22.060,8.260,hard
1521.000,412.500,97.780,27.750,1719.000,423.000,113.700,31.110,223.800,55.000,15.480,4.935,329.900,83.890,22.240,8.311,hard
1530.000,414.000,98.640,28.030,1703.000,423.500,114.300,31.090,225.100,54.950,15.560,4.940,331.100,84.120,22.190,8.382,hard
1541.000,414.400,97.790,27.720,1713.000,421.300,113.500,30.930,226.400,54.910,15.560,4.906,329.300,83.150,22.030,8.201,hard
1519.000,410.800,97.800,27.630,1708.000,420.300,113.300,30.870,224.700,54.740,15.440,4.921,327.800,82.920,21.900,8.174,hard
1516.000,411.600,96.740,27.570,1712.000,423.700,113.400,30.920,223.800,54.870,15.430,4.916,328.100,83.010,21.950,8.170,hard
1524.000,413.300,98.020,27.810,1717.000,422.700,114.000,30.970,224.700,54.700,15.470,4.919,328.800,83.070,22.070,8.239,hard
1521.000,414.200,98.150,27.720,1708.000,422.700,113.900,31.010,223.400,54.950,15.540,4.916,329.000,83.380,22.190,8.245,hard
1530.000,412.800,98.110,28.010,1722.000,424.100,114.300,31.130,226.200,54.820,15.560,4.912,330.300,83.690,22.240,8.309,hard
1534.000,415.200,99.250,28.110,1721.000,424.000,114.600,30.980,225.600,54.940,15.580,4.947,330.900,83.700,22.040,8.243,hard
1526.000,411.900,98.150,27.460,1710.000,421.800,113.400,30.920,224.000,54.580,15.460,4.930,327.200,82.980,21.890,8.162,hard
1524.000,411.100,97.230,27.470,1710.000,420.600,114.400,30.860,222.700,54.650,15.430,4.911,326.200,82.680,21.900,8.191,hard
1518.000,409.700,97.360,27.540,1707.000,421.300,113.800,30.970,224.200,54.400,15.460,4.895,325.600,82.650,21.850,8.225,hard
1528.000,410.000,97.590,27.550,1713.000,421.300,113.700,30.950,223.900,54.740,15.510,4.915,327.400,82.740,21.920,8.224,hard
1521.000,413.900,97.980,27.850,1718.000,424.400,114.300,31.080,223.900,54.590,15.520,4.918,327.600,83.390,21.990,8.292,hard
1532.000,416.100,98.450,27.930,1715.000,425.500,114.600,31.220,224.400,54.790,15.530,4.933,329.000,83.570,22.200,8.341,hard
1540.000,414.800,98.510,27.980,1712.000,423.300,114.000,31.030,226.500,54.810,15.490,4.953,328.500,82.630,21.810,8.223,hard
1531.000,413.900,98.620,28.010,1731.000,428.300,115.700,31.550,226.600,54.480,15.410,4.957,326.100,82.350,21.860,8.241,hard
1554.000,419.800,100.600,28.650,1751.000,430.900,116.800,31.940,230.800,54.570,15.520,4.909,326.500,82.690,21.920,8.274,hard
1551.000,422.200,101.100,28.910,1749.000,430.700,117.700,31.960,230.900,54.890,15.530,4.971,327.000,82.730,22.010,8.282,hard
1556.000,424.800,101.400,28.900,1747.000,429.700,117.700,32.050,229.000,54.750,15.550,4.977,328.000,82.790,22.000,8.344,hard
1555.000,425.700,102.200,29.180,1749.000,428.900,117.300,31.980,231.900,54.850,15.500,4.966,328.100,83.330,22.190,8.405,hard
1560.000,424.000,101.900,29.090,1749.000,430.500,117.400,32.040,228.100,54.780,15.630,4.997,329.700,83.890,22.330,8.409,hard
1558.000,424.000,100.700,28.910,1747.000,428.000,116.600,31.720,231.900,54.780,15.600,4.961,327.100,82.250,21.870,8.240,hard
1548.000,421.400,100.200,28.570,1734.000,428.200,117.000,31.770,228.500,54.590,15.460,4.958,324.600,82.530,21.830,8.280,hard
1550.000,418.800,99.860,28.670,1737.000,427.200,116.800,31.820,228.500,54.570,15.480,4.911,324.900,82.400,21.820,8.259,hard
1543.000,418.500,100.300,28.520,1742.000,428.600,116.900,31.840,229.000,54.520,15.480,4.943,324.900,82.730,22.120,8.259,hard
1553.000,423.100,100.700,28.770,1738.000,428.500,117.500,32.050,228.800,54.740,15.570,4.969,326.400,82.920,22.050,8.375,hard
1544.000,422.600,101.100,29.060,1745.000,430.100,116.900,31.990,230.200,54.890,15.620,4.972,327.400,83.390,22.300,8.406,hard
1568.000,424.900,102.200,29.260,1750.000,431.600,117.100,31.900,230.600,55.140,15.650,4.984,329.800,83.940,22.330,8.424,hard
1553.000,424.400,100.500,28.580,1742.000,427.900,117.200,31.670,229.500,54.900,15.620,4.976,326.500,82.660,21.940,8.252,hard
1545.000,419.700,100.200,28.580,1735.000,428.400,116.200,31.710,230.900,54.540,15.580,4.974,324.500,82.130,21.930,8.243,hard
1538.000,420.600,99.760,28.510,1736.000,428.300,116.500,31.760,227.700,54.800,15.490,4.920,325.100,82.360,21.970,8.230,hard
1548.000,418.800,100.300,28.640,1738.000,428.300,116.800,31.700,230.800,54.800,15.520,4.931,325.600,82.430,22.000,8.261,hard
1547.000,420.900,101.000,28.720,1738.000,430.000,116.800,31.830,229.200,54.630,15.560,4.941,326.400,82.920,22.220,8.320,hard
1543.000,423.200,101.500,28.930,1743.000,431.700,117.600,31.950,230.300,54.860,15.540,4.985,328.200,83.280,22.210,8.382,hard
1559.000,425.400,101.500,29.210,1747.000,429.600,116.900,31.890,231.200,55.010,15.640,4.973,328.800,83.520,22.190,8.329,hard
1545.000,421.500,100.300,28.640,1740.000,428.000,116.200,31.450,229.700,54.730,15.560,4.954,326.500,82.800,21.990,8.170,hard
1541.000,419.700,99.320,28.630,1740.000,426.700,115.900,31.630,228.100,54.690,15.500,4.935,324.500,82.370,21.840,8.271,hard
1535.000,420.100,99.120,28.500,1740.000,429.500,116.300,31.660,227.300,54.930,15.470,4.930,326.000,82.360,21.950,8.252,hard
1534.000,419.600,100.500,28.490,1737.000,428.700,116.400,31.540,228.400,54.780,15.480,4.919,325.500,82.590,22.060,8.312,hard
1543.000,421.500,100.200,28.740,1736.000,428.600,116.300,31.650,227.900,54.950,15.500,4.924,327.100,83.190,22.190,8.361,hard
1547.000,421.300,100.400,28.660,1742.000,429.700,117.200,31.760,230.400,54.950,15.550,4.942,328.800,83.380,22.390,8.381,hard
1545.000,421.800,100.800,28.820,1745.000,430.400,116.200,31.590,228.700,55.000,15.490,4.967,328.600,83.420,22.100,8.332,hard
1537.000,419.900,99.610,28.480,1739.000,429.100,115.500,31.310,227.700,54.750,15.480,4.899,325.500,82.640,21.920,8.222,hard
1557.000,421.900,101.400,28.630,1744.000,429.100,116.100,31.420,227.900,54.990,15.590,4.918,329.300,83.040,22.120,8.277,bogus
1541.000,420.100,99.440,28.380,1743.000,430.600,116.300,31.320,226.000,54.870,15.480,4.910,327.200,82.830,22.080,8.248,bogus
1541.000,419.100,99.000,28.110,1738.000,430.900,115.900,31.350,227.300,54.570,15.460,4.898,327.200,82.830,22.070,8.272,bogus
1549.000,420.600,99.760,28.420,1741.000,428.900,116.300,31.430,227.900,54.920,15.520,4.915,328.300,83.120,22.190,8.315,bogus
1545.000,420.200,99.820,28.440,1747.000,429.400,116.600,31.290,229.400,54.680,15.510,4.914,328.500,83.660,22.200,8.330,bogus
1493.000,398.600,94.490,26.470,1688.000,416.100,111.500,30.200,215.200,53.560,14.970,4.705,322.600,81.100,21.250,7.872,easy
1501.000,398.500,94.480,26.450,1696.000,414.800,111.900,30.270,216.500,53.370,14.920,4.738,322.700,81.130,21.360,7.946,easy
1501.000,402.100,95.310,26.640,1689.000,415.000,112.100,30.250,215.300,53.590,14.980,4.736,323.700,81.690,21.210,7.975,easy
1492.000,401.400,94.600,26.540,1695.000,416.300,111.900,30.360,216.000,53.530,14.990,4.761,324.100,81.550,21.450,7.977,easy
1508.000,400.800,95.270,26.800,1697.000,415.000,112.000,30.430,215.700,53.770,15.010,4.739,324.500,81.820,21.480,8.006,easy
1507.000,402.100,96.210,27.010,1701.000,418.000,112.700,30.500,215.400,53.630,15.080,4.765,326.500,82.460,21.640,8.105,easy
1514.000,407.400,96.120,27.050,1700.000,415.600,112.000,30.200,216.100,53.720,15.190,4.769,324.800,81.790,21.380,7.941,easy
1502.000,397.600,94.160,26.430,1686.000,414.700,111.000,29.960,215.900,53.260,14.890,4.731,321.800,80.900,21.060,7.861,easy
1489.000,400.700,94.240,26.360,1683.000,412.000,111.200,29.960,214.600,53.070,14.870,4.711,320.300,80.730,21.130,7.892,easy
1489.000,400.200,94.240,26.550,1687.000,415.000,111.200,30.240,216.600,53.300,14.970,4.735,321.700,80.950,21.240,7.907,easy
1502.000,400.200,95.120,26.750,1697.000,417.900,112.500,30.520,218.600,53.350,14.990,4.741,322.300,80.820,21.390,8.001,easy
1513.000,407.400,96.340,27.000,1697.000,418.700,112.700,30.490,218.500,53.490,15.050,4.729,323.600,82.110,21.600,8.077,easy
1515.000,407.100,96.840,27.220,1708.000,420.200,113.900,30.700,220.200,53.590,15.090,4.765,325.400,82.070,21.810,8.108,easy
1526.000,409.300,97.480,27.710,1714.000,420.300,113.200,30.750,220.000,53.810,15.140,4.789,327.600,82.870,21.870,8.138,easy
1527.000,411.800,96.850,27.390,1710.000,418.200,113.100,30.590,220.600,53.640,15.070,4.771,324.300,81.450,21.500,7.972,easy
1519.000,403.500,96.020,26.880,1703.000,418.800,112.800,30.530,222.000,53.240,14.970,4.711,322.400,81.130,21.310,7.972,easy
1514.000,402.600,95.170,27.030,1703.000,416.000,112.200,30.300,221.500,53.430,15.070,4.739,322.300,81.250,21.400,7.969,easy
1502.000,403.500,95.800,26.920,1695.000,417.400,112.500,30.460,219.400,53.410,14.970,4.706,323.300,81.240,21.370,8.002,easy
1506.000,405.000,96.130,27.160,1702.000,418.500,113.400,30.590,220.400,53.490,15.010,4.746,324.600,81.520,21.630,8.065,easy
1513.000,408.300,95.910,27.420,1705.000,418.100,113.300,30.640,221.500,53.600,15.020,4.769,325.300,82.120,21.750,8.100,easy
1517.000,405.900,97.040,27.570,1713.000,419.700,113.500,30.840,222.600,53.670,15.050,4.749,326.600,82.290,21.690,8.175,easy
1529.000,408.100,98.010,27.790,1715.000,421.500,113.000,30.650,222.300,53.770,15.100,4.799,327.800,82.560,21.750,8.100,easy
1514.000,406.000,96.750,27.120,1704.000,417.800,112.700,30.560,221.400,53.360,14.980,4.740,324.500,80.880,21.300,7.937,easy
1503.000,403.700,95.250,26.780,1700.000,417.700,112.300,30.460,221.400,53.280,15.000,4.723,322.500,80.760,21.330,7.900,easy
1495.000,400.400,95.030,27.010,1697.000,415.200,112.400,30.450,220.500,53.310,14.910,4.718,322.800,80.620,21.400,7.984,easy
1504.000,403.400,95.370,26.950,1698.000,415.300,111.700,30.350,220.500,53.440,15.000,4.736,323.100,81.300,21.470,8.015,easy
1495.000,401.300,95.380,26.940,1700.000,416.600,112.400,30.440,219.900,53.390,14.960,4.716,323.700,81.350,21.520,8.059,easy
1505.000,404.900,95.780,27.210,1707.000,416.400,112.900,30.620,220.200,53.180,15.010,4.736,325.000,81.770,21.590,8.070,easy
1520.000,406.900,96.920,27.400,1706.000,418.500,112.500,30.590,218.900,53.400,15.050,4.751,325.700,82.450,21.730,8.110,easy
1513.000,409.300,97.320,27.540,1709.000,416.800,112.500,30.460,219.800,53.680,15.110,4.765,327.400,82.310,21.680,8.066,easy
1514.000,403.600,95.470,26.870,1696.000,414.700,111.700,30.130,220.300,53.290,14.960,4.706,322.600,80.920,21.190,7.940,easy
1497.000,399.000,94.390,26.610,1702.000,414.700,111.800,30.310,218.300,53.070,14.840,4.698,322.200,81.000,21.240,7.901,easy
1487.000,398.000,94.890,26.870,1692.000,414.800,111.200,30.220,217.600,53.070,14.840,4.697,322.900,80.950,21.370,8.009,easy
1497.000,400.100,94.340,26.750,1692.000,412.100,111.900,30.340,218.000,53.200,14.870,4.710,323.300,81.280,21.380,7.977,easy
1502.000,400.200,95.410,27.090,1694.000,414.500,112.200,30.370,219.300,53.280,14.930,4.714,323.800,81.350,21.540,8.047,easy
1498.000,403.000,95.520,26.980,1692.000,413.400,112.100,30.420,219.300,53.320,15.040,4.730,324.700,81.700,21.690,8.103,easy
1492.000,400.900,95.620,27.150,1703.000,416.500,112.200,30.300,218.400,53.370,14.930,4.727,327.400,82.220,21.690,8.139,easy
1500.000,404.000,95.960,27.270,1695.000,414.600,111.600,30.170,218.600,53.490,14.950,4.753,327.900,82.350,21.680,8.029,easy
1500.000,396.700,94.060,26.580,1692.000,412.400,110.700,30.030,219.500,53.160,14.840,4.727,323.200,81.300,21.430,7.956,easy
1492.000,396.700,93.710,26.640,1685.000,412.300,110.800,29.950,219.400,52.940,14.820,4.686,322.800,81.100,21.380,8.009,easy
1494.000,396.600,94.640,26.730,1688.000,412.500,111.500,30.190,218.100,53.300,14.900,4.708,325.000,81.390,21.390,8.019,easy
1489.000,402.100,93.830,26.900,1691.000,412.600,111.400,30.200,219.200,53.440,14.910,4.742,324.900,81.580,21.630,8.073,easy
1495.000,401.400,94.960,27.030,1690.000,414.100,111.400,30.350,218.500,53.470,15.020,4.737,324.900,82.230,21.760,8.080,easy
1509.000,400.200,95.230,26.990,1700.000,416.600,111.400,30.340,218.800,53.640,15.050,4.769,326.900,82.630,21.990,8.238,easy
1503.000,402.200,95.770,27.370,1705.000,416.600,112.100,30.380,219.100,53.920,15.080,4.811,328.500,83.280,22.040,8.247,easy
1507.000,403.300,95.970,27.290,1700.000,414.400,111.300,30.160,219.600,54.040,15.160,4.822,328.200,82.890,21.760,8.109,easy
1499.000,397.800,93.860,26.490,1691.000,412.300,110.400,30.020,220.900,53.630,14.990,4.775,325.600,82.120,21.690,8.094,easy
1491.000,397.000,94.000,26.570,1691.000,411.700,110.500,30.120,220.300,53.670,14.980,4.759,325.100,82.050,21.590,8.123,easy
1493.000,396.900,93.690,26.640,1689.000,410.900,110.800,29.960,219.600,53.690,15.130,4.780,325.700,82.230,21.750,8.174,easy
1489.000,397.700,94.610,26.710,1687.000,411.500,110.600,30.030,219.500,53.940,15.140,4.801,325.800,82.440,21.810,8.146,easy
1487.000,399.900,94.800,26.900,1697.000,414.700,111.200,30.060,220.100,53.830,15.120,4.816,327.100,82.870,21.950,8.158,easy
1485.000,399.800,94.480,26.840,1694.000,414.300,111.600,30.150,220.900,53.840,15.110,4.821,329.100,83.140,22.040,8.212,easy
1503.000,401.700,95.640,27.090,1698.000,416.400,111.500,30.130,220.300,54.040,15.200,4.827,330.000,83.850,22.110,8.220,easy
1497.000,402.900,94.810,26.780,1695.000,412.400,110.400,29.920,220.100,53.900,15.110,4.776,327.600,82.690,21.660,8.118,easy
1488.000,397.100,94.230,26.670,1682.000,410.800,110.500,30.020,220.200,53.640,15.080,4.782,325.700,82.100,21.700,8.076,easy
1481.000,397.100,94.080,26.560,1702.000,412.700,110.400,30.000,219.900,53.670,15.080,4.746,326.100,82.390,21.830,8.136,easy
1485.000,398.400,94.130,26.680,1691.000,412.700,111.400,30.120,218.600,53.930,15.090,4.768,327.400,82.470,21.840,8.192,easy
1484.000,398.700,94.510,26.820,1689.000,413.400,111.300,30.160,219.400,53.860,15.080,4.787,328.100,82.890,21.810,8.186,easy
1492.000,401.000,94.960,26.910,1693.000,413.500,111.600,30.020,219.400,53.930,15.100,4.813,329.300,82.890,21.880,8.217,easy
1502.000,401.900,95.040,26.860,1693.000,415.300,111.800,30.330,220.700,54.160,15.200,4.805,330.600,83.780,22.280,8.280,easy
1503.000,403.000,95.070,26.700,1695.000,414.300,110.900,29.910,221.500,54.130,15.220,4.791,328.700,82.730,21.850,8.119,easy
1482.000,397.600,93.630,26.310,1692.000,413.500,110.500,29.810,219.600,53.880,15.060,4.770,325.900,82.270,21.610,8.062,easy
1480.000,396.700,93.460,26.440,1698.000,412.800,110.700,29.970,222.100,53.620,15.000,4.774,327.100,82.310,21.720,8.134,easy
1491.000,400.100,94.350,26.630,1698.000,412.300,111.300,30.050,219.400,53.980,15.060,4.746,326.400,82.850,21.750,8.094,easy
1484.000,397.900,94.560,26.840,1706.000,413.400,111.500,30.260,220.800,53.690,15.080,4.787,327.300,83.390,21.940,8.171,easy
1491.000,403.100,94.750,26.910,1700.000,417.200,111.400,30.460,220.000,53.990,15.090,4.799,329.000,83.020,21.970,8.155,easy
1500.000,402.100,95.860,27.000,1704.000,415.000,112.400,30.310,220.100,54.120,15.140,4.808,329.100,83.480,22.050,8.259,easy
1507.000,400.400,96.100,26.980,1699.000,414.500,111.800,30.040,220.900,54.160,15.160,4.789,329.100,82.770,21.810,8.105,easy
1495.000,401.100,94.060,26.480,1697.000,413.700,110.800,30.020,217.300,53.860,15.070,4.756,326.300,82.610,21.640,8.027,easy
1486.000,397.500,93.700,26.410,1692.000,414.700,111.600,30.080,219.500,53.820,15.010,4.769,326.800,82.170,21.630,8.038,easy
1493.000,396.500,94.110,26.560,1689.000,414.400,110.800,30.000,218.800,53.840,15.070,4.766,326.000,82.500,21.670,8.052,easy
1496.000,399.800,94.560,26.510,1696.000,413.300,111.400,30.130,219.500,53.560,15.080,4.764,326.700,82.520,21.720,8.081,easy
1492.000,400.100,94.570,26.610,1703.000,414.400,111.400,30.130,218.000,53.780,15.040,4.800,326.800,82.500,21.800,8.122,easy
1496.000,402.000,95.140,26.950,1695.000,415.600,111.600,30.350,218.300,53.810,15.170,4.800,328.200,82.880,21.850,8.129,easy
1501.000,402.400,95.300,26.880,1701.000,416.200,111.300,30.120,218.900,53.970,15.110,4.774,327.600,82.860,21.630,8.052,easy
1497.000,400.100,94.140,26.330,1696.000,411.900,110.800,29.990,218.300,53.840,15.020,4.744,324.800,81.910,21.520,7.989,easy
1490.000,394.700,93.520,26.250,1687.000,411.300,110.900,29.990,216.900,53.570,14.950,4.721,323.700,81.850,21.430,7.962,easy
1486.000,397.800,93.340,26.300,1686.000,413.800,110.900,30.170,217.300,53.660,15.020,4.746,323.600,81.720,21.400,8.022,easy
1489.000,397.000,93.160,26.420,1691.000,413.000,111.000,30.070,217.100,53.640,14.950,4.733,324.000,81.270,21.470,7.956,easy
1496.000,398.700,94.200,26.530,1694.000,414.400,111.300,30.280,218.300,53.790,15.000,4.735,323.900,81.630,21.530,8.000,easy
1499.000,398.100,94.190,26.870,1701.000,414.700,111.200,30.310,216.200,53.830,15.050,4.751,325.300,81.960,21.660,8.096,easy
1498.000,399.300,94.790,26.690,1701.000,413.900,112.000,30.380,218.400,53.920,15.040,4.761,325.700,82.450,21.600,8.040,easy
1489.000,398.100,93.740,26.360,1694.000,413.500,110.600,30.070,216.200,53.580,14.910,4.717,322.200,81.420,21.320,7.921,easy
1483.000,395.000,93.640,26.230,1689.000,412.000,110.200,29.950,218.900,53.430,14.870,4.723,321.400,80.860,21.060,7.894,easy
1480.000,396.900,93.330,26.330,1685.000,409.900,110.700,30.100,217.300,53.330,14.910,4.726,321.500,81.060,21.180,7.895,easy
1490.000,396.200,93.200,26.270,1685.000,412.500,111.200,30.050,218.200,53.250,14.900,4.697,321.100,80.990,21.220,7.883,easy
1491.000,396.100,93.680,26.490,1684.000,412.500,111.100,30.210,217.100,53.330,14.960,4.705,321.000,80.950,21.300,7.961,easy
1484.000,399.100,94.250,26.370,1696.000,411.700,110.900,30.220,216.200,53.320,14.890,4.728,322.000,81.350,21.400,7.932,easy
1499.000,399.000,94.250,26.620,1687.000,413.100,111.400,30.210,215.600,53.420,15.040,4.740,322.400,81.740,21.510,7.944,easy
1496.000,399.100,93.230,26.280,1687.000,410.400,110.400,30.090,217.200,53.360,14.880,4.689,320.600,80.420,20.970,7.819,easy
1484.000,395.700,93.660,26.170,1684.000,410.500,110.400,30.010,215.100,53.050,14.880,4.673,319.100,80.200,21.050,7.792,easy
1481.000,394.000,93.020,26.150,1685.000,410.200,110.800,30.100,215.600,53.020,14.880,4.700,319.100,80.400,21.000,7.873,easy
1485.000,396.600,93.430,26.170,1681.000,411.800,111.000,30.210,215.500,53.190,14.920,4.698,319.500,80.490,21.150,7.855,easy
1481.000,394.600,93.580,26.320,1685.000,412.500,110.500,30.170,216.400,53.190,14.910,4.702,320.400,80.770,21.180,7.906,easy
1486.000,396.200,93.780,26.540,1690.000,412.000,111.200,30.370,215.000,53.190,14.990,4.714,320.900,81.140,21.290,7.951,easy
1494.000,397.500,93.720,26.580,1687.000,412.900,111.500,30.460,217.600,53.440,15.050,4.734,322.500,81.240,21.340,7.961,easy
1499.000,398.900,94.190,26.740,1677.000,412.900,110.600,30.170,215.100,53.450,15.010,4.742,322.100,81.170,21.110,7.891,easy
1487.000,394.700,93.320,26.150,1679.000,411.000,110.600,30.260,216.400,53.310,14.960,4.687,319.300,80.410,21.030,7.830,easy
1485.000,393.500,92.730,26.110,1680.000,412.400,110.600,30.120,218.200,53.090,14.930,4.697,318.500,80.270,21.100,7.841,easy
1483.000,395.100,93.030,26.160,1678.000,410.800,110.600,30.290,216.900,53.130,14.960,4.720,319.900,80.240,21.170,7.887,easy
1483.000,392.300,93.410,26.360,1688.000,411.500,110.500,30.240,217.500,53.230,14.870,4.741,319.300,80.520,21.190,7.888,easy
1484.000,396.000,93.800,26.430,1691.000,412.100,110.900,30.150,214.300,53.400,14.980,4.713,320.500,80.950,21.250,7.940,easy
1484.000,398.800,94.070,26.570,1683.000,413.100,111.600,30.500,214.700,53.430,15.000,4.738,323.400,81.240,21.530,7.979,easy
1489.000,399.900,94.430,26.770,1688.000,412.500,110.900,30.230,218.000,53.530,14.980,4.757,322.200,81.100,21.180,7.887,easy
1482.000,394.100,93.440,26.190,1681.000,411.500,110.100,30.160,217.400,53.230,14.880,4.713,320.500,80.310,21.070,7.850,easy
1474.000,392.800,92.580,26.030,1681.000,410.200,110.400,30.100,217.500,53.290,14.930,4.720,319.200,80.380,20.920,7.857,easy
1472.000,393.300,92.720,26.100,1682.000,412.000,110.800,30.300,216.000,53.070,14.980,4.727,320.600,80.540,21.130,7.918,easy
1470.000,393.300,93.200,26.170,1677.000,410.700,110.600,30.260,216.600,53.150,14.970,4.718,320.800,80.470,21.170,7.837,easy
1477.000,392.400,93.170,26.400,1679.000,411.000,110.800,30.350,214.600,53.430,15.060,4.736,320.700,80.670,21.150,7.908,easy
1479.000,393.200,93.490,26.350,1681.000,412.000,111.700,30.460,216.100,53.460,14.990,4.719,322.700,80.960,21.360,7.910,easy
1476.000,394.600,93.940,26.550,1687.000,411.900,110.700,30.460,216.700,53.520,15.040,4.781,324.200,81.280,21.340,7.949,easy
1477.000,393.200,93.020,26.230,1677.000,410.000,110.100,30.210,218.900,53.470,14.970,4.725,321.100,80.700,21.110,7.879,easy
1469.000,392.500,92.200,26.010,1679.000,409.800,110.500,30.090,214.500,53.210,14.860,4.704,320.500,80.380,20.960,7.864,easy
1456.000,388.600,92.120,26.120,1671.000,408.500,110.500,30.080,217.000,53.240,14.880,4.738,322.200,80.390,21.210,7.854,easy
1470.000,389.900,92.220,25.970,1668.000,410.200,110.400,30.270,216.600,53.370,15.000,4.731,320.400,80.480,21.160,7.876,easy
1458.000,388.700,91.880,26.130,1678.000,409.500,110.500,30.370,217.200,53.200,15.000,4.719,321.000,80.880,21.250,7.934,easy
1474.000,391.500,93.110,26.300,1676.000,411.300,110.500,30.360,214.600,53.530,14.940,4.767,322.900,81.170,21.400,7.951,easy
1467.000,395.400,93.630,26.500,1684.000,411.600,111.100,30.390,216.300,53.510,15.040,4.764,323.000,81.400,21.450,7.988,easy
1469.000,392.900,93.420,26.600,1687.000,412.300,110.900,30.440,215.000,53.650,15.140,4.764,324.800,81.210,21.310,7.921,easy
1472.000,394.700,92.550,26.280,1681.000,411.100,111.200,30.410,218.500,53.560,15.000,4.726,322.600,81.230,21.180,7.866,easy
1472.000,392.800,92.830,26.240,1681.000,411.200,111.100,30.340,215.100,53.500,14.970,4.747,321.600,80.630,21.110,7.882,easy
1457.000,393.900,92.730,26.310,1677.000,411.500,112.300,30.660,216.900,53.410,15.000,4.741,322.500,80.900,21.230,7.956,easy
1472.000,392.500,93.290,26.430,1692.000,413.300,111.500,30.540,219.900,53.590,15.060,4.769,323.800,81.290,21.320,7.965,easy
1470.000,394.400,93.420,26.440,1685.000,413.500,111.800,30.640,218.800,53.560,15.080,4.788,323.400,81.510,21.480,8.005,easy
1474.000,394.800,93.730,26.710,1692.000,412.800,112.500,30.760,221.200,53.800,15.040,4.760,324.400,81.480,21.450,8.022,easy
1472.000,396.900,94.370,26.760,1693.000,416.300,112.800,30.900,220.000,53.330,15.060,4.761,325.200,81.380,21.550,8.030,easy
1485.000,398.200,95.400,27.190,1700.000,414.400,112.900,30.950,219.900,53.260,14.970,4.757,327.200,81.150,21.230,7.973,easy
1481.000,393.400,94.450,26.760,1700.000,415.300,112.300,30.880,224.600,52.600,14.810,4.722,326.000,80.150,21.040,7.871,easy
1471.000,394.000,94.090,26.510,1692.000,412.900,112.000,30.630,222.800,52.490,14.800,4.659,326.100,80.100,21.090,7.916,easy
1466.000,392.100,93.300,26.650,1685.000,412.300,111.700,30.630,224.500,52.760,14.870,4.675,325.700,80.970,21.170,7.939,easy
1463.000,391.700,92.830,26.560,1684.000,412.300,111.900,30.570,220.800,52.920,14.790,4.688,325.500,80.830,21.350,7.965,easy
1463.000,393.800,93.800,26.640,1697.000,414.200,111.600,30.480,221.400,53.390,14.950,4.718,325.600,81.740,21.400,8.021,easy
1472.000,394.800,93.820,26.910,1691.000,413.000,111.800,30.630,219.900,53.340,14.960,4.751,326.500,81.820,21.580,8.059,easy
1477.000,396.800,94.200,26.830,1689.000,414.600,112.800,30.700,220.300,53.610,15.080,4.769,327.800,82.300,21.680,8.129,easy
1482.000,400.000,95.470,27.050,1694.000,415.500,112.000,30.510,220.200,53.770,15.120,4.773,327.500,82.190,21.630,8.078,easy
1468.000,396.900,94.400,26.410,1698.000,414.300,112.300,30.500,218.600,53.670,15.030,4.756,324.400,81.330,21.470,7.971,easy
1469.000,396.100,93.600,26.600,1698.000,415.100,111.800,30.460,219.000,53.500,14.970,4.742,324.500,81.470,21.350,7.962,easy
1472.000,396.600,94.070,26.660,1698.000,414.900,112.100,30.540,219.700,53.680,15.030,4.701,324.500,81.650,21.440,7.991,easy
1482.000,397.200,94.270,26.690,1700.000,415.900,112.200,30.520,220.400,53.550,14.990,4.719,325.100,81.450,21.440,8.038,easy
1471.000,398.200,94.610,26.740,1705.000,417.700,112.500,30.660,221.300,53.680,15.060,4.753,325.200,81.740,21.580,8.094,easy
1488.000,399.500,95.400,26.990,1704.000,416.300,112.700,30.710,222.600,53.860,15.000,4.741,326.900,82.350,21.680,8.081,easy
1493.000,401.900,95.480,27.130,1715.000,417.100,112.800,30.720,219.200,53.980,15.090,4.780,326.800,82.600,21.790,8.112,easy
1498.000,404.000,95.920,27.120,1711.000,420.700,112.500,30.500,219.400,54.090,15.090,4.771,326.000,82.500,21.640,7.982,easy
1484.000,399.800,94.760,26.650,1703.000,417.400,111.900,30.430,221.200,53.730,15.060,4.751,324.500,81.880,21.410,7.949,easy
1482.000,397.500,94.720,26.480,1708.000,419.100,112.200,30.560,218.700,53.720,15.040,4.708,325.000,81.600,21.450,7.999,easy
1487.000,398.000,94.690,26.840,1701.000,418.000,112.300,30.570,219.100,53.890,14.970,4.733,325.000,82.000,21.500,8.008,easy
1484.000,397.300,94.710,26.560,1700.000,416.700,112.600,30.530,219.600,53.650,15.030,4.717,325.300,81.980,21.510,8.054,easy
1498.000,400.100,94.670,26.750,1702.000,419.200,112.700,30.480,217.300,53.830,14.970,4.738,325.100,82.270,21.530,8.078,easy
1494.000,401.500,95.600,27.070,1712.000,417.900,113.300,30.710,219.600,53.760,15.070,4.737,326.400,82.780,21.750,8.109,easy
1500.000,405.400,95.840,27.140,1718.000,417.800,113.100,30.610,217.800,54.000,15.090,4.767,327.600,82.480,21.680,8.048,easy
1505.000,403.600,95.140,26.800,1711.000,419.700,112.700,30.400,218.700,53.880,15.000,4.737,325.000,81.650,21.440,7.924,easy
1494.000,399.200,94.300,26.500,1701.000,420.200,112.400,30.460,220.500,53.760,14.950,4.726,322.400,81.510,21.370,7.990,easy
1486.000,398.700,94.400,26.610,1701.000,417.500,112.300,30.440,218.200,53.550,14.990,4.732,323.100,81.620,21.500,7.971,easy
1486.000,400.700,95.010,26.650,1710.000,416.200,112.500,30.450,219.900,53.740,15.040,4.739,322.500,81.750,21.430,7.993,easy
1493.000,400.100,94.070,26.770,1709.000,420.000,112.700,30.520,218.700,53.730,15.020,4.706,323.000,81.790,21.490,7.997,easy
1502.000,402.400,95.470,26.880,1714.000,418.600,112.800,30.520,218.400,53.700,15.060,4.729,324.500,81.880,21.570,8.048,easy
1502.000,403.200,95.740,27.120,1706.000,419.100,113.200,30.650,219.000,53.760,15.050,4.757,324.400,82.450,21.720,8.107,easy
1506.000,405.300,96.260,27.280,1712.000,418.700,112.600,30.550,218.600,53.880,15.080,4.745,323.400,82.010,21.460,7.942,easy
1487.000,401.900,94.910,26.720,1710.000,415.800,112.100,30.350,218.000,53.570,14.950,4.725,321.900,81.230,21.180,7.941,easy
1493.000,401.500,95.050,26.690,1711.000,417.400,112.300,30.360,218.400,53.610,14.960,4.697,320.200,80.870,21.280,7.894,easy
1486.000,401.500,95.010,26.670,1701.000,419.000,112.200,30.460,217.700,53.490,14.950,4.715,320.400,81.370,21.400,7.908,easy
1494.000,399.600,94.790,26.660,1706.000,416.900,112.700,30.330,218.300,53.540,14.980,4.718,320.900,81.310,21.400,7.923,easy
1501.000,404.000,95.280,26.900,1714.000,418.500,112.700,30.490,219.400,53.590,15.040,4.724,321.800,81.300,21.350,7.987,easy
1496.000,405.100,95.390,27.020,1706.000,419.600,112.700,30.530,217.400,53.840,15.020,4.755,322.100,81.680,21.480,8.048,easy
1505.000,405.600,96.090,27.210,1714.000,419.700,113.700,30.700,219.400,53.980,15.150,4.768,323.700,82.000,21.660,8.063,easy
1506.000,405.900,95.700,27.040,1708.000,417.700,112.500,30.510,221.400,54.000,14.990,4.748,321.900,81.440,21.380,7.933,easy
1501.000,403.200,94.890,26.800,1710.000,418.000,111.700,30.460,221.300,53.560,14.910,4.721,320.700,81.140,21.170,7.896,easy
1489.000,400.200,94.550,26.610,1706.000,417.000,111.900,30.350,218.900,53.520,15.010,4.730,320.100,80.650,21.270,7.878,easy
1486.000,400.300,94.590,26.620,1697.000,416.400,112.300,30.480,218.500,53.570,14.970,4.710,320.300,81.080,21.350,7.880,easy
1487.000,400.500,94.780,26.790,1707.000,417.400,112.500,30.480,219.100,53.650,15.010,4.742,320.300,81.300,21.340,7.933,easy
1494.000,402.000,95.650,26.910,1702.000,416.800,112.800,30.490,219.200,53.750,15.030,4.742,321.300,81.440,21.430,8.044,easy
1498.000,399.800,95.390,27.150,1697.000,418.600,112.700,30.550,219.400,53.730,15.100,4.767,323.400,81.800,21.660,7.972,easy
1508.000,405.200,96.170,27.330,1705.000,416.600,112.500,30.400,219.400,53.990,15.080,4.755,323.900,81.820,21.530,7.976,easy
1494.000,402.300,94.280,26.710,1687.000,414.100,111.600,30.350,219.800,53.820,15.030,4.720,320.500,80.850,21.210,7.919,easy
1485.000,397.000,94.520,26.500,1698.000,415.600,111.600,30.300,221.300,53.800,15.010,4.724,319.700,80.580,21.150,7.859,easy
1483.000,399.400,94.160,26.520,1690.000,414.700,111.800,30.320,220.500,53.520,14.980,4.690,321.000,81.000,21.350,7.929,easy
1485.000,398.800,94.140,26.710,1702.000,416.900,111.900,30.350,220.000,53.860,15.010,4.719,319.900,80.890,21.300,7.941,easy
1477.000,399.700,94.720,26.780,1697.000,415.800,112.200,30.350,220.600,53.760,15.040,4.734,322.300,81.460,21.370,8.000,easy
1489.000,400.300,95.160,26.800,1705.000,418.600,112.500,30.530,219.200,54.010,15.080,4.747,323.800,81.220,21.540,8.010,easy
1500.000,402.900,95.550,27.000,1702.000,419.100,112.700,30.520,218.200,53.810,15.100,4.763,324.100,81.870,21.740,8.087,easy
1495.000,404.800,95.620,27.010,1702.000,417.700,112.300,30.360,220.000,54.040,15.050,4.771,323.400,81.650,21.440,7.989,easy
1491.000,400.600,94.390,26.770,1696.000,415.900,111.800,30.410,219.100,53.740,14.990,4.741,321.800,80.910,21.300,7.952,easy
1492.000,398.400,94.480,26.620,1696.000,415.700,111.400,30.370,221.900,53.830,15.040,4.740,321.700,81.180,21.320,7.982,easy
1492.000,399.200,94.100,26.780,1695.000,414.500,112.700,30.420,220.500,53.770,15.000,4.718,322.200,81.300,21.350,7.956,easy
1493.000,397.500,94.790,26.890,1693.000,416.400,112.200,30.460,219.700,53.890,15.010,4.730,322.700,81.450,21.490,8.000,easy
1490.000,399.300,94.790,26.910,1702.000,415.800,112.600,30.580,220.700,53.950,15.050,4.751,322.900,81.420,21.560,8.014,easy
1500.000,404.100,96.040,27.250,1710.000,418.800,113.200,30.680,219.900,53.980,15.100,4.762,325.700,81.990,21.600,8.090,easy
1508.000,403.900,96.890,27.170,1707.000,419.800,113.000,30.600,221.300,54.110,15.140,4.761,326.500,81.910,21.740,8.090,easy
1501.000,404.300,94.900,26.680,1703.000,418.000,112.500,30.390,219.300,53.910,15.010,4.714,324.700,81.290,21.430,7.972,easy
1487.000,396.700,94.670,26.870,1699.000,417.300,112.400,30.550,220.100,53.970,15.050,4.748,323.800,81.710,21.360,8.015,easy
1491.000,401.800,94.920,26.630,1706.000,418.000,113.000,30.580,220.700,53.890,15.120,4.749,324.600,81.720,21.500,8.078,easy
1495.000,400.000,95.500,26.960,1704.000,418.400,112.700,30.530,219.300,53.940,15.080,4.767,326.700,81.940,21.560,8.108,easy
1492.000,405.900,95.410,27.120,1702.000,417.800,113.100,30.620,222.600,54.110,15.160,4.789,326.000,82.300,21.790,8.113,easy
1494.000,402.800,96.110,27.170,1703.000,420.300,112.900,30.760,222.100,54.240,15.140,4.790,327.600,82.460,21.890,8.141,easy
1506.000,406.300,96.340,27.520,1717.000,419.500,113.400,30.740,220.800,54.270,15.220,4.814,329.000,83.610,22.040,8.209,easy
1510.000,407.500,96.200,27.330,1706.000,418.300,112.300,30.570,221.100,54.360,15.200,4.791,328.100,82.390,21.580,8.110,easy
1498.000,401.800,95.250,26.970,1710.000,416.800,112.400,30.660,220.800,54.080,15.080,4.784,325.800,82.330,21.530,8.020,easy
1494.000,400.300,95.070,26.780,1699.000,419.300,112.100,30.470,222.900,53.990,15.140,4.786,327.200,82.170,21.660,8.084,easy
1488.000,402.600,94.990,26.760,1697.000,417.500,112.700,30.380,222.300,54.310,15.150,4.778,326.600,82.290,21.780,8.088,easy
1497.000,401.800,95.780,26.870,1702.000,418.000,112.600,30.580,222.500,54.150,15.210,4.791,327.400,82.530,21.700,8.107,easy
1498.000,402.600,95.930,27.160,1703.000,418.600,113.100,30.660,221.700,54.170,15.220,4.792,328.800,82.730,21.910,8.161,easy
1493.000,405.500,96.300,27.380,1708.000,419.800,113.300,30.720,221.900,54.470,15.170,4.813,330.700,83.110,22.090,8.185,easy
1510.000,407.800,96.320,27.340,1704.000,419.400,113.100,30.580,224.300,54.370,15.220,4.822,330.700,83.350,22.020,8.168,easy
1500.000,402.500,95.820,27.040,1707.000,417.600,112.200,30.580,223.600,54.270,15.160,4.794,328.200,82.290,21.690,8.150,easy
1503.000,402.100,95.580,26.820,1705.000,418.600,112.500,30.630,224.100,54.270,15.080,4.783,327.800,82.270,21.630,8.043,easy
1494.000,401.300,95.560,27.030,1706.000,417.600,112.500,30.710,221.700,54.290,15.130,4.799,329.600,82.660,21.830,8.125,easy
1500.000,400.500,95.430,27.160,1705.000,418.400,112.300,30.740,221.800,54.330,15.190,4.806,329.600,82.660,21.790,8.124,easy
1500.000,402.300,96.130,27.170,1703.000,420.600,112.800,30.880,224.200,54.330,15.220,4.813,331.100,83.370,21.970,8.186,easy
1500.000,404.500,96.590,27.440,1708.000,420.400,113.400,30.880,222.300,54.650,15.270,4.843,331.900,83.350,22.060,8.246,easy
1497.000,407.000,96.990,27.510,1706.000,420.000,113.600,30.860,224.500,54.500,15.360,4.847,333.500,83.860,22.250,8.332,easy
1503.000,403.100,96.890,27.190,1707.000,419.100,113.300,30.680,222.900,54.570,15.280,4.846,331.000,82.900,21.820,8.159,easy
1496.000,402.500,95.590,26.970,1706.000,417.500,112.600,30.510,223.600,54.370,15.270,4.831,330.400,83.020,21.750,8.132,easy
1489.000,400.400,94.880,26.870,1695.000,417.300,112.500,30.640,223.400,54.380,15.210,4.800,330.600,82.550,21.710,8.123,easy
1489.000,401.400,95.330,27.000,1696.000,418.000,111.900,30.630,223.300,54.350,15.230,4.800,331.200,83.120,21.810,8.133,easy
1493.000,400.300,95.450,26.900,1699.000,417.300,113.200,30.530,222.100,54.600,15.300,4.813,331.200,83.020,21.910,8.201,easy
1491.000,401.200,95.530,27.180,1701.000,418.000,112.600,30.700,222.600,54.570,15.260,4.826,332.300,83.410,22.030,8.228,easy
1495.000,401.500,95.910,27.340,1703.000,416.200,112.700,30.630,224.900,54.760,15.320,4.824,332.500,83.930,22.090,8.263,easy
1497.000,403.900,96.430,27.470,1709.000,418.600,113.400,30.650,224.500,54.760,15.330,4.858,332.600,84.130,22.110,8.241,easy
1491.000,403.100,95.910,26.750,1700.000,416.600,112.700,30.370,222.500,54.510,15.310,4.840,331.100,83.080,21.780,8.124,easy
1483.000,399.700,95.450,26.900,1694.000,414.400,111.400,30.350,223.100,54.510,15.220,4.825,329.200,82.930,21.670,8.059,easy
1476.000,398.500,94.700,26.940,1691.000,414.400,111.000,30.340,223.700,54.330,15.240,4.822,330.100,83.090,21.770,8.121,easy
1480.000,398.700,95.430,26.810,1692.000,415.500,112.000,30.470,221.000,54.480,15.240,4.814,329.300,82.750,21.790,8.112,easy
1480.000,399.700,95.360,27.000,1700.000,413.700,112.500,30.530,221.700,54.450,15.240,4.823,329.800,83.010,21.880,8.145,easy
1490.000,401.800,95.760,27.100,1694.000,416.500,112.400,30.610,222.400,54.600,15.290,4.855,330.100,83.720,21.880,8.205,easy
1483.000,402.100,96.050,27.380,1700.000,417.400,112.000,30.770,221.300,54.700,15.290,4.850,331.300,83.610,22.100,8.280,easy
1492.000,404.200,96.400,27.310,1707.000,417.900,112.500,30.580,221.400,54.690,15.410,4.878,331.600,83.780,21.900,8.166,easy
1490.000,402.600,95.150,27.030,1708.000,415.400,112.300,30.490,221.400,54.560,15.250,4.827,329.200,82.970,21.810,8.135,easy
1491.000,400.200,95.320,27.030,1695.000,415.600,112.200,30.480,223.100,54.280,15.230,4.819,328.300,82.490,21.720,8.164,easy
1475.000,400.600,95.090,26.860,1692.000,414.900,112.100,30.530,222.700,54.450,15.270,4.827,328.700,83.130,21.910,8.171,easy
1483.000,399.500,95.580,27.180,1692.000,414.800,112.200,30.580,222.000,54.700,15.230,4.836,329.000,82.880,21.810,8.148,easy
1486.000,398.400,95.430,27.170,1705.000,415.900,112.300,30.570,223.600,54.560,15.340,4.830,328.800,83.240,21.970,8.138,easy
1491.000,401.900,96.190,27.370,1698.000,418.800,112.400,30.650,221.400,54.590,15.330,4.851,330.200,83.220,22.100,8.180,easy
