A-DC1,A-DC2,A-DC3,A-DC4,A-DC5,A-DC6,A-DC7,A-DC8,B-DC1,B-DC2,B-DC3,B-DC4,B-DC5,B-DC6,B-DC7,B-DC8,condition
2823.000,499.900,77.260,16.310,2973.000,536.800,93.060,17.930,238.200,62.320,14.490,3.676,351.100,87.500,19.330,4.989,baseline
2815.000,506.000,76.910,16.130,2986.000,539.300,93.240,17.680,240.800,62.560,14.590,3.658,350.400,87.050,19.070,4.889,baseline
2804.000,503.500,75.860,16.060,2985.000,537.300,92.720,17.710,237.800,61.930,14.500,3.646,347.700,86.770,19.120,4.865,baseline
2806.000,503.000,76.610,16.150,2980.000,540.500,92.840,17.880,238.700,62.140,14.540,3.632,347.800,86.830,19.060,4.878,baseline
2821.000,501.800,77.040,16.290,2986.000,542.300,92.940,17.730,238.400,62.200,14.570,3.650,348.200,87.520,19.340,4.904,baseline
2840.000,506.100,77.770,16.170,3019.000,543.700,93.200,17.980,241.000,63.460,15.020,3.782,361.800,91.050,20.180,5.111,baseline
2884.000,518.100,76.890,16.420,3043.000,551.500,94.080,18.010,252.000,65.560,15.400,3.882,369.700,92.430,20.460,5.178,baseline
2885.000,519.800,78.810,16.760,3066.000,551.900,95.280,18.260,252.300,66.180,15.570,3.936,371.500,93.320,20.580,5.192,baseline
2903.000,524.200,78.790,16.980,3096.000,555.700,95.720,18.310,254.400,66.740,15.660,3.891,376.000,94.620,20.910,5.211,baseline
2925.000,522.900,79.070,16.880,3095.000,558.800,95.410,18.330,256.900,67.210,15.720,3.890,374.900,94.400,20.530,5.087,baseline
2913.000,525.500,79.170,16.750,3078.000,558.500,95.170,18.470,255.900,66.930,15.620,3.809,372.300,93.440,20.330,5.041,baseline
2889.000,520.900,79.550,16.950,3110.000,556.400,96.590,18.310,255.200,66.900,15.470,3.824,372.400,93.370,20.350,5.066,baseline
2895.000,525.300,79.600,16.770,3069.000,554.700,95.740,18.490,253.900,66.080,15.400,3.804,369.700,92.310,20.110,4.986,baseline
2915.000,527.300,79.750,17.010,3063.000,556.100,96.240,18.480,253.700,65.820,15.300,3.791,370.300,92.000,20.110,4.963,baseline
2925.000,528.000,80.650,17.160,3080.000,556.900,96.270,18.610,252.400,65.450,15.230,3.771,368.200,91.680,19.970,4.981,baseline
2922.000,525.000,80.490,17.150,3067.000,557.300,96.890,18.610,252.200,65.330,15.260,3.727,367.800,91.200,19.930,4.955,baseline
2927.000,527.000,80.950,17.170,3053.000,554.900,95.980,18.360,251.300,64.530,14.980,3.709,364.900,90.270,19.830,4.869,baseline
2889.000,517.300,78.910,16.930,3066.000,551.000,95.420,18.420,247.000,63.860,14.820,3.660,361.200,89.460,19.640,4.813,baseline
2889.000,519.100,80.530,17.050,3066.000,550.300,96.200,18.450,247.300,63.960,14.880,3.654,360.300,89.540,19.580,4.830,baseline
2908.000,520.100,80.210,17.170,3059.000,554.600,96.300,18.450,248.900,64.120,14.930,3.670,361.500,89.980,19.480,4.860,baseline
2899.000,524.500,80.250,17.130,3062.000,555.300,95.390,18.430,250.100,64.290,14.870,3.635,363.300,90.050,19.610,4.782,baseline
2909.000,524.200,80.520,17.030,3050.000,553.100,96.890,18.480,247.900,64.090,14.830,3.645,362.200,89.730,19.740,4.788,baseline
2917.000,519.300,80.580,17.110,3084.000,557.000,96.210,18.530,246.500,64.140,14.830,3.646,361.100,89.940,19.620,4.794,baseline
2902.000,528.100,81.280,17.140,3060.000,551.900,95.450,18.490,245.200,63.950,14.750,3.629,361.800,89.940,19.580,4.835,baseline
2907.000,525.400,81.110,17.300,3043.000,551.500,95.760,18.390,245.600,63.660,14.790,3.654,361.500,89.500,19.500,4.798,baseline
2894.000,518.400,79.560,16.830,3048.000,548.700,95.080,18.190,244.900,63.350,14.600,3.598,360.500,89.030,19.540,4.747,baseline
2894.000,518.600,79.940,16.920,3020.000,551.000,95.090,18.410,245.000,63.300,14.650,3.599,358.600,88.880,19.290,4.765,baseline
2888.000,518.700,79.960,17.070,3054.000,548.900,95.850,18.410,247.500,63.060,14.670,3.578,359.800,88.740,19.340,4.758,baseline
2864.000,524.300,80.280,17.220,3035.000,548.600,95.640,18.440,244.600,63.570,14.650,3.593,359.700,89.030,19.550,4.789,baseline
2884.000,522.800,79.620,16.990,3038.000,549.000,94.960,18.330,244.800,63.300,14.640,3.586,358.700,89.250,19.340,4.783,baseline
2911.000,525.000,80.480,17.050,3029.000,549.900,95.690,18.430,247.500,63.030,14.550,3.572,359.500,89.540,19.500,4.764,baseline
2904.000,522.600,80.490,17.250,3051.000,550.200,96.060,18.340,243.000,63.020,14.620,3.615,361.600,89.840,19.490,4.840,baseline
2898.000,523.800,80.710,17.190,3026.000,548.000,95.300,18.240,244.100,63.120,14.650,3.572,362.200,89.290,19.260,4.773,baseline
2890.000,519.000,80.650,17.040,3017.000,547.700,95.710,18.130,243.600,62.880,14.540,3.571,359.400,88.390,19.360,4.713,baseline
2887.000,515.800,80.730,17.070,3017.000,550.400,96.220,18.330,246.900,62.470,14.370,3.533,357.500,88.500,19.220,4.672,baseline
2892.000,524.500,80.220,17.170,3018.000,549.800,95.430,18.400,243.500,62.060,14.420,3.527,356.200,88.060,19.210,4.725,baseline
2903.000,519.600,80.710,17.120,3001.000,550.700,95.160,18.430,239.700,62.160,14.380,3.520,356.000,87.810,19.280,4.749,baseline
2912.000,523.700,81.400,17.420,3024.000,549.600,96.180,18.450,240.000,62.010,14.390,3.523,357.000,88.210,19.220,4.794,baseline
2933.000,527.000,81.540,17.400,3056.000,551.600,97.260,18.530,242.000,62.090,14.370,3.523,356.900,88.900,19.420,4.787,baseline
2930.000,524.400,81.720,17.610,3059.000,555.900,95.900,18.410,240.200,62.230,14.360,3.550,358.400,89.100,19.440,4.780,baseline
2926.000,528.100,81.530,17.070,3021.000,551.800,96.510,18.340,239.300,61.950,14.260,3.506,357.200,88.690,19.180,4.748,baseline
2932.000,527.700,80.740,16.980,3035.000,548.600,96.150,18.460,242.100,61.780,14.380,3.496,357.000,88.270,19.090,4.759,baseline
2934.000,529.400,80.990,17.220,3046.000,553.400,95.970,18.510,240.700,61.850,14.310,3.481,356.500,88.130,19.360,4.748,baseline
2914.000,526.200,81.380,17.370,3043.000,552.300,96.480,18.430,240.000,61.910,14.190,3.493,357.400,88.470,19.290,4.773,baseline
2939.000,525.400,81.250,17.430,3042.000,552.100,96.000,18.460,239.300,61.980,14.320,3.514,358.400,88.920,19.330,4.769,baseline
2964.000,534.300,82.540,17.480,3045.000,551.800,96.340,18.700,242.500,61.690,14.260,3.505,359.900,89.380,19.440,4.794,baseline
2962.000,538.600,83.080,17.580,3064.000,551.700,97.040,18.580,240.600,61.830,14.300,3.532,360.400,89.850,19.720,4.810,baseline
2938.000,535.400,83.400,17.840,3051.000,555.500,96.650,18.580,242.600,62.080,14.400,3.550,362.200,89.970,19.710,4.822,baseline
2976.000,536.200,82.120,17.380,3031.000,554.300,96.150,18.470,241.300,61.880,14.260,3.502,359.700,89.120,19.620,4.808,baseline
2931.000,531.900,81.730,17.370,3046.000,551.900,96.190,18.570,241.100,61.920,14.400,3.511,360.400,89.190,19.470,4.805,baseline
2976.000,534.700,82.090,17.390,3048.000,554.500,96.480,18.480,240.000,61.810,14.330,3.534,361.800,89.510,19.570,4.824,baseline
2975.000,534.700,82.310,17.440,3039.000,554.000,97.070,18.680,241.300,62.130,14.460,3.517,361.700,90.320,19.460,4.780,baseline
2960.000,539.100,83.380,17.480,3062.000,554.800,97.510,18.660,240.900,61.880,14.360,3.529,362.700,90.430,19.700,4.830,baseline
2987.000,539.400,83.530,17.900,3065.000,558.100,97.750,18.770,242.400,62.050,14.290,3.503,362.300,90.390,19.690,4.851,baseline
3006.000,539.900,83.510,17.680,3061.000,557.800,97.200,18.870,243.100,61.940,14.350,3.543,363.700,90.410,19.830,4.915,baseline
3000.000,547.100,84.250,17.820,3090.000,560.700,98.490,18.800,239.900,61.900,14.400,3.532,365.200,91.310,20.070,4.927,baseline
2997.000,543.100,84.080,17.780,3060.000,557.900,96.830,18.620,245.800,62.120,14.340,3.509,364.200,90.810,19.600,4.876,baseline
2992.000,543.800,83.490,17.570,3073.000,559.500,98.070,18.590,240.400,61.960,14.330,3.499,364.400,90.600,19.760,4.803,baseline
2997.000,541.900,84.110,17.740,3065.000,557.900,97.090,18.690,241.800,62.130,14.410,3.518,364.500,90.600,19.860,4.883,baseline
2991.000,545.900,83.360,17.790,3071.000,560.400,97.570,18.800,243.200,62.060,14.430,3.508,366.300,90.890,19.920,4.902,baseline
3008.000,543.500,83.720,17.720,3061.000,559.600,97.770,18.680,243.300,61.950,14.300,3.501,366.000,91.070,19.970,4.911,baseline
3031.000,542.800,84.330,17.670,3050.000,558.600,98.010,18.760,240.100,61.940,14.210,3.509,366.100,90.880,19.800,4.935,baseline
3030.000,549.400,84.680,18.150,3076.000,560.300,98.790,18.600,239.600,62.010,14.290,3.500,367.000,91.680,20.040,4.965,baseline
3020.000,550.900,85.370,18.230,3070.000,561.600,97.750,18.890,243.900,62.060,14.430,3.529,370.900,92.400,20.270,4.959,baseline
3025.000,554.200,85.920,17.980,3069.000,560.100,97.550,18.650,244.100,62.820,14.460,3.538,372.400,92.830,20.140,4.938,baseline
3010.000,548.100,84.380,17.550,3073.000,560.800,97.820,18.690,247.400,62.770,14.420,3.539,373.800,92.250,20.190,4.938,baseline
3041.000,543.400,83.490,17.840,3060.000,559.300,97.180,18.640,248.000,62.870,14.390,3.566,373.900,92.900,20.080,4.922,baseline
3021.000,552.200,84.460,17.850,3075.000,560.700,97.780,18.630,247.000,62.660,14.420,3.535,373.500,92.640,20.200,4.955,baseline
3046.000,542.100,84.410,17.970,3070.000,558.000,97.370,18.670,247.000,62.810,14.440,3.535,374.900,92.620,20.260,4.935,baseline
3020.000,545.400,83.710,18.140,3088.000,561.000,97.960,18.650,243.300,62.820,14.480,3.509,375.300,93.230,20.330,4.990,baseline
3047.000,549.600,84.720,18.010,3073.000,559.500,97.070,18.660,247.300,62.620,14.410,3.534,375.900,92.740,20.350,4.969,baseline
3037.000,548.100,84.710,17.970,3050.000,559.200,97.050,18.710,243.700,62.370,14.420,3.536,375.500,92.970,20.320,5.029,baseline
3051.000,543.900,84.020,17.940,3049.000,555.800,96.060,18.570,245.200,62.500,14.410,3.497,375.600,92.850,20.120,4.954,baseline
3011.000,538.600,82.640,17.450,3040.000,552.800,95.820,18.360,242.000,62.460,14.340,3.525,374.000,92.200,19.990,4.891,baseline
2995.000,539.100,82.840,17.390,3044.000,550.600,95.670,18.370,244.400,62.300,14.320,3.519,374.900,92.480,20.040,4.905,baseline
2994.000,540.500,84.190,17.690,3035.000,548.400,95.120,18.510,242.700,62.060,14.350,3.474,372.900,92.120,20.070,4.921,baseline
2990.000,537.300,83.480,17.530,3017.000,543.500,95.420,18.360,245.000,62.060,14.310,3.496,371.800,91.860,19.930,4.865,baseline
3008.000,537.400,83.460,17.520,3013.000,547.500,96.050,18.540,243.600,61.950,14.250,3.477,372.500,91.940,20.110,4.909,baseline
2985.000,534.500,83.790,17.570,3006.000,546.100,95.600,18.340,244.700,61.670,14.170,3.497,371.600,92.050,19.950,4.953,baseline
2987.000,539.100,83.870,17.720,3008.000,549.500,95.560,18.310,242.600,61.780,14.240,3.467,372.200,92.050,20.140,4.995,baseline
2974.000,540.900,82.800,17.580,3011.000,542.700,94.150,18.120,243.500,61.610,14.280,3.488,371.600,91.340,19.910,4.834,baseline
2992.000,530.000,82.140,17.470,2980.000,546.500,94.090,18.120,241.200,61.230,14.150,3.456,369.400,91.180,19.840,4.817,baseline
2972.000,533.900,81.930,17.250,2980.000,541.300,94.050,18.180,240.800,61.380,14.130,3.468,369.600,90.930,19.760,4.837,baseline
2951.000,531.900,81.210,17.410,2991.000,539.400,94.240,18.090,240.700,61.200,14.100,3.459,369.000,91.250,19.750,4.838,baseline
2955.000,530.200,81.340,17.460,2981.000,542.900,94.040,18.190,238.900,60.790,14.040,3.419,368.600,91.100,19.690,4.856,baseline
2954.000,527.100,81.120,17.490,2967.000,543.200,94.350,18.120,239.500,60.950,14.080,3.423,368.800,91.000,19.720,4.847,baseline
2971.000,530.200,82.360,17.430,2962.000,541.400,94.480,18.190,238.800,60.890,14.020,3.441,368.200,90.810,19.840,4.901,baseline
2953.000,536.900,82.670,17.560,2974.000,540.800,94.050,18.190,239.500,60.850,13.970,3.428,369.100,91.110,19.860,4.901,baseline
2957.000,531.300,83.320,17.550,2965.000,538.500,93.290,18.100,237.800,60.550,13.980,3.433,367.700,91.290,19.810,4.826,baseline
2950.000,527.600,81.040,17.160,2969.000,537.200,94.040,17.920,239.900,60.590,13.980,3.394,365.400,90.280,19.570,4.843,baseline
2926.000,526.500,81.920,17.020,2947.000,531.900,93.330,17.890,240.900,60.570,13.890,3.393,365.200,90.300,19.510,4.749,baseline
2910.000,524.100,80.730,17.240,2962.000,534.300,93.350,18.020,237.000,60.440,13.930,3.387,363.600,90.070,19.590,4.803,baseline
2904.000,523.600,80.650,17.170,2939.000,536.000,93.090,17.890,235.900,60.340,13.830,3.378,364.000,90.320,19.610,4.813,baseline
2927.000,525.400,81.260,17.120,2947.000,538.900,93.140,17.950,236.300,59.920,13.760,3.380,362.400,89.300,19.620,4.801,baseline
2916.000,526.500,80.700,17.340,2941.000,534.100,93.620,18.060,234.400,59.890,13.830,3.382,364.900,90.000,19.730,4.847,baseline
2926.000,526.100,81.880,17.370,2951.000,536.200,93.400,18.070,237.000,59.950,13.790,3.351,364.100,89.940,19.660,4.873,baseline
2943.000,527.500,81.600,17.270,2962.000,537.900,94.480,18.060,235.700,59.830,13.820,3.362,364.500,89.970,19.730,4.803,baseline
2923.000,526.300,81.220,17.070,2944.000,536.700,92.520,17.950,234.600,60.120,13.810,3.346,360.900,90.000,19.540,4.737,baseline
2917.000,523.800,80.470,17.080,2943.000,532.900,92.580,17.910,237.200,60.000,13.800,3.332,360.600,89.460,19.450,4.731,baseline
2913.000,526.800,80.370,17.210,2941.000,534.800,92.460,17.940,235.300,59.790,13.710,3.361,360.100,89.690,19.760,4.828,baseline
2893.000,526.800,81.330,17.090,2951.000,532.500,92.970,17.740,235.400,59.640,13.850,3.365,361.100,89.470,19.540,4.754,baseline
2906.000,522.500,80.910,17.150,2927.000,534.800,93.330,17.830,234.600,59.850,13.740,3.336,362.400,89.730,19.500,4.817,baseline
2911.000,523.600,80.820,17.210,2941.000,534.000,93.270,17.930,235.200,59.430,13.760,3.344,361.700,89.140,19.620,4.785,baseline
2896.000,524.500,81.270,17.340,2941.000,532.600,92.690,17.920,235.800,59.710,13.710,3.341,362.700,89.790,19.560,4.829,baseline
2910.000,527.100,81.870,17.310,2948.000,533.000,93.230,17.880,232.500,59.620,13.800,3.355,363.000,89.670,19.540,4.866,baseline
2921.000,522.500,81.050,17.140,2946.000,532.400,93.220,17.770,234.100,59.640,13.740,3.336,361.500,89.060,19.440,4.765,baseline
2887.000,520.200,80.190,17.040,2941.000,532.600,92.570,17.720,233.600,59.660,13.670,3.319,359.400,88.860,19.380,4.763,baseline
2876.000,516.900,79.900,17.080,2922.000,529.200,92.930,17.680,234.200,59.380,13.580,3.349,357.600,88.830,19.320,4.757,baseline
2892.000,523.000,79.850,16.980,2929.000,528.800,92.290,17.890,234.200,59.630,13.660,3.319,358.900,88.880,19.350,4.776,baseline
2908.000,521.800,79.980,17.080,2938.000,530.900,92.750,17.850,234.000,59.200,13.610,3.318,357.900,88.350,19.440,4.749,baseline
2885.000,523.800,80.660,17.190,2923.000,528.800,93.140,17.710,234.400,59.200,13.580,3.325,359.000,88.490,19.370,4.750,baseline
2861.000,524.700,81.620,17.180,2951.000,532.400,93.580,17.880,232.000,59.400,13.560,3.340,358.400,88.700,19.590,4.770,baseline
2920.000,524.500,81.680,17.340,2936.000,533.500,93.180,17.880,234.100,59.440,13.590,3.328,358.500,89.120,19.460,4.799,baseline
2900.000,526.600,82.230,17.340,2938.000,533.200,93.200,17.840,232.000,59.280,13.620,3.328,359.400,89.310,19.460,4.779,baseline
2895.000,522.800,80.140,17.130,2925.000,531.100,91.950,17.770,232.100,59.010,13.580,3.281,357.200,88.140,19.130,4.724,baseline
2875.000,519.700,79.920,16.920,2927.000,531.900,92.380,17.680,233.500,59.020,13.580,3.287,356.500,88.290,19.330,4.700,baseline
2891.000,520.800,80.610,16.900,2931.000,534.500,92.060,17.720,233.200,59.220,13.530,3.312,356.400,88.170,19.260,4.730,baseline
2881.000,519.300,79.990,17.050,2938.000,531.200,92.640,17.770,233.900,58.930,13.570,3.322,355.300,88.080,19.140,4.708,baseline
2883.000,522.400,79.680,17.020,2949.000,532.100,92.300,17.890,234.900,58.990,13.520,3.293,356.500,87.680,19.210,4.744,baseline
2887.000,521.300,81.390,17.100,2933.000,535.100,93.210,17.930,230.600,58.740,13.580,3.282,354.000,88.560,19.290,4.727,baseline
2889.000,523.100,81.250,17.360,2939.000,533.100,92.700,17.850,231.700,58.770,13.520,3.294,354.700,87.870,19.360,4.756,baseline
2910.000,530.900,82.100,17.240,2956.000,534.400,93.260,17.940,233.100,58.890,13.390,3.288,355.400,88.240,19.430,4.755,baseline
2885.000,526.600,81.730,17.320,2936.000,536.200,92.830,17.830,231.100,58.760,13.550,3.290,356.000,87.830,19.280,4.684,baseline
2875.000,520.700,80.450,16.970,2954.000,534.100,92.690,17.750,232.200,58.590,13.450,3.279,353.400,88.020,19.120,4.684,baseline
2896.000,522.400,80.270,17.090,2940.000,534.000,92.210,17.890,230.900,58.490,13.410,3.287,352.500,87.430,19.060,4.692,baseline
2886.000,521.000,80.570,17.110,2926.000,532.900,92.840,17.700,230.400,58.770,13.420,3.305,352.400,87.340,18.990,4.666,baseline
2894.000,521.500,80.630,17.080,2940.000,534.800,92.680,17.880,230.000,58.600,13.470,3.306,352.700,87.230,19.020,4.705,baseline
2893.000,521.700,80.320,17.110,2931.000,530.700,92.950,17.670,230.700,58.670,13.470,3.283,351.500,87.350,19.120,4.671,baseline
2914.000,523.400,80.470,17.120,2949.000,533.900,92.830,17.750,229.800,58.230,13.380,3.294,353.400,87.060,19.030,4.712,baseline
2888.000,524.000,81.660,17.160,2924.000,534.800,93.440,17.890,230.600,58.380,13.460,3.331,352.000,87.640,19.200,4.692,baseline
2905.000,526.900,81.090,17.310,2954.000,535.100,92.920,17.820,228.200,58.310,13.400,3.285,354.400,87.820,19.340,4.752,baseline
2908.000,530.800,81.280,17.040,2961.000,533.000,91.870,17.730,231.900,58.630,13.410,3.269,351.300,87.390,18.980,4.698,baseline
2915.000,520.500,79.760,16.920,2931.000,533.800,91.420,17.730,230.800,58.350,13.330,3.252,351.400,86.780,18.820,4.631,baseline
2882.000,520.400,79.180,16.840,2929.000,535.000,92.580,17.740,230.300,58.310,13.350,3.264,350.400,86.960,18.900,4.610,baseline
2891.000,522.100,80.370,16.980,2923.000,533.100,92.850,17.660,231.000,58.280,13.350,3.241,350.700,86.700,18.910,4.657,baseline
2908.000,518.700,80.060,16.880,2931.000,533.200,92.620,17.670,229.300,58.240,13.310,3.265,351.300,86.700,18.890,4.599,baseline
2908.000,523.100,80.920,17.260,2930.000,531.900,92.880,17.810,231.500,58.080,13.370,3.260,350.900,86.920,19.090,4.669,baseline
2912.000,521.900,80.590,17.290,2928.000,533.500,92.700,17.810,229.600,57.990,13.340,3.230,351.400,87.340,19.040,4.642,baseline
2891.000,523.800,80.740,17.300,2937.000,532.700,93.080,17.950,229.200,58.230,13.370,3.245,351.000,86.880,19.140,4.679,baseline
2922.000,524.300,81.560,17.240,2925.000,532.300,92.180,17.670,232.100,58.420,13.430,3.246,352.500,86.960,19.010,4.639,baseline
2880.000,519.500,79.470,16.870,2924.000,529.400,92.810,17.660,229.800,58.310,13.330,3.237,352.700,86.940,18.870,4.647,baseline
2888.000,526.700,79.900,16.960,2931.000,526.900,92.520,17.710,231.400,58.270,13.370,3.266,350.400,86.440,18.930,4.649,baseline
2872.000,521.200,79.760,16.840,2936.000,531.100,92.330,17.720,230.000,58.370,13.290,3.240,350.100,86.650,18.830,4.594,baseline
2919.000,518.000,80.570,16.710,2929.000,531.400,92.390,17.590,231.400,58.270,13.420,3.269,350.500,86.310,18.890,4.619,baseline
2914.000,523.200,79.960,17.040,2923.000,531.100,92.330,17.630,230.100,58.040,13.370,3.266,351.200,86.470,18.870,4.671,baseline
2888.000,521.400,80.230,17.010,2933.000,528.800,92.970,17.710,228.300,58.200,13.380,3.272,350.000,86.630,19.060,4.648,baseline
2882.000,522.300,81.430,17.160,2931.000,530.200,92.170,17.730,230.600,58.320,13.400,3.268,351.800,86.780,19.060,4.709,baseline
2912.000,522.600,80.550,16.880,2909.000,530.700,91.190,17.580,230.700,58.440,13.330,3.279,351.200,86.710,18.840,4.627,baseline
2872.000,517.900,79.770,16.780,2917.000,528.300,91.330,17.420,229.000,58.350,13.390,3.244,347.700,86.160,18.850,4.588,baseline
2860.000,516.400,79.190,16.730,2933.000,526.700,91.660,17.580,234.000,58.060,13.340,3.251,348.600,85.940,18.830,4.599,baseline
2855.000,517.900,79.110,16.790,2916.000,528.400,91.330,17.630,232.500,58.140,13.330,3.249,347.800,86.110,18.830,4.563,baseline
2864.000,518.700,79.020,16.800,2920.000,525.700,91.350,17.480,232.000,58.060,13.360,3.248,349.200,85.910,18.790,4.573,baseline
2896.000,519.200,79.330,16.600,2898.000,526.200,91.510,17.510,229.500,57.920,13.250,3.230,348.700,86.000,18.870,4.620,baseline
2865.000,518.000,79.730,16.780,2905.000,525.500,91.040,17.520,228.700,57.920,13.280,3.241,349.400,86.370,18.810,4.637,baseline
2907.000,519.000,80.570,16.810,2905.000,526.800,92.060,17.650,232.800,58.030,13.260,3.253,348.700,86.030,18.830,4.667,baseline
2886.000,517.200,79.470,17.000,2922.000,526.300,91.120,17.410,229.600,58.020,13.350,3.257,350.100,86.040,18.830,4.582,baseline
2859.000,513.200,77.630,16.490,2893.000,522.800,90.720,17.350,229.000,58.070,13.330,3.242,347.000,85.360,18.760,4.525,baseline
2831.000,510.300,78.330,16.330,2885.000,521.000,90.640,17.480,232.000,57.930,13.290,3.240,348.100,85.610,18.700,4.528,baseline
2846.000,514.400,78.000,16.600,2894.000,525.100,90.680,17.380,229.200,58.060,13.300,3.278,347.300,85.520,18.700,4.586,baseline
2859.000,512.600,78.150,16.700,2885.000,527.000,90.440,17.480,232.000,57.840,13.310,3.263,348.000,85.100,18.750,4.554,baseline
2854.000,515.700,79.300,16.620,2886.000,526.700,91.030,17.400,230.100,57.980,13.220,3.248,346.300,85.110,18.690,4.570,baseline
2841.000,508.600,78.480,16.660,2898.000,524.700,91.280,17.540,230.400,58.010,13.390,3.239,346.300,85.350,18.650,4.562,baseline
2864.000,516.600,78.470,16.640,2911.000,521.100,91.600,17.510,230.400,58.130,13.220,3.270,347.700,86.140,18.770,4.618,baseline
2862.000,518.600,79.060,16.580,2916.000,526.800,91.450,17.470,231.600,57.900,13.320,3.240,348.100,85.890,18.870,4.617,baseline
2873.000,517.100,78.190,16.590,2893.000,525.500,90.620,17.350,231.000,57.980,13.320,3.234,346.500,85.320,18.620,4.551,baseline
2847.000,509.400,77.520,16.410,2932.000,524.200,90.650,17.170,228.000,58.020,13.200,3.253,345.100,85.300,18.640,4.553,baseline
2858.000,509.600,77.780,16.250,2897.000,522.900,90.620,17.300,232.700,58.250,13.230,3.224,347.600,85.650,18.630,4.527,baseline
2843.000,513.400,77.140,16.390,2903.000,520.700,90.100,17.280,233.200,58.150,13.260,3.240,348.300,85.680,18.620,4.561,baseline
2842.000,510.000,78.350,16.400,2889.000,517.800,90.060,17.170,230.900,57.940,13.250,3.241,347.100,85.540,18.600,4.534,baseline
2850.000,509.300,78.180,16.360,2889.000,519.000,89.490,17.340,230.200,57.980,13.270,3.236,346.800,85.530,18.510,4.551,baseline
2853.000,513.200,78.510,16.740,2892.000,520.800,89.600,17.130,227.700,58.080,13.310,3.247,348.600,86.170,18.820,4.597,baseline
2862.000,510.000,78.380,16.640,2889.000,518.600,89.890,17.390,232.300,58.000,13.280,3.301,349.200,85.980,18.680,4.626,baseline
2841.000,513.900,78.470,16.660,2889.000,517.900,90.000,17.190,231.800,58.170,13.370,3.244,350.100,86.040,18.820,4.606,baseline
2828.000,506.800,77.100,16.250,2878.000,514.100,88.830,17.100,231.700,58.140,13.300,3.252,348.100,85.460,18.680,4.499,baseline
2818.000,505.400,77.280,16.370,2869.000,515.800,88.960,17.180,232.600,58.220,13.320,3.243,348.600,85.310,18.560,4.526,baseline
2818.000,505.600,76.830,16.440,2874.000,516.100,88.710,17.190,233.600,58.290,13.200,3.227,347.300,85.550,18.640,4.588,baseline
2824.000,504.000,77.220,16.190,2881.000,514.800,88.980,17.130,230.500,58.070,13.300,3.226,348.100,85.430,18.780,4.525,baseline
2822.000,506.200,78.250,16.470,2853.000,516.500,89.490,17.200,231.200,58.120,13.300,3.235,348.100,85.670,18.730,4.557,baseline
2821.000,508.400,77.440,16.470,2856.000,518.200,89.730,17.110,229.900,57.960,13.250,3.235,348.900,85.750,18.690,4.554,baseline
2844.000,509.200,77.640,16.700,2857.000,518.200,90.480,17.380,231.300,58.110,13.170,3.233,349.300,86.280,18.750,4.627,baseline
2844.000,509.500,78.890,16.590,2874.000,519.900,90.240,17.260,232.400,58.190,13.280,3.264,351.400,86.460,18.930,4.653,baseline
2851.000,511.700,77.570,16.350,2877.000,515.600,89.200,17.160,235.300,58.590,13.390,3.234,350.600,86.310,18.740,4.520,baseline
2813.000,504.200,76.930,16.300,2861.000,514.300,88.360,16.920,234.900,58.730,13.390,3.283,352.000,86.800,18.640,4.545,baseline
2813.000,503.000,76.610,16.170,2874.000,510.300,88.270,17.010,232.400,58.730,13.430,3.225,351.600,85.790,18.830,4.591,baseline
2813.000,502.800,76.760,16.290,2857.000,510.700,88.700,17.040,234.400,58.670,13.500,3.260,351.300,85.940,18.810,4.522,baseline
2839.000,503.000,76.820,16.310,2856.000,509.700,88.710,16.880,234.600,58.640,13.390,3.211,350.600,86.190,18.660,4.564,baseline
2810.000,500.300,76.860,16.370,2851.000,510.100,88.310,17.080,234.600,58.480,13.330,3.234,351.700,85.790,18.720,4.585,baseline
2812.000,500.000,77.020,16.400,2856.000,513.100,88.590,17.000,234.600,58.440,13.370,3.234,351.600,86.580,18.740,4.556,baseline
2796.000,504.200,76.850,16.420,2854.000,509.700,88.780,17.090,235.100,58.340,13.270,3.249,352.000,86.250,18.840,4.587,baseline
2819.000,504.300,77.620,16.790,2855.000,509.400,88.230,17.120,234.900,58.290,13.370,3.259,353.000,86.120,18.980,4.611,baseline
2826.000,505.100,77.070,16.450,2838.000,505.300,87.950,16.900,233.400,58.380,13.350,3.249,351.100,85.940,18.770,4.528,baseline
2779.000,498.700,76.520,16.270,2830.000,506.300,88.240,16.910,233.600,58.200,13.340,3.211,349.100,85.490,18.640,4.512,baseline
2795.000,498.700,76.560,16.210,2820.000,507.800,88.070,16.880,231.300,58.190,13.280,3.171,349.400,85.830,18.610,4.497,baseline
2805.000,498.400,76.340,16.300,2830.000,507.800,87.620,17.030,233.500,57.990,13.290,3.221,349.100,85.770,18.610,4.503,baseline
2781.000,499.200,76.080,16.240,2823.000,505.800,88.140,16.790,231.800,58.050,13.220,3.193,348.900,86.370,18.560,4.506,baseline
2791.000,499.800,77.030,16.310,2821.000,510.800,88.360,16.780,232.100,58.210,13.270,3.213,350.800,85.830,18.730,4.576,baseline
2777.000,501.200,76.420,16.470,2828.000,504.800,88.430,17.020,234.600,58.110,13.330,3.192,350.900,86.030,18.740,4.534,baseline
2800.000,501.200,77.360,16.600,2834.000,508.900,87.550,16.950,234.800,58.090,13.380,3.232,349.900,85.920,18.910,4.613,baseline
2806.000,503.600,77.420,16.610,2826.000,512.200,88.960,17.100,233.400,58.220,13.310,3.251,352.300,86.120,18.910,4.683,baseline
2822.000,506.900,77.300,16.480,2843.000,510.700,88.050,16.980,233.200,58.250,13.350,3.228,352.400,87.030,18.900,4.576,baseline
2821.000,500.500,76.350,16.340,2822.000,509.900,87.670,16.990,231.800,58.180,13.390,3.204,350.900,86.040,18.820,4.525,baseline
2806.000,498.600,76.770,16.340,2837.000,511.800,87.580,16.970,233.700,58.340,13.290,3.206,350.600,86.110,18.580,4.581,baseline
2788.000,502.200,76.910,16.460,2841.000,512.900,88.200,17.040,232.900,57.970,13.280,3.243,349.400,86.330,18.700,4.593,baseline
2790.000,506.000,76.920,16.320,2853.000,513.400,88.410,17.160,234.200,58.340,13.280,3.222,349.200,85.900,18.740,4.578,baseline
2786.000,502.900,77.280,16.320,2845.000,515.800,89.060,17.070,233.400,58.220,13.370,3.236,350.300,86.170,18.830,4.569,baseline
2806.000,503.400,77.230,16.420,2844.000,515.700,89.580,17.080,232.000,58.150,13.300,3.239,351.200,86.090,18.790,4.593,baseline
2802.000,509.500,77.160,16.630,2870.000,516.700,88.550,17.150,232.800,58.120,13.300,3.242,350.300,86.570,18.880,4.624,baseline
2829.000,507.000,77.920,16.690,2859.000,515.500,89.590,17.210,234.800,58.170,13.280,3.195,350.700,86.440,18.970,4.669,baseline
2826.000,509.600,77.950,16.820,2881.000,519.600,89.650,17.190,233.000,58.370,13.360,3.214,352.700,86.390,18.920,4.607,baseline
2853.000,507.400,77.270,16.220,2878.000,513.400,88.390,17.230,232.100,58.210,13.330,3.226,351.000,86.270,18.810,4.598,baseline
2813.000,504.800,77.660,16.300,2868.000,517.300,89.120,17.310,233.100,58.450,13.390,3.216,350.700,85.900,18.850,4.581,baseline
2807.000,507.500,77.710,16.500,2869.000,517.400,89.790,17.200,234.000,58.410,13.380,3.224,351.200,86.360,18.830,4.582,baseline
2819.000,508.400,77.200,16.320,2849.000,519.200,88.770,17.120,233.800,58.230,13.340,3.218,350.900,86.090,18.900,4.558,baseline
2820.000,509.800,77.990,16.380,2862.000,515.700,89.250,17.210,231.200,58.330,13.350,3.242,351.000,86.270,18.800,4.574,baseline
2823.000,508.700,77.250,16.400,2874.000,516.600,89.690,17.230,232.600,58.570,13.350,3.237,351.400,86.430,18.940,4.640,baseline
2849.000,508.700,78.520,16.630,2888.000,518.800,89.710,17.310,234.900,58.390,13.410,3.248,352.400,86.550,18.940,4.620,baseline
2844.000,509.000,78.910,16.740,2889.000,522.500,90.480,17.360,235.900,58.530,13.360,3.259,353.300,87.100,18.940,4.664,baseline
2854.000,507.000,79.000,16.720,2894.000,520.000,89.870,17.130,234.600,58.720,13.430,3.276,355.700,87.620,18.980,4.670,baseline
2814.000,506.800,76.820,16.550,2874.000,519.500,88.700,16.800,233.800,58.660,13.430,3.262,353.100,87.180,18.980,4.608,baseline
2822.000,510.800,76.550,16.270,2893.000,514.000,88.850,16.950,233.800,58.740,13.460,3.225,353.200,86.870,18.870,4.606,baseline
2808.000,503.200,77.170,16.530,2860.000,515.400,88.350,17.110,233.900,59.090,13.400,3.279,356.500,87.250,18.860,4.603,baseline
2791.000,503.100,76.380,16.440,2848.000,513.500,88.300,17.060,235.600,59.120,13.510,3.234,354.500,87.320,19.000,4.624,baseline
2806.000,502.800,76.830,16.260,2870.000,512.600,88.040,17.050,238.500,58.780,13.510,3.285,355.200,86.980,18.950,4.580,baseline
2791.000,500.900,76.980,16.480,2857.000,511.500,89.550,17.200,234.800,58.910,13.420,3.252,355.600,87.200,18.930,4.600,baseline
2841.000,508.700,77.190,16.570,2876.000,513.100,89.670,17.170,234.800,59.060,13.460,3.273,355.100,87.200,19.010,4.682,baseline
2827.000,506.400,77.710,16.620,2862.000,515.100,89.280,17.210,234.200,58.820,13.450,3.224,356.100,87.530,19.080,4.649,baseline
2829.000,507.400,77.690,16.560,2847.000,512.900,88.680,16.920,233.800,58.880,13.500,3.264,356.000,87.650,19.030,4.581,baseline
2799.000,500.900,76.810,16.190,2861.000,510.900,88.930,16.970,234.100,58.760,13.340,3.202,353.500,86.740,18.840,4.526,baseline
2796.000,499.800,76.420,16.180,2839.000,510.600,87.810,16.960,235.400,58.430,13.400,3.226,352.700,86.450,18.620,4.547,baseline
2806.000,496.200,76.120,16.230,2853.000,511.200,88.030,16.900,236.100,58.480,13.340,3.258,352.800,86.550,18.670,4.561,baseline
2827.000,500.100,75.690,16.090,2839.000,512.900,88.620,17.010,232.300,58.430,13.330,3.231,349.900,85.900,18.620,4.553,baseline
2783.000,502.700,76.790,16.140,2867.000,516.300,89.370,17.040,233.700,58.190,13.350,3.217,349.200,85.180,18.680,4.575,baseline
2814.000,503.500,77.070,16.290,2854.000,513.600,89.140,17.140,229.600,58.130,13.160,3.218,347.000,85.640,18.510,4.552,baseline
2776.000,506.000,77.070,16.550,2846.000,512.400,88.960,17.140,229.800,57.310,13.200,3.193,344.300,85.080,18.570,4.620,baseline
2773.000,502.000,77.090,16.470,2846.000,512.100,89.510,17.070,226.400,57.270,13.100,3.200,342.500,84.980,18.550,4.586,baseline
2816.000,499.700,76.620,16.450,2844.000,515.200,89.410,16.970,226.600,57.380,13.110,3.254,344.800,84.950,18.570,4.584,baseline
2773.000,500.800,76.040,16.190,2857.000,517.000,89.570,17.000,227.900,57.480,13.160,3.256,342.300,84.700,18.500,4.597,baseline
2813.000,505.700,77.050,16.330,2862.000,517.800,90.180,17.110,227.900,57.640,13.210,3.256,342.300,85.350,18.550,4.592,baseline
2841.000,507.100,77.150,16.240,2906.000,523.800,89.460,17.120,228.200,57.680,13.350,3.248,340.900,85.210,18.590,4.658,baseline
2855.000,515.400,78.710,16.510,2914.000,525.500,90.480,17.330,227.200,57.980,13.290,3.280,341.700,85.450,18.620,4.710,baseline
2859.000,513.100,78.420,16.340,2931.000,530.900,90.620,17.450,226.100,57.940,13.410,3.330,341.900,85.020,18.630,4.717,baseline
2886.000,510.700,78.800,16.450,2944.000,528.900,91.700,17.440,227.800,57.860,13.450,3.298,343.000,85.510,18.810,4.738,baseline
2890.000,520.600,78.790,16.690,2946.000,534.300,92.400,17.430,227.500,58.570,13.470,3.326,345.200,86.020,18.780,4.787,baseline
2884.000,519.600,78.670,16.880,2960.000,533.000,92.140,17.540,229.400,58.580,13.460,3.352,346.400,86.690,18.890,4.808,baseline
2897.000,516.400,77.910,16.420,2956.000,537.400,92.180,17.440,228.800,58.590,13.590,3.332,343.100,85.710,18.810,4.705,baseline
2925.000,514.000,77.280,16.390,2974.000,534.100,92.490,17.480,228.800,58.450,13.530,3.358,342.100,85.620,18.780,4.707,baseline
2887.000,515.700,78.070,16.490,2964.000,535.800,91.830,17.680,229.700,58.520,13.670,3.343,343.300,85.680,18.960,4.778,baseline
2885.000,521.100,78.590,16.470,2987.000,536.000,92.260,17.620,230.100,58.740,13.590,3.357,344.800,85.750,18.980,4.770,baseline
2904.000,518.500,78.620,16.570,2982.000,542.000,92.220,17.520,230.200,58.690,13.670,3.371,345.500,85.820,18.850,4.784,baseline
2900.000,519.900,79.130,16.440,2984.000,539.700,93.270,17.680,229.200,58.780,13.670,3.364,343.700,86.150,18.870,4.836,baseline
2907.000,523.100,78.440,16.560,2986.000,537.200,92.150,17.780,226.900,58.840,13.660,3.351,345.400,86.240,19.020,4.828,baseline
2912.000,523.300,79.590,16.800,3002.000,541.000,93.730,17.700,230.100,58.790,13.710,3.358,346.100,86.610,18.980,4.859,baseline
2899.000,523.300,78.170,16.320,2991.000,540.900,93.140,17.700,231.100,59.020,13.780,3.371,343.400,85.950,18.790,4.763,baseline
2924.000,516.200,78.430,16.390,2999.000,538.100,92.240,17.620,229.000,58.640,13.650,3.375,341.500,85.760,18.830,4.767,baseline
2864.000,518.300,78.070,16.320,3011.000,538.700,92.230,17.540,229.300,58.920,13.750,3.399,343.200,85.760,18.830,4.774,baseline
2879.000,520.900,77.910,16.480,2978.000,540.500,92.800,17.520,227.600,59.070,13.720,3.387,341.400,85.660,18.820,4.768,baseline
2926.000,516.000,78.020,16.570,3020.000,539.700,93.260,17.570,232.700,59.010,13.790,3.406,342.100,85.700,18.780,4.779,baseline
2904.000,515.300,78.300,16.460,2992.000,541.000,93.250,17.660,231.300,58.870,13.700,3.389,342.200,85.900,18.900,4.746,baseline
2906.000,519.400,78.830,16.650,2997.000,542.900,93.020,17.760,231.500,58.990,13.720,3.409,343.000,86.640,19.070,4.796,baseline
2921.000,522.200,78.840,16.660,3013.000,542.900,93.520,17.810,230.000,59.280,13.770,3.415,344.400,86.760,19.070,4.833,baseline
2933.000,522.800,78.650,16.310,3007.000,545.500,93.110,17.550,229.000,59.220,13.720,3.419,344.800,86.160,18.880,4.797,baseline
2882.000,517.900,77.340,16.150,2992.000,540.800,92.310,17.590,230.500,59.000,13.750,3.402,342.200,85.360,18.800,4.727,baseline
2915.000,514.900,78.230,16.360,3007.000,542.000,92.910,17.680,230.100,59.130,13.760,3.411,341.800,85.540,18.580,4.702,baseline
2923.000,516.400,77.970,16.210,2998.000,542.100,93.010,17.680,229.300,58.880,13.700,3.383,342.100,84.990,18.610,4.746,baseline
2920.000,515.400,77.670,16.210,2992.000,542.300,93.040,17.640,230.000,59.030,13.770,3.370,340.600,85.020,18.580,4.724,baseline
2904.000,517.800,78.270,16.270,3019.000,543.700,93.160,17.670,230.300,58.970,13.680,3.400,341.700,85.300,18.900,4.678,baseline
2892.000,517.800,78.500,16.410,3016.000,546.200,92.910,17.730,227.300,58.980,13.760,3.373,340.600,85.330,18.740,4.727,baseline
2905.000,511.800,78.170,16.390,3013.000,541.300,93.630,17.770,229.900,59.040,13.710,3.373,342.800,85.740,18.840,4.772,baseline
2926.000,521.500,79.210,16.810,3028.000,544.400,93.280,17.850,230.100,59.430,13.750,3.396,342.900,86.030,18.910,4.794,baseline
2922.000,524.700,78.900,16.490,3013.000,548.000,93.430,17.730,230.200,59.270,13.730,3.412,344.100,85.420,18.720,4.746,baseline
2926.000,516.600,77.380,16.230,3004.000,543.500,93.630,17.630,227.900,58.900,13.720,3.376,340.900,84.600,18.600,4.659,baseline
2905.000,517.800,77.820,16.130,3009.000,545.700,93.130,17.630,231.100,58.960,13.740,3.385,340.100,84.610,18.670,4.706,baseline
2906.000,515.800,77.470,16.110,3002.000,543.600,92.970,17.720,228.800,58.920,13.710,3.353,341.300,84.580,18.620,4.669,baseline
2884.000,515.600,77.390,16.220,3019.000,544.100,93.320,17.670,231.700,58.990,13.730,3.371,339.700,84.970,18.580,4.694,baseline
2894.000,516.500,77.430,16.190,3017.000,544.500,93.070,17.710,230.200,58.960,13.680,3.384,339.000,84.610,18.710,4.650,baseline
2881.000,519.600,77.960,16.360,3020.000,546.300,94.510,17.830,231.600,59.060,13.690,3.368,341.000,84.610,18.420,4.730,baseline
2920.000,519.600,77.210,16.510,3019.000,546.200,93.610,17.950,229.800,58.840,13.680,3.399,341.000,85.190,18.820,4.699,baseline
2923.000,521.800,78.590,16.470,3021.000,547.800,93.350,17.940,229.200,59.060,13.750,3.418,341.400,85.580,18.950,4.733,baseline
2942.000,522.500,78.790,16.340,3022.000,546.500,93.720,17.740,230.000,59.170,13.750,3.386,341.800,85.580,18.600,4.679,baseline
2922.000,520.100,77.160,16.250,3006.000,543.600,93.030,17.700,228.200,58.950,13.760,3.368,339.400,84.720,18.440,4.650,baseline
2897.000,512.300,77.430,16.190,3025.000,543.700,93.680,17.590,229.900,59.010,13.640,3.356,339.200,84.860,18.680,4.622,baseline
2911.000,516.300,77.370,16.310,3006.000,545.100,93.520,17.720,230.000,58.910,13.690,3.379,340.100,84.540,18.660,4.653,baseline
2876.000,518.600,77.520,16.320,3009.000,546.600,93.470,17.620,229.000,58.910,13.690,3.360,340.500,84.740,18.460,4.662,baseline
2915.000,518.900,77.700,16.320,3018.000,547.500,93.450,17.960,230.200,58.990,13.700,3.374,340.400,84.800,18.610,4.656,baseline
2904.000,517.300,78.720,16.390,3036.000,546.900,93.580,17.960,231.500,59.010,13.720,3.390,339.600,85.130,18.570,4.710,baseline
2923.000,521.900,78.450,16.300,3024.000,545.900,93.360,18.020,231.400,59.050,13.820,3.407,342.700,85.800,18.800,4.726,baseline
2927.000,520.400,78.820,16.530,3011.000,547.900,94.130,17.940,230.000,59.220,13.760,3.391,342.600,85.740,18.870,4.746,baseline
2922.000,523.700,78.920,16.550,3040.000,548.500,94.370,17.680,232.000,59.580,13.730,3.390,343.400,85.660,18.650,4.676,baseline
2914.000,517.400,77.090,16.270,3045.000,546.500,93.540,17.760,231.900,59.050,13.750,3.363,339.900,84.450,18.480,4.624,baseline
2908.000,518.100,77.490,16.270,3024.000,550.100,93.600,17.700,231.300,59.380,13.650,3.375,339.600,85.160,18.570,4.661,baseline
2914.000,514.300,77.900,16.210,3009.000,549.600,94.320,17.780,232.500,59.070,13.740,3.408,341.800,84.810,18.620,4.713,baseline
2898.000,518.500,77.050,16.240,3028.000,548.000,93.770,17.890,229.400,59.370,13.710,3.361,340.900,84.740,18.400,4.672,baseline
2920.000,520.700,77.750,16.400,3024.000,548.300,93.820,17.820,230.200,59.210,13.740,3.401,342.700,85.090,18.730,4.666,baseline
2915.000,524.200,78.190,16.460,3027.000,548.300,94.350,17.960,231.800,59.350,13.770,3.391,342.300,85.500,18.760,4.703,baseline
2940.000,526.300,78.670,16.460,3045.000,552.400,93.850,17.930,230.500,59.660,13.870,3.398,342.700,85.510,18.770,4.723,baseline
2935.000,524.700,79.110,16.510,3040.000,550.600,95.120,18.090,235.600,59.620,13.830,3.430,345.400,85.940,18.900,4.749,baseline
2954.000,533.200,80.340,16.640,3065.000,549.200,94.690,18.150,233.100,59.870,13.880,3.412,346.100,86.210,19.060,4.812,baseline
2960.000,535.600,79.250,16.610,3066.000,551.700,94.690,17.880,232.600,59.870,13.960,3.438,346.000,85.840,18.720,4.686,baseline
2935.000,518.500,78.080,16.370,3038.000,549.400,94.040,17.760,232.000,59.600,13.840,3.393,344.000,85.240,18.580,4.649,baseline
2947.000,526.500,78.390,16.340,3045.000,550.900,93.670,17.850,231.400,59.550,13.770,3.403,342.900,84.840,18.690,4.667,baseline
2934.000,520.400,78.990,16.430,3055.000,551.700,94.470,17.850,232.400,59.810,13.930,3.391,344.000,85.970,18.770,4.685,baseline
2939.000,524.600,78.590,16.470,3073.000,553.300,94.570,17.950,231.700,59.930,13.820,3.400,344.300,85.920,18.890,4.703,baseline
2927.000,524.900,78.070,16.390,3062.000,550.200,95.090,18.020,232.400,59.810,13.890,3.421,344.600,85.560,18.740,4.691,baseline
2959.000,528.700,78.610,16.410,3058.000,552.400,94.440,18.100,231.900,59.560,13.860,3.388,344.800,85.520,18.790,4.758,baseline
2955.000,531.100,79.330,16.760,3050.000,555.800,95.350,18.050,233.400,59.810,13.810,3.446,345.700,85.670,18.950,4.739,baseline
2947.000,531.600,79.690,16.920,3051.000,558.000,95.650,18.120,234.400,59.950,13.910,3.403,346.500,86.630,19.000,4.827,baseline
2987.000,530.900,79.810,16.750,3092.000,556.300,95.770,18.160,234.700,59.980,13.970,3.438,347.600,86.690,18.970,4.793,baseline
2944.000,527.300,78.950,16.590,3049.000,552.000,94.760,18.050,234.200,59.720,13.870,3.442,346.500,86.070,18.760,4.723,baseline
2951.000,531.500,79.240,16.840,3083.000,558.900,95.000,17.970,235.700,60.000,13.950,3.455,348.500,86.620,18.980,4.762,baseline
2994.000,532.000,79.980,16.780,3092.000,564.200,96.340,18.420,237.800,61.070,14.190,3.501,354.400,87.660,19.290,4.793,baseline
3004.000,533.800,80.160,16.870,3134.000,566.100,96.700,18.370,238.100,61.590,14.200,3.493,355.900,88.510,19.140,4.766,baseline
3018.000,535.800,79.850,16.820,3121.000,564.500,95.960,18.350,240.300,61.710,14.270,3.481,358.100,88.980,19.300,4.794,baseline
3014.000,535.900,80.420,17.030,3101.000,563.400,96.160,18.330,240.900,61.730,14.320,3.490,358.100,89.380,19.480,4.833,baseline
3007.000,538.400,81.250,17.130,3092.000,565.900,96.310,18.350,241.600,61.900,14.280,3.517,359.300,89.160,19.450,4.820,baseline
3017.000,542.500,80.930,17.140,3098.000,563.600,96.780,18.490,239.700,62.150,14.270,3.520,361.100,89.670,19.590,4.877,baseline
3027.000,540.600,81.300,17.340,3109.000,563.100,96.390,18.490,238.100,62.260,14.310,3.492,362.000,90.260,19.650,4.790,baseline
3014.000,538.400,80.210,16.770,3098.000,565.200,95.760,18.230,245.700,62.150,14.340,3.499,361.300,89.420,19.420,4.747,baseline
2967.000,528.500,79.660,16.670,3072.000,561.700,95.030,18.160,243.400,62.270,14.260,3.473,361.700,89.280,19.450,4.714,baseline
2971.000,533.300,80.520,16.700,3086.000,558.600,95.370,18.030,244.400,62.000,14.310,3.446,361.900,89.210,19.490,4.776,baseline
2991.000,535.300,79.270,16.770,3072.000,555.600,95.320,18.200,241.200,62.130,14.140,3.454,361.500,89.720,19.410,4.715,baseline
2970.000,533.900,79.400,17.010,3068.000,557.300,95.260,18.170,242.600,62.060,14.170,3.452,362.300,89.490,19.370,4.741,baseline
2958.000,529.500,80.330,16.770,3070.000,554.100,95.000,18.160,242.000,61.890,14.230,3.471,362.500,89.220,19.380,4.742,baseline
2970.000,531.300,79.910,16.900,3055.000,552.600,94.700,18.110,238.000,61.840,14.120,3.435,361.100,89.210,19.330,4.738,baseline
2973.000,532.400,80.600,16.870,3052.000,554.500,95.220,18.190,239.900,61.560,14.020,3.432,360.600,89.420,19.580,4.782,baseline
2947.000,528.300,80.730,16.900,3030.000,549.500,93.830,17.960,241.000,61.720,14.040,3.422,361.500,89.300,19.420,4.664,baseline
2934.000,524.400,79.100,16.500,3022.000,546.900,93.290,17.820,240.300,61.350,14.050,3.409,359.800,88.430,19.140,4.601,baseline
2927.000,526.200,77.700,16.510,3022.000,546.800,92.620,17.810,238.900,61.570,14.080,3.393,360.000,88.050,19.070,4.657,baseline
2915.000,522.900,78.850,16.560,3017.000,545.100,93.490,17.990,243.500,61.600,13.970,3.383,360.900,88.170,19.160,4.624,baseline
2920.000,516.200,77.770,16.380,3002.000,539.600,93.190,17.870,244.300,61.520,14.000,3.395,359.800,88.320,19.170,4.596,baseline
2925.000,518.100,78.020,16.490,3003.000,542.500,92.790,17.870,243.300,61.280,13.970,3.394,359.100,88.330,19.060,4.633,baseline
2916.000,518.300,78.230,16.480,2998.000,538.200,93.580,17.750,241.200,61.330,13.970,3.376,359.200,88.120,19.120,4.629,baseline
2903.000,521.200,79.250,16.740,2986.000,541.400,92.380,17.790,240.400,61.110,14.010,3.408,359.200,88.460,19.050,4.641,baseline
2895.000,520.900,78.390,16.640,2977.000,540.200,92.950,17.750,238.900,60.990,13.950,3.366,359.900,88.240,19.120,4.650,baseline
2908.000,518.800,79.110,16.690,2959.000,537.600,92.950,17.590,240.300,60.960,13.950,3.345,359.400,88.100,19.280,4.662,baseline
2892.000,513.900,77.910,16.380,2954.000,534.400,91.130,17.450,240.600,60.600,13.880,3.337,356.600,87.060,18.900,4.530,baseline
2852.000,509.700,77.100,16.280,2947.000,529.200,92.450,17.360,237.900,60.260,13.700,3.279,355.500,86.110,18.780,4.522,baseline
2854.000,510.600,76.010,16.070,2918.000,528.600,91.920,17.410,237.400,59.990,13.680,3.295,353.800,86.500,18.670,4.519,baseline
2829.000,509.300,76.230,16.180,2926.000,529.700,91.110,17.280,236.500,59.870,13.470,3.252,352.700,85.990,18.740,4.456,baseline
2834.000,503.900,76.800,16.110,2907.000,526.500,91.070,17.400,238.600,59.590,13.560,3.257,352.200,85.530,18.650,4.442,baseline
2834.000,507.600,77.140,16.150,2902.000,527.200,90.800,17.460,236.000,59.650,13.510,3.235,353.700,85.850,18.570,4.457,baseline
2840.000,503.600,76.430,16.330,2927.000,528.500,91.240,17.480,237.300,59.460,13.540,3.251,350.700,85.430,18.650,4.473,baseline
2844.000,507.600,77.330,16.410,2907.000,523.900,90.910,17.430,235.600,59.210,13.470,3.263,353.100,85.910,18.640,4.494,baseline
2839.000,507.200,76.900,16.580,2905.000,526.100,91.400,17.470,234.800,59.150,13.460,3.256,351.300,86.040,18.610,4.526,baseline
2871.000,510.300,76.860,16.580,2908.000,524.300,90.240,17.360,233.700,58.960,13.460,3.229,350.500,86.080,18.670,4.404,baseline
2817.000,507.000,75.130,16.170,2869.000,521.800,89.660,17.120,236.500,58.970,13.400,3.231,348.800,84.360,18.410,4.400,baseline
2792.000,502.700,76.140,15.970,2881.000,520.600,90.000,17.220,231.100,58.820,13.430,3.180,349.400,85.130,18.320,4.406,baseline
2787.000,504.100,75.510,16.070,2871.000,522.000,89.730,17.080,233.800,58.790,13.380,3.178,348.200,85.040,18.290,4.398,baseline
2801.000,502.100,76.550,16.010,2888.000,520.200,89.180,17.260,234.800,58.520,13.310,3.203,348.100,84.660,18.290,4.391,baseline
2831.000,501.000,75.910,16.050,2885.000,521.600,90.290,17.110,232.200,58.210,13.290,3.215,348.500,84.830,18.340,4.415,baseline
2806.000,500.800,76.770,16.260,2888.000,521.700,90.050,17.180,232.000,58.540,13.290,3.198,350.200,85.020,18.410,4.437,baseline
2825.000,509.200,75.990,16.310,2889.000,524.700,90.460,17.300,232.800,58.590,13.380,3.233,350.100,85.050,18.530,4.449,baseline
2819.000,504.700,77.600,16.560,2883.000,520.900,90.020,17.420,233.700,58.550,13.290,3.201,350.600,85.760,18.440,4.521,baseline
2826.000,505.700,76.840,16.140,2892.000,521.500,89.470,17.110,234.100,58.930,13.380,3.210,349.700,84.760,18.320,4.392,baseline
2812.000,497.000,76.500,15.960,2882.000,520.400,88.690,17.100,232.000,58.350,13.220,3.181,348.700,84.750,18.370,4.370,baseline
2817.000,506.900,76.590,16.200,2861.000,522.900,90.230,17.160,230.200,57.850,13.170,3.157,345.200,84.630,18.240,4.407,hard
2818.000,505.000,75.960,16.220,2876.000,521.600,89.170,17.050,231.100,57.950,13.150,3.147,344.700,84.220,18.170,4.333,hard
2811.000,498.100,74.430,15.780,2865.000,518.500,89.350,17.010,228.400,57.600,13.110,3.156,342.300,83.620,17.950,4.307,hard
2785.000,496.200,75.180,15.740,2871.000,517.400,89.190,16.890,232.100,57.640,13.060,3.118,341.900,83.680,17.860,4.322,hard
2802.000,495.600,75.120,16.080,2878.000,519.100,88.660,16.860,228.100,57.380,12.990,3.133,342.600,83.520,17.940,4.303,hard
2771.000,496.800,74.820,15.940,2849.000,517.600,88.330,17.000,228.000,57.350,12.990,3.148,340.400,83.660,17.980,4.305,hard
2802.000,497.300,74.830,15.950,2844.000,517.700,89.010,17.060,228.900,57.340,13.090,3.119,339.900,83.580,18.100,4.309,hard
2770.000,498.300,74.150,15.910,2880.000,517.000,88.970,16.970,226.200,57.400,12.960,3.113,341.300,83.670,18.020,4.346,hard
2795.000,499.300,75.330,15.990,2878.000,519.700,89.390,17.110,227.900,57.210,13.040,3.151,341.400,83.370,18.040,4.384,hard
2782.000,501.300,76.010,16.180,2887.000,524.500,89.720,17.210,229.900,57.190,13.020,3.139,341.400,83.620,18.160,4.381,hard
2825.000,504.500,76.640,16.060,2869.000,520.800,89.430,17.060,227.200,57.310,13.000,3.141,342.200,83.980,18.070,4.309,hard
2800.000,502.100,75.950,15.750,2859.000,522.800,88.640,16.900,227.000,57.490,13.030,3.106,338.900,83.210,17.880,4.280,hard
2798.000,499.100,74.490,15.750,2866.000,515.900,88.550,16.840,227.100,56.920,12.980,3.117,337.800,82.370,17.910,4.271,hard
2775.000,494.500,74.160,15.670,2855.000,518.400,88.790,16.880,225.500,56.910,12.950,3.101,337.800,82.760,17.830,4.326,hard
2779.000,494.200,74.700,15.570,2867.000,520.700,88.260,16.950,227.800,56.880,12.920,3.101,337.100,82.710,17.880,4.287,hard
2792.000,498.200,74.360,15.870,2862.000,520.500,89.050,17.000,225.700,56.880,12.890,3.100,337.600,83.050,17.700,4.289,hard
2769.000,496.600,75.220,15.780,2864.000,519.300,89.090,17.000,227.600,56.900,13.000,3.130,337.300,82.590,17.840,4.309,hard
2776.000,499.700,75.270,15.960,2893.000,520.000,88.440,17.030,225.600,57.050,13.040,3.097,338.400,82.780,18.080,4.305,hard
2792.000,499.900,75.270,16.170,2884.000,520.700,89.260,17.070,227.700,57.200,12.980,3.107,338.800,83.440,18.060,4.365,hard
2810.000,503.300,75.800,15.920,2895.000,520.400,88.680,16.880,227.900,57.030,13.090,3.136,339.600,83.060,17.960,4.300,hard
2778.000,498.400,74.200,15.650,2879.000,521.100,88.070,16.820,227.700,57.120,13.000,3.113,336.900,82.720,17.880,4.263,hard
2766.000,497.300,74.370,15.320,2861.000,517.900,88.600,16.850,226.700,56.900,13.010,3.114,335.700,82.310,17.740,4.304,hard
2762.000,496.800,74.390,15.690,2872.000,516.200,88.340,16.780,227.500,56.930,12.930,3.138,335.500,82.550,17.850,4.249,hard
2773.000,489.100,73.820,15.670,2870.000,518.600,88.070,16.860,228.100,56.920,12.890,3.103,337.100,82.090,17.850,4.279,hard
2757.000,490.700,74.390,15.720,2856.000,515.800,88.070,16.880,228.200,57.130,12.970,3.106,335.500,82.520,17.840,4.281,hard
2760.000,492.000,74.710,15.570,2848.000,517.700,88.570,16.950,225.400,56.860,12.950,3.100,336.000,82.170,17.810,4.285,hard
2766.000,491.000,74.240,15.630,2874.000,518.100,88.550,16.970,227.200,57.010,12.990,3.131,335.900,82.370,17.940,4.313,hard
2773.000,500.300,74.060,15.730,2877.000,517.300,88.710,16.850,226.000,57.090,12.990,3.112,337.600,82.960,18.190,4.399,hard
2772.000,495.300,73.930,15.510,2871.000,515.100,87.800,16.620,226.900,57.260,12.990,3.091,336.400,82.400,17.810,4.240,hard
2755.000,488.900,73.470,15.380,2874.000,514.800,87.980,16.710,226.100,56.970,13.010,3.104,334.000,82.000,17.640,4.263,hard
2755.000,486.200,72.980,15.260,2844.000,514.600,87.820,16.660,224.200,56.770,13.060,3.112,336.400,81.850,17.600,4.232,hard
2729.000,486.700,73.110,15.280,2844.000,513.800,87.590,16.650,225.000,57.080,12.910,3.098,334.200,82.300,17.670,4.211,hard
2725.000,488.900,72.500,15.320,2859.000,512.700,88.010,16.690,228.700,56.980,13.010,3.129,332.400,81.720,17.730,4.223,hard
2749.000,486.300,73.270,15.270,2861.000,513.200,87.400,16.830,227.400,57.100,12.910,3.107,335.400,82.350,17.640,4.287,hard
2746.000,489.400,73.830,15.460,2862.000,515.000,88.930,16.820,228.900,56.810,12.920,3.146,334.600,81.990,17.730,4.287,hard
2775.000,489.000,73.080,15.590,2872.000,516.700,88.680,16.850,229.200,57.020,12.940,3.126,337.000,82.930,17.900,4.285,hard
2772.000,491.800,73.680,15.540,2860.000,518.000,88.420,16.850,226.600,57.320,12.990,3.111,337.100,82.580,17.840,4.269,hard
2764.000,489.600,72.400,15.080,2856.000,513.700,87.430,16.780,228.900,56.980,13.020,3.090,334.100,81.810,17.610,4.162,hard
2743.000,486.000,72.510,15.180,2857.000,512.700,87.780,16.720,226.100,57.100,13.000,3.116,333.500,82.070,17.580,4.201,hard
2745.000,489.600,73.070,15.220,2851.000,517.900,87.800,16.680,226.700,57.010,12.960,3.109,332.900,82.220,17.740,4.205,hard
2724.000,485.400,72.590,15.370,2870.000,512.400,88.030,16.600,225.900,57.210,12.990,3.131,332.900,81.540,17.630,4.251,hard
2735.000,486.200,72.410,15.340,2862.000,512.600,88.260,16.770,227.700,57.330,12.910,3.101,333.900,82.180,17.740,4.210,hard
2736.000,486.700,73.280,15.460,2857.000,517.700,88.030,16.670,228.100,57.080,13.010,3.133,334.400,81.970,17.800,4.261,hard
2752.000,491.600,72.880,15.520,2862.000,515.200,88.400,16.830,226.800,57.230,13.070,3.146,335.400,82.410,17.840,4.280,hard
2764.000,493.500,73.390,15.720,2871.000,519.600,88.850,16.850,227.200,57.360,12.950,3.113,337.100,82.400,17.870,4.346,hard
2759.000,496.300,73.990,15.460,2869.000,519.500,87.950,16.710,229.700,57.200,13.050,3.115,335.900,82.270,17.720,4.165,hard
2741.000,490.700,72.930,15.140,2873.000,517.700,87.870,16.630,228.600,57.020,12.990,3.118,332.400,81.500,17.680,4.211,hard
2755.000,490.900,73.090,15.330,2866.000,519.200,88.160,16.850,226.600,57.370,12.990,3.134,333.800,81.740,17.630,4.244,hard
2776.000,492.500,73.290,15.430,2862.000,518.600,87.960,16.760,226.500,57.050,13.030,3.135,333.100,81.760,17.760,4.238,hard
2758.000,490.700,73.360,15.400,2860.000,519.000,88.420,16.770,228.400,57.130,13.010,3.139,333.900,82.290,17.800,4.243,hard
2784.000,497.400,73.500,15.580,2896.000,519.700,89.160,17.050,226.100,57.250,13.060,3.115,335.300,82.440,17.890,4.309,hard
2758.000,498.900,73.920,15.770,2912.000,523.200,89.660,17.030,227.100,57.310,13.150,3.143,335.400,82.550,17.810,4.299,hard
2823.000,498.600,74.680,15.700,2904.000,526.300,89.560,17.110,225.900,57.380,13.130,3.142,336.200,83.110,18.020,4.319,hard
2778.000,497.000,74.120,15.530,2884.000,518.700,88.900,16.880,229.600,57.560,13.070,3.128,335.200,82.400,17.820,4.229,hard
2771.000,495.900,73.920,15.300,2875.000,523.700,88.900,16.830,228.800,57.410,13.090,3.167,334.500,82.330,17.710,4.231,hard
2787.000,493.700,73.680,15.520,2877.000,522.500,89.040,16.930,228.000,57.280,13.140,3.134,335.900,82.050,17.700,4.252,hard
2785.000,497.800,73.960,15.440,2895.000,525.000,89.620,16.980,227.600,57.400,13.060,3.151,336.400,82.120,17.800,4.281,hard
2776.000,491.100,74.650,15.440,2881.000,526.200,89.710,17.020,228.000,57.660,13.090,3.163,335.300,82.480,17.840,4.304,hard
2778.000,496.000,74.170,15.520,2905.000,525.500,90.200,16.970,225.500,57.440,13.140,3.126,336.600,82.510,17.890,4.278,hard
2778.000,501.200,74.730,15.790,2898.000,527.700,90.320,17.220,228.100,57.530,13.160,3.161,336.600,83.150,18.180,4.320,hard
2790.000,501.000,75.410,15.670,2913.000,531.800,90.430,17.210,228.300,57.760,13.220,3.178,338.300,83.380,17.980,4.375,hard
2802.000,502.300,75.060,15.690,2920.000,528.800,90.200,16.950,228.000,57.670,13.170,3.141,338.600,82.860,17.830,4.334,hard
2807.000,499.100,73.820,15.380,2917.000,527.400,90.180,17.060,226.900,57.850,13.140,3.145,336.500,82.810,17.920,4.227,hard
2795.000,499.800,74.580,15.530,2897.000,526.300,89.980,17.060,228.600,57.690,13.250,3.172,336.900,82.920,17.900,4.285,hard
2793.000,496.500,74.360,15.810,2916.000,529.000,91.420,17.150,227.800,57.820,13.180,3.174,337.000,82.840,17.850,4.329,hard
2817.000,503.700,74.870,15.560,2910.000,527.800,90.620,17.250,228.300,58.100,13.180,3.191,336.700,83.180,17.970,4.281,hard
2814.000,501.900,74.580,15.680,2935.000,529.200,90.690,17.300,231.400,57.710,13.230,3.174,339.400,83.210,18.040,4.356,hard
2833.000,505.300,75.330,15.640,2941.000,532.300,91.150,17.440,230.300,57.920,13.230,3.193,338.800,83.320,18.220,4.314,hard
2826.000,504.000,76.730,15.950,2931.000,531.600,90.960,17.370,228.600,57.840,13.280,3.206,340.100,83.830,18.290,4.358,hard
2823.000,511.600,76.010,15.930,2941.000,532.700,91.410,17.380,228.000,58.050,13.230,3.204,341.000,84.260,18.300,4.444,hard
2850.000,506.800,75.960,15.960,2932.000,531.200,90.380,17.290,229.300,58.230,13.230,3.207,339.800,83.650,17.990,4.308,hard
2834.000,503.800,76.020,15.680,2948.000,528.500,90.690,17.210,229.600,57.680,13.260,3.165,339.400,83.830,18.180,4.325,hard
2820.000,507.700,75.570,15.920,2930.000,533.400,91.130,17.250,230.800,57.900,13.240,3.194,340.600,83.940,18.180,4.361,hard
2853.000,511.600,75.930,15.670,2946.000,531.900,91.520,17.310,230.300,58.040,13.270,3.167,339.600,84.000,18.060,4.374,hard
2855.000,507.000,75.720,15.950,2939.000,536.000,91.300,17.340,232.200,58.040,13.290,3.171,340.600,84.440,18.100,4.356,hard
2838.000,513.400,76.480,15.850,2943.000,535.000,91.420,17.440,230.500,58.340,13.350,3.182,342.400,84.510,18.250,4.391,hard
2833.000,509.700,76.040,16.260,2952.000,536.500,92.360,17.460,230.400,58.430,13.360,3.207,342.700,84.190,18.310,4.388,hard
2852.000,517.300,76.250,16.150,2953.000,535.800,92.280,17.540,232.100,58.370,13.270,3.192,344.200,85.160,18.430,4.424,hard
2891.000,516.400,77.400,16.260,2945.000,538.400,92.660,17.620,230.500,58.560,13.390,3.213,345.700,85.110,18.510,4.423,hard
2862.000,515.100,77.270,16.010,2962.000,536.500,92.030,17.470,230.700,58.430,13.270,3.187,343.900,84.440,18.280,4.361,hard
2861.000,514.200,76.060,16.240,2953.000,538.700,91.610,17.410,231.900,58.320,13.330,3.210,344.600,84.480,18.220,4.373,hard
2855.000,513.000,76.540,16.040,2961.000,536.300,91.750,17.560,229.600,58.520,13.330,3.199,344.600,85.250,18.400,4.429,hard
2874.000,514.400,76.720,16.140,2953.000,538.200,91.970,17.350,231.000,58.410,13.370,3.201,345.900,85.190,18.340,4.385,hard
2876.000,513.800,77.460,16.350,2935.000,536.300,93.170,17.560,231.600,58.530,13.330,3.236,345.900,85.180,18.330,4.383,hard
2896.000,517.300,77.740,16.400,2966.000,538.800,93.100,17.540,232.600,58.820,13.410,3.232,347.100,85.610,18.610,4.449,hard
2865.000,520.200,78.280,16.440,2979.000,541.100,92.370,17.810,233.400,58.720,13.440,3.209,348.400,86.230,18.590,4.501,hard
2893.000,521.300,79.050,16.670,2975.000,541.100,92.840,17.770,234.600,58.810,13.440,3.245,350.500,86.290,18.640,4.524,hard
2923.000,526.100,78.850,16.530,2970.000,540.200,93.490,17.730,235.500,58.900,13.450,3.242,350.100,86.200,18.730,4.484,hard
2903.000,515.400,77.910,16.390,2972.000,543.300,93.160,17.700,234.300,58.770,13.510,3.248,347.500,85.590,18.490,4.458,hard
2880.000,518.200,77.770,16.290,2979.000,541.100,92.360,17.660,233.600,58.950,13.510,3.245,348.700,85.750,18.490,4.461,hard
2899.000,520.800,77.610,16.330,2993.000,538.700,93.240,17.500,233.000,58.940,13.500,3.250,349.400,85.800,18.590,4.477,hard
2899.000,517.900,78.090,16.450,2972.000,541.200,93.260,17.630,235.500,58.930,13.420,3.275,349.900,85.800,18.660,4.486,hard
2903.000,519.100,78.860,16.610,2972.000,539.200,93.150,17.670,235.900,58.920,13.510,3.244,351.100,86.800,18.620,4.516,hard
2886.000,520.000,79.730,16.400,3002.000,539.400,93.160,17.680,234.200,59.020,13.480,3.251,351.500,86.670,18.790,4.509,hard
2918.000,523.800,79.250,16.770,2980.000,542.300,93.930,17.750,236.100,59.070,13.440,3.244,353.000,86.770,18.980,4.574,hard
2934.000,526.500,79.360,16.870,2979.000,544.600,93.520,17.830,235.600,59.100,13.620,3.268,354.100,86.950,18.920,4.577,hard
2945.000,529.300,79.970,16.860,2977.000,546.100,94.660,17.830,237.800,59.170,13.570,3.307,353.400,87.120,18.820,4.495,hard
2923.000,521.700,79.460,16.330,2955.000,539.700,93.880,17.740,232.200,59.210,13.490,3.248,353.200,86.690,18.760,4.512,hard
2908.000,520.600,79.890,16.440,2965.000,539.200,92.850,17.610,238.000,59.270,13.470,3.228,352.300,86.100,18.680,4.501,hard
2910.000,519.600,79.280,16.630,2980.000,539.300,92.250,17.570,236.700,59.220,13.570,3.278,352.900,86.790,18.810,4.532,hard
2895.000,522.100,79.360,16.530,2964.000,539.900,93.060,17.670,235.100,59.260,13.550,3.278,353.500,86.930,18.890,4.549,hard
2899.000,523.200,79.350,16.600,2971.000,542.100,93.220,17.720,232.800,59.230,13.490,3.254,353.200,87.230,18.730,4.560,hard
2907.000,518.400,79.540,16.700,2984.000,542.300,92.900,17.900,236.100,59.270,13.520,3.231,353.400,86.880,18.920,4.562,hard
2934.000,522.000,79.880,16.820,2966.000,543.800,93.550,17.760,234.900,59.260,13.430,3.266,354.700,87.850,18.880,4.601,hard
2927.000,528.200,79.910,16.820,2989.000,544.800,94.420,17.840,233.100,59.220,13.490,3.272,355.100,87.570,18.880,4.648,hard
2921.000,525.700,81.240,17.070,2971.000,543.000,93.190,17.780,233.200,59.380,13.630,3.295,357.100,87.950,19.020,4.614,hard
2908.000,527.100,79.900,16.640,2992.000,542.400,92.770,17.630,237.000,59.150,13.590,3.254,354.400,87.160,18.820,4.532,hard
2912.000,524.100,78.320,16.400,2975.000,540.300,93.250,17.750,233.100,59.080,13.550,3.237,354.700,86.560,18.760,4.613,hard
2906.000,520.000,78.540,16.520,2961.000,543.700,92.710,17.770,235.500,59.190,13.510,3.269,354.600,86.940,18.870,4.572,hard
2897.000,522.200,78.980,16.610,2973.000,539.400,92.890,17.660,235.200,59.000,13.470,3.229,355.300,87.380,18.820,4.554,hard
2883.000,520.700,78.490,16.640,2977.000,540.600,92.420,17.720,233.100,59.260,13.450,3.257,354.600,87.510,18.760,4.556,hard
2906.000,523.700,79.710,16.590,2963.000,538.100,92.570,17.740,237.100,58.830,13.520,3.251,354.300,87.280,18.920,4.576,hard
2916.000,520.300,79.770,16.860,2966.000,539.900,93.850,17.800,234.300,59.210,13.490,3.269,354.400,87.490,19.050,4.600,hard
2907.000,528.000,79.930,16.800,2959.000,541.600,93.600,17.790,234.200,59.110,13.490,3.249,355.900,87.760,19.140,4.613,hard
2909.000,523.400,80.180,16.810,2958.000,539.400,93.130,17.540,233.600,59.140,13.450,3.264,355.000,86.980,19.070,4.557,hard
2892.000,517.700,77.700,16.570,2962.000,538.300,93.020,17.650,232.600,59.060,13.440,3.244,353.800,86.300,18.790,4.525,hard
2874.000,515.700,78.800,16.690,2942.000,535.500,92.200,17.490,231.600,58.960,13.490,3.272,353.400,86.600,18.930,4.589,hard
2877.000,518.200,79.230,16.570,2945.000,533.300,92.050,17.590,233.600,59.090,13.480,3.268,352.900,87.020,18.880,4.587,hard
2864.000,516.800,78.750,16.590,2935.000,535.800,92.620,17.600,233.400,58.860,13.500,3.241,352.300,86.730,18.810,4.598,hard
2872.000,518.900,78.440,16.420,2963.000,536.500,92.860,17.530,232.600,59.120,13.440,3.269,353.700,87.380,18.910,4.572,hard
2874.000,519.500,79.200,16.480,2952.000,533.800,92.400,17.680,234.600,59.060,13.420,3.249,352.800,86.930,18.980,4.618,hard
2885.000,517.900,78.940,16.940,2969.000,537.100,92.680,17.610,235.600,58.930,13.440,3.256,355.300,87.410,18.970,4.632,hard
2883.000,517.800,79.620,16.920,2962.000,537.300,92.880,17.670,233.300,59.070,13.490,3.287,356.200,87.630,19.010,4.631,hard
2878.000,516.200,78.480,16.520,2948.000,535.000,91.440,17.430,233.400,59.060,13.500,3.221,355.000,87.210,18.770,4.523,hard
2867.000,510.800,78.010,16.440,2936.000,532.700,91.440,17.480,236.100,58.840,13.470,3.231,353.100,86.890,18.840,4.576,hard
2848.000,511.700,77.250,16.500,2936.000,531.500,91.450,17.360,233.400,58.850,13.470,3.247,352.400,86.800,18.820,4.548,hard
2847.000,513.800,77.730,16.360,2930.000,531.500,90.830,17.420,232.500,58.930,13.420,3.272,352.900,86.970,18.850,4.564,hard
2844.000,508.600,78.040,16.540,2919.000,531.500,90.800,17.460,234.200,58.940,13.500,3.254,352.600,86.880,18.700,4.542,hard
2838.000,516.200,78.400,16.460,2942.000,529.800,92.100,17.580,236.400,58.900,13.490,3.219,352.400,87.270,18.800,4.593,hard
2863.000,516.200,78.290,16.480,2947.000,533.400,91.290,17.560,229.500,58.880,13.480,3.229,352.300,86.960,18.930,4.554,hard
2886.000,512.800,78.110,16.640,2933.000,530.000,92.250,17.530,232.000,58.780,13.480,3.241,351.900,87.160,18.870,4.658,hard
2888.000,520.300,79.170,16.820,2932.000,532.600,91.840,17.520,234.300,58.880,13.460,3.273,354.700,87.460,19.070,4.656,hard
2873.000,514.800,78.180,16.340,2928.000,528.600,90.990,17.240,232.400,59.000,13.430,3.231,352.700,87.090,18.740,4.539,hard
2843.000,510.300,77.250,16.320,2925.000,531.800,91.470,17.370,234.400,58.800,13.450,3.246,351.100,86.600,18.720,4.558,hard
2842.000,512.000,78.250,16.480,2931.000,532.900,92.030,17.560,234.200,58.840,13.470,3.253,351.700,86.650,18.770,4.560,hard
2847.000,520.800,77.620,16.220,2949.000,532.100,90.970,17.460,234.400,58.840,13.410,3.247,351.400,86.440,18.760,4.560,hard
2858.000,517.400,78.390,16.510,2944.000,532.100,91.770,17.540,233.500,58.790,13.400,3.238,351.800,86.690,18.870,4.563,hard
2856.000,513.600,77.950,16.410,2923.000,536.200,92.250,17.660,234.100,58.720,13.360,3.254,352.600,86.910,18.950,4.580,hard
2868.000,518.000,78.530,16.560,2935.000,535.900,91.730,17.640,232.200,58.940,13.360,3.267,352.600,86.750,18.950,4.597,hard
2862.000,514.800,78.710,16.750,2955.000,535.300,92.150,17.700,231.700,58.650,13.370,3.272,352.600,86.560,18.970,4.648,hard
2893.000,520.900,79.220,16.820,2950.000,535.200,92.890,17.690,232.400,58.810,13.510,3.289,352.200,86.790,18.970,4.599,hard
2879.000,512.800,77.750,16.510,2955.000,533.300,91.820,17.620,233.200,58.450,13.400,3.255,350.900,86.290,18.680,4.566,hard
2866.000,513.000,78.350,16.450,2958.000,533.800,91.990,17.560,233.100,58.860,13.380,3.235,349.900,86.450,18.790,4.584,hard
2865.000,513.000,78.920,16.710,2938.000,530.500,92.490,17.690,232.300,58.270,13.350,3.237,350.000,86.320,18.900,4.599,hard
2869.000,517.700,79.180,16.580,2935.000,534.800,92.290,17.740,231.700,58.540,13.350,3.242,350.700,86.340,18.880,4.585,hard
2871.000,515.300,78.490,16.680,2949.000,535.100,93.230,17.710,230.700,58.520,13.360,3.243,350.600,85.970,18.730,4.577,hard
2884.000,514.300,79.360,16.690,2957.000,536.700,92.990,17.800,233.000,58.430,13.320,3.252,351.300,86.880,18.760,4.638,hard
2866.000,519.500,79.250,16.600,2959.000,538.400,93.240,17.860,232.100,58.420,13.310,3.272,350.900,86.410,18.840,4.629,hard
2887.000,518.900,79.850,16.840,2956.000,535.600,93.270,17.910,232.800,58.390,13.340,3.250,351.600,86.930,18.770,4.633,hard
2889.000,520.100,78.060,16.640,2945.000,534.700,92.740,17.690,233.200,58.300,13.420,3.254,351.100,86.430,18.650,4.585,hard
2880.000,512.100,78.640,16.760,2947.000,535.000,91.630,17.600,232.600,58.190,13.380,3.245,349.400,86.120,18.800,4.614,hard
2863.000,515.300,78.910,16.710,2939.000,533.200,92.160,17.780,233.200,58.350,13.360,3.274,349.600,86.460,18.800,4.605,hard
2865.000,514.600,79.160,16.700,2955.000,533.300,92.570,17.840,231.500,58.410,13.330,3.242,350.200,86.050,18.900,4.622,hard
2869.000,516.700,79.200,16.800,2959.000,536.800,92.930,17.780,230.400,58.080,13.340,3.241,351.000,86.400,18.860,4.618,hard
2888.000,517.700,79.170,16.820,2958.000,534.500,92.630,17.700,230.500,58.280,13.280,3.251,350.900,86.850,18.830,4.687,hard
2891.000,523.700,79.880,16.760,2949.000,534.600,93.230,17.970,231.200,58.080,13.320,3.260,352.300,86.760,19.010,4.669,hard
2905.000,525.400,79.990,16.970,2954.000,538.200,93.160,17.730,233.100,58.340,13.320,3.291,352.200,86.670,18.930,4.569,hard
2880.000,515.500,78.610,16.600,2947.000,532.500,92.510,17.790,233.900,58.250,13.260,3.235,351.400,86.080,18.830,4.608,hard
2855.000,521.400,78.560,16.570,2944.000,534.600,92.890,17.720,231.300,58.310,13.230,3.234,349.300,85.950,18.670,4.604,hard
2872.000,518.300,79.480,16.690,2966.000,534.500,92.600,17.760,232.800,58.200,13.350,3.229,349.900,85.930,18.760,4.566,hard
2875.000,512.000,79.340,16.710,2955.000,533.000,92.450,17.780,231.900,58.070,13.270,3.250,348.700,85.860,18.700,4.630,hard
2867.000,520.000,78.780,16.760,2952.000,535.400,92.680,17.880,231.800,58.280,13.310,3.270,352.500,86.270,18.820,4.659,hard
2870.000,520.600,79.370,16.750,2976.000,534.600,93.260,17.830,231.100,58.330,13.360,3.296,351.000,86.300,18.890,4.698,hard
2907.000,517.300,79.180,17.000,2951.000,535.500,93.120,17.890,232.000,58.410,13.300,3.268,352.100,86.430,18.940,4.621,hard
2899.000,520.400,80.170,16.860,2967.000,537.400,93.440,17.880,233.000,58.190,13.390,3.275,352.000,86.760,18.900,4.667,hard
2885.000,517.200,78.740,16.680,2946.000,532.700,92.440,17.860,232.000,58.120,13.350,3.251,351.200,85.640,18.670,4.634,hard
2864.000,511.700,79.340,16.470,2966.000,533.800,92.380,17.790,230.200,58.120,13.390,3.252,349.900,86.070,18.750,4.605,hard
2848.000,513.200,77.960,16.590,2948.000,533.800,92.180,17.770,232.500,58.100,13.250,3.248,349.900,86.350,18.730,4.610,hard
2874.000,514.900,78.680,16.660,2935.000,533.900,92.110,17.740,230.600,58.080,13.270,3.268,349.500,86.060,18.720,4.654,hard
2906.000,516.400,78.910,16.720,2940.000,534.500,93.090,17.700,231.400,57.900,13.280,3.267,349.600,86.110,18.710,4.651,hard
2880.000,518.600,78.930,16.690,2940.000,535.700,92.590,17.770,229.100,58.040,13.320,3.262,349.800,86.350,18.640,4.657,hard
2882.000,521.300,79.410,16.780,2940.000,538.200,92.840,17.870,232.300,58.210,13.260,3.237,351.900,86.120,18.850,4.695,hard
2874.000,521.300,79.840,16.910,2940.000,534.600,92.790,17.890,230.900,58.230,13.310,3.201,350.600,86.510,19.010,4.647,hard
2878.000,519.800,78.950,16.620,2946.000,534.400,92.110,17.650,229.100,58.170,13.310,3.230,349.100,85.820,18.550,4.573,hard
2879.000,513.600,78.260,16.720,2934.000,532.100,92.300,17.720,228.800,57.760,13.120,3.217,346.800,85.440,18.630,4.580,hard
2856.000,513.100,79.390,16.710,2943.000,527.900,93.320,17.920,232.900,57.750,13.210,3.231,347.900,85.390,18.730,4.601,hard
2848.000,512.900,78.510,16.650,2939.000,532.200,92.250,17.770,229.700,57.630,13.190,3.235,347.200,86.020,18.650,4.626,hard
2860.000,516.500,79.550,16.620,2932.000,529.800,92.220,17.700,230.000,57.770,13.190,3.207,346.900,85.640,18.700,4.624,hard
2868.000,515.000,78.560,16.800,2921.000,533.900,92.360,17.850,229.400,57.390,13.250,3.224,347.500,85.650,18.770,4.617,hard
2869.000,515.400,79.680,16.780,2942.000,531.700,92.240,17.800,230.600,57.500,13.180,3.240,347.600,85.710,18.630,4.587,hard
2872.000,518.800,79.320,16.760,2926.000,528.100,91.730,17.730,230.000,57.610,13.190,3.242,349.600,85.310,18.800,4.632,hard
2870.000,512.200,78.170,16.630,2922.000,532.000,91.130,17.630,230.800,57.800,13.160,3.202,346.800,85.110,18.530,4.586,hard
2837.000,510.900,77.920,16.400,2925.000,527.100,92.450,17.670,229.800,57.530,13.220,3.226,345.600,84.930,18.500,4.506,hard
2857.000,509.000,77.480,16.440,2924.000,526.400,91.890,17.500,230.200,57.600,13.220,3.205,345.700,84.950,18.500,4.573,hard
2853.000,513.100,78.330,16.530,2920.000,525.400,90.950,17.720,232.200,57.410,13.130,3.196,344.900,84.970,18.570,4.592,hard
2833.000,505.300,77.960,16.530,2912.000,529.500,91.890,17.880,230.600,57.700,13.160,3.213,345.200,85.090,18.650,4.617,hard
2831.000,509.100,78.680,16.710,2925.000,527.000,90.970,17.660,228.500,57.590,13.200,3.181,346.800,85.250,18.530,4.590,hard
2849.000,514.000,78.560,16.780,2922.000,525.500,91.480,17.740,228.900,57.480,13.150,3.228,346.200,85.120,18.650,4.655,hard
2863.000,511.400,79.360,16.520,2936.000,529.900,91.400,17.570,228.200,57.500,13.250,3.229,347.300,85.520,18.410,4.570,hard
2824.000,510.700,77.710,16.410,2909.000,526.100,90.270,17.510,228.200,57.340,13.000,3.219,344.700,84.880,18.340,4.543,hard
2837.000,507.700,77.620,16.230,2895.000,521.800,91.080,17.450,228.500,57.630,13.110,3.182,343.900,84.430,18.300,4.527,hard
2811.000,506.800,76.540,16.160,2900.000,525.200,90.870,17.410,227.100,57.490,13.120,3.191,343.900,84.900,18.350,4.583,hard
2807.000,505.400,76.330,16.160,2910.000,525.100,91.310,17.530,229.200,57.640,13.240,3.197,343.900,84.800,18.480,4.554,hard
2801.000,507.200,77.700,16.410,2904.000,525.000,90.940,17.430,227.700,57.660,13.200,3.210,344.600,84.470,18.470,4.534,hard
2810.000,501.800,76.950,16.490,2916.000,524.600,90.780,17.630,229.700,57.570,13.180,3.243,345.000,84.660,18.570,4.558,hard
2830.000,507.500,77.450,16.590,2905.000,525.800,91.220,17.710,228.800,57.780,13.270,3.214,346.000,85.000,18.590,4.597,hard
2834.000,510.600,78.690,16.510,2929.000,521.900,90.860,17.610,230.900,57.670,13.230,3.226,345.600,85.040,18.560,4.612,hard
2839.000,505.200,76.840,16.280,2897.000,522.000,90.880,17.480,233.900,57.670,13.200,3.211,344.300,84.000,18.450,4.549,hard
2809.000,500.900,76.310,16.110,2902.000,525.200,90.500,17.440,230.600,57.530,13.250,3.233,344.300,84.530,18.360,4.520,hard
2799.000,501.700,76.090,16.400,2880.000,521.900,91.280,17.460,229.300,57.700,13.200,3.222,343.900,84.510,18.520,4.529,hard
2815.000,501.800,76.630,16.210,2901.000,526.100,90.690,17.450,230.400,57.860,13.230,3.222,343.500,84.420,18.330,4.505,hard
2804.000,498.100,77.170,16.230,2891.000,524.100,90.720,17.590,229.400,57.590,13.200,3.241,344.300,84.620,18.600,4.532,hard
2824.000,509.300,77.270,16.460,2891.000,523.200,90.800,17.600,230.100,57.870,13.280,3.228,344.600,84.950,18.560,4.570,hard
2807.000,501.900,77.460,16.470,2897.000,523.700,91.670,17.620,230.400,57.670,13.270,3.227,344.400,84.770,18.500,4.549,hard
2843.000,509.500,77.740,16.650,2892.000,526.100,91.540,17.670,231.000,57.600,13.300,3.228,346.600,85.260,18.600,4.706,hard
2820.000,508.900,78.270,16.620,2889.000,526.200,91.190,17.620,231.200,57.620,13.230,3.273,345.100,85.140,18.570,4.559,hard
2823.000,503.200,76.040,16.200,2903.000,528.000,90.250,17.560,231.000,57.630,13.270,3.240,342.900,84.690,18.420,4.514,hard
2801.000,503.100,76.930,16.160,2886.000,522.000,91.150,17.540,229.600,57.640,13.280,3.239,343.600,83.960,18.400,4.522,hard
2776.000,501.000,76.220,16.270,2893.000,524.800,90.500,17.450,231.600,57.610,13.190,3.238,344.700,84.840,18.470,4.580,hard
2807.000,505.400,77.170,16.250,2900.000,524.300,90.670,17.480,231.400,57.680,13.170,3.246,344.100,84.540,18.510,4.556,hard
2816.000,502.700,76.970,16.410,2887.000,525.700,90.250,17.600,230.100,57.590,13.210,3.246,344.800,84.660,18.410,4.546,hard
2828.000,501.900,76.670,16.410,2906.000,524.400,91.250,17.500,231.500,57.550,13.310,3.254,344.800,84.800,18.500,4.572,hard
2813.000,504.900,77.270,16.630,2903.000,527.000,91.990,17.620,230.800,57.940,13.310,3.223,346.700,85.180,18.610,4.611,hard
2819.000,508.100,77.940,16.780,2893.000,525.700,91.410,17.520,229.100,57.830,13.390,3.245,346.200,85.260,18.350,4.573,hard
2831.000,504.200,76.780,16.180,2893.000,526.000,90.870,17.490,231.900,58.030,13.280,3.248,344.400,84.320,18.600,4.522,hard
2805.000,502.700,76.280,16.050,2912.000,523.900,91.170,17.590,228.400,57.720,13.240,3.241,343.600,84.300,18.440,4.552,hard
2804.000,499.900,76.850,16.320,2915.000,527.300,91.220,17.460,229.500,57.760,13.330,3.230,346.000,85.330,18.570,4.600,hard
2818.000,503.700,77.040,16.230,2906.000,526.100,91.230,17.630,229.300,57.850,13.290,3.243,345.900,84.560,18.510,4.543,hard
2816.000,506.400,76.860,16.230,2898.000,526.600,90.840,17.740,232.800,57.580,13.330,3.233,346.300,85.240,18.580,4.584,hard
2831.000,506.900,77.640,16.390,2906.000,526.600,91.760,17.880,230.900,57.990,13.310,3.295,346.500,85.600,18.660,4.619,hard
2836.000,507.600,77.940,16.610,2898.000,525.500,92.060,17.670,229.500,57.870,13.320,3.268,346.300,85.130,18.840,4.639,hard
2835.000,507.300,77.830,16.490,2914.000,528.600,91.010,17.600,232.400,58.290,13.350,3.266,347.400,85.350,18.560,4.588,hard
2834.000,503.100,76.860,16.280,2911.000,523.500,91.770,17.610,231.600,58.070,13.300,3.242,345.700,84.840,18.590,4.559,hard
2818.000,502.300,76.560,16.410,2917.000,525.900,90.840,17.520,229.500,58.140,13.320,3.256,345.700,84.980,18.570,4.594,hard
2799.000,501.500,77.280,16.190,2894.000,525.300,91.450,17.620,232.200,58.160,13.310,3.239,346.800,85.180,18.690,4.571,hard
2832.000,504.000,76.590,16.310,2939.000,527.000,92.220,17.660,231.500,58.000,13.340,3.275,345.800,84.990,18.470,4.613,hard
2823.000,504.700,77.690,16.190,2904.000,527.000,91.290,17.540,230.900,57.930,13.260,3.281,346.700,85.270,18.660,4.645,hard
2819.000,505.900,77.920,16.450,2918.000,528.300,91.710,17.660,229.800,58.200,13.450,3.276,348.300,85.620,18.840,4.663,hard
2830.000,509.200,77.780,16.460,2929.000,531.300,92.220,17.830,233.600,58.300,13.350,3.307,347.900,85.840,18.810,4.630,hard
2822.000,511.200,78.610,16.670,2917.000,531.000,91.850,17.520,232.300,58.170,13.460,3.320,348.600,85.970,18.810,4.623,hard
2846.000,506.800,76.990,16.380,2920.000,530.000,91.430,17.600,231.000,58.170,13.390,3.246,348.000,85.170,18.630,4.589,hard
2823.000,508.700,76.500,16.230,2918.000,528.700,92.430,17.590,231.100,58.250,13.390,3.290,345.400,85.040,18.540,4.599,hard
2806.000,509.200,77.720,16.420,2920.000,531.000,91.630,17.720,230.700,58.190,13.320,3.291,347.400,85.570,18.760,4.578,hard
2825.000,508.000,77.240,16.330,2911.000,529.200,91.460,17.610,230.700,58.290,13.370,3.283,347.200,85.560,18.640,4.530,hard
2870.000,507.400,77.730,16.530,2932.000,531.400,91.920,17.640,232.400,58.060,13.420,3.278,348.300,85.560,18.550,4.637,hard
2857.000,508.600,77.190,16.430,2934.000,531.800,91.860,17.780,231.200,58.270,13.420,3.265,347.400,85.670,18.720,4.675,hard
2836.000,513.200,78.820,16.780,2937.000,533.200,92.690,17.890,234.500,58.200,13.450,3.269,349.200,86.020,18.810,4.699,hard
2846.000,515.900,79.320,16.850,2925.000,532.200,92.440,17.740,236.000,58.260,13.410,3.260,350.200,85.870,18.860,4.662,hard
2864.000,514.300,78.400,16.520,2931.000,531.900,92.040,17.720,232.800,58.360,13.510,3.296,347.100,85.940,18.730,4.622,hard
2850.000,514.600,77.580,16.450,2927.000,532.200,92.520,17.680,230.900,58.280,13.400,3.277,347.200,86.310,18.670,4.599,hard
2856.000,515.600,78.210,16.370,2922.000,530.900,92.540,17.780,229.600,58.430,13.300,3.304,347.900,85.880,18.820,4.629,hard
2866.000,511.900,78.220,16.600,2936.000,528.600,92.230,17.880,236.300,58.480,13.430,3.329,348.800,85.880,18.910,4.679,hard
2850.000,511.500,78.080,16.450,2926.000,532.300,93.470,17.800,233.000,58.440,13.490,3.340,349.900,86.230,18.730,4.658,hard
2849.000,512.200,77.920,16.630,2932.000,534.500,93.350,17.850,235.800,58.690,13.500,3.270,350.000,86.350,18.950,4.738,hard
2872.000,515.900,79.100,16.830,2947.000,536.600,93.000,17.910,234.800,58.660,13.520,3.249,351.700,86.930,18.980,4.723,hard
2845.000,517.600,78.690,16.590,2970.000,537.900,93.230,17.750,233.800,58.590,13.570,3.343,353.200,87.480,18.910,4.670,hard
2865.000,509.500,78.320,16.350,2955.000,531.800,92.700,17.790,231.500,58.630,13.520,3.334,348.700,86.070,18.750,4.642,hard
2845.000,507.500,78.220,16.520,2922.000,532.600,92.400,17.760,235.500,58.700,13.510,3.278,349.800,86.030,18.760,4.653,hard
2866.000,513.900,78.430,16.420,2936.000,533.700,92.850,17.830,232.500,58.590,13.500,3.335,350.400,86.890,18.910,4.701,hard
2858.000,512.800,77.220,16.590,2950.000,535.100,92.460,17.720,233.600,58.640,13.470,3.290,350.300,86.760,18.910,4.660,hard
2865.000,512.200,78.850,16.690,2944.000,537.100,92.970,17.800,231.300,58.380,13.510,3.291,350.400,86.480,18.900,4.693,hard
2866.000,520.500,78.190,16.770,2947.000,535.300,92.850,17.850,231.700,58.550,13.490,3.305,351.400,86.410,18.990,4.681,hard
2886.000,521.100,78.990,16.630,2948.000,535.100,93.370,17.950,235.200,58.760,13.480,3.313,352.000,87.240,19.110,4.707,hard
2887.000,516.900,79.430,16.900,2960.000,535.200,92.520,17.860,233.700,58.900,13.460,3.341,352.800,87.300,18.930,4.673,hard
2860.000,511.600,77.850,16.550,2933.000,532.000,91.610,17.860,235.800,58.730,13.520,3.297,350.800,86.290,18.750,4.675,hard
2852.000,517.400,77.580,16.480,2947.000,534.800,91.770,17.690,232.400,58.570,13.510,3.283,350.300,86.100,18.790,4.624,hard
2857.000,514.000,77.400,16.580,2956.000,534.500,91.090,17.690,234.200,58.660,13.520,3.280,349.600,86.650,18.760,4.656,hard
2884.000,514.200,78.170,16.790,2948.000,535.600,92.260,17.780,232.000,58.550,13.490,3.273,350.000,86.750,18.830,4.672,hard
2870.000,518.700,77.910,16.600,2961.000,534.700,92.700,18.040,232.500,58.470,13.390,3.307,351.100,86.500,18.910,4.665,hard
2867.000,516.800,77.950,16.590,2946.000,535.100,93.080,17.930,234.000,58.620,13.490,3.287,351.500,87.040,18.870,4.704,hard
2874.000,517.500,78.640,16.560,2953.000,538.400,92.860,17.990,232.600,58.770,13.500,3.304,351.400,86.490,18.980,4.700,hard
2891.000,522.800,79.040,17.010,2956.000,540.400,92.730,18.120,232.300,58.800,13.470,3.313,352.700,86.970,19.080,4.754,hard
2912.000,521.000,79.380,16.380,2958.000,531.800,91.830,17.740,234.300,58.690,13.420,3.318,351.800,86.670,18.810,4.597,hard
2905.000,511.100,77.970,16.310,2950.000,538.100,92.350,17.740,234.800,58.680,13.470,3.285,349.700,86.350,18.780,4.633,hard
2879.000,515.600,77.480,16.520,2939.000,535.200,92.820,17.750,233.600,58.560,13.490,3.270,349.700,86.240,18.870,4.594,hard
2888.000,517.700,78.040,16.670,2960.000,533.900,92.190,17.780,233.400,58.410,13.480,3.321,350.700,86.500,18.710,4.661,hard
2881.000,516.900,78.320,16.540,2939.000,537.200,92.550,17.720,231.900,58.760,13.470,3.299,350.100,86.340,18.850,4.637,hard
2867.000,517.200,78.160,16.620,2940.000,535.900,92.600,17.780,232.400,58.660,13.470,3.323,351.100,86.340,18.910,4.648,hard
2905.000,518.700,78.540,16.970,2946.000,541.900,92.140,17.770,230.000,58.550,13.490,3.314,351.500,86.870,18.920,4.715,hard
2909.000,521.900,79.100,16.880,2944.000,537.200,93.450,17.950,235.600,58.330,13.470,3.331,352.700,86.600,19.080,4.709,hard
2903.000,521.800,78.930,16.770,2969.000,537.200,92.160,17.680,232.500,58.530,13.480,3.308,350.700,86.490,18.940,4.635,hard
2899.000,516.900,78.040,16.470,2935.000,536.100,91.720,17.770,235.600,58.310,13.440,3.269,349.900,85.770,18.690,4.657,hard
2891.000,514.800,77.730,16.480,2937.000,537.000,92.060,17.750,231.100,58.510,13.440,3.302,350.100,86.500,18.840,4.626,hard
2886.000,516.300,78.360,16.540,2942.000,535.900,92.330,17.750,231.600,58.820,13.510,3.286,350.700,86.630,18.800,4.673,hard
2881.000,515.000,78.140,16.440,2962.000,534.600,91.550,17.830,230.900,58.590,13.410,3.289,351.100,86.830,18.830,4.629,hard
2897.000,515.500,77.960,16.670,2946.000,537.600,92.860,17.750,231.100,58.690,13.470,3.294,350.400,86.390,18.820,4.696,hard
2881.000,519.100,79.260,16.780,2943.000,536.400,92.910,17.720,233.500,58.810,13.490,3.311,352.800,86.800,18.940,4.656,hard
2899.000,522.500,78.900,16.990,2933.000,541.900,93.210,17.890,231.900,58.850,13.560,3.314,352.700,86.630,19.120,4.708,hard
2905.000,521.800,79.950,16.680,2947.000,537.500,91.050,17.770,232.200,58.660,13.450,3.295,353.300,86.720,18.930,4.671,hard
2887.000,521.800,79.050,16.520,2948.000,534.200,91.580,17.770,233.100,58.580,13.400,3.303,351.400,86.740,18.850,4.638,hard
2874.000,518.100,78.360,16.650,2943.000,533.800,91.650,17.720,232.200,58.740,13.450,3.255,352.100,86.700,18.870,4.656,hard
2895.000,518.900,78.310,16.670,2967.000,536.400,91.670,17.670,233.200,58.430,13.470,3.271,351.400,86.730,18.960,4.624,hard
2885.000,516.700,78.280,16.540,2944.000,532.700,91.430,17.680,232.400,58.410,13.470,3.272,350.900,86.570,18.790,4.666,hard
2876.000,518.000,78.620,16.550,2926.000,536.800,92.350,17.660,231.900,58.590,13.490,3.302,351.400,86.440,18.880,4.672,hard
2876.000,519.000,78.210,16.570,2933.000,531.400,92.000,17.700,235.400,58.440,13.450,3.325,352.500,86.590,19.070,4.697,hard
2867.000,517.000,78.970,16.670,2931.000,533.600,93.140,17.670,234.000,58.520,13.380,3.291,352.700,87.290,19.050,4.686,hard
2906.000,521.100,78.990,17.040,2942.000,536.100,91.580,17.600,231.500,58.650,13.490,3.303,353.300,86.720,18.970,4.642,hard
2878.000,514.900,77.800,16.560,2943.000,532.200,91.630,17.600,232.500,58.340,13.430,3.252,350.400,86.370,18.800,4.611,hard
2875.000,514.000,77.560,16.540,2950.000,534.700,91.760,17.560,233.500,58.520,13.460,3.287,350.700,86.470,18.780,4.585,hard
2864.000,510.300,77.310,16.280,2920.000,534.600,91.790,17.560,231.500,58.400,13.360,3.294,351.600,86.550,18.870,4.658,hard
2874.000,513.100,78.150,16.460,2933.000,531.300,91.590,17.670,234.000,58.120,13.340,3.270,350.600,86.800,18.850,4.600,hard
2877.000,511.700,78.340,16.800,2937.000,534.800,91.190,17.680,229.800,58.400,13.430,3.255,350.500,86.450,19.000,4.633,hard
2899.000,515.000,77.880,16.610,2924.000,534.500,92.190,17.710,233.600,58.090,13.420,3.235,350.100,86.100,18.850,4.680,hard
2883.000,516.300,78.270,16.700,2941.000,533.800,92.540,17.660,231.800,58.280,13.370,3.262,352.300,86.940,18.930,4.670,hard
2894.000,520.200,78.740,16.680,2930.000,533.300,92.260,17.780,229.700,58.390,13.460,3.289,352.800,87.060,18.980,4.661,hard
2896.000,515.200,78.200,16.520,2927.000,530.500,91.070,17.460,232.400,58.550,13.420,3.274,352.300,86.320,18.890,4.590,hard
2861.000,516.300,77.480,16.440,2912.000,529.300,91.050,17.590,232.600,58.400,13.390,3.281,350.400,86.390,18.740,4.613,hard
2873.000,510.800,77.490,16.760,2943.000,529.700,91.220,17.640,228.700,58.440,13.370,3.245,349.700,86.050,18.850,4.621,hard
2852.000,512.700,77.910,16.560,2931.000,530.800,91.260,17.620,232.800,58.190,13.370,3.298,349.500,86.320,18.890,4.600,hard
2860.000,519.000,77.450,16.380,2921.000,532.400,91.220,17.620,230.600,58.290,13.450,3.285,352.000,86.310,19.020,4.606,hard
2860.000,514.000,77.080,16.540,2932.000,531.000,91.600,17.510,234.300,58.230,13.440,3.253,350.300,86.660,18.950,4.653,hard
2897.000,517.700,79.340,16.690,2928.000,533.400,91.240,17.570,232.100,58.380,13.410,3.254,352.500,86.790,18.980,4.675,hard
2899.000,519.400,78.860,16.770,2925.000,534.900,91.860,17.560,229.600,58.340,13.360,3.253,352.400,86.880,19.100,4.657,hard
2888.000,514.500,77.420,16.370,2928.000,528.600,91.170,17.510,232.700,58.480,13.520,3.261,352.400,87.160,18.790,4.578,hard
2848.000,512.300,77.010,16.490,2910.000,530.400,90.630,17.570,232.300,58.220,13.430,3.228,350.200,86.440,18.790,4.603,hard
2855.000,512.200,77.750,16.430,2913.000,530.800,90.800,17.460,228.400,58.330,13.360,3.259,350.900,86.440,18.780,4.607,hard
2849.000,516.100,77.460,16.480,2925.000,527.700,90.740,17.490,234.500,58.200,13.520,3.294,349.900,86.650,18.860,4.635,hard
2858.000,518.900,77.870,16.630,2907.000,530.500,90.650,17.380,231.800,58.410,13.500,3.275,349.700,86.800,18.930,4.647,hard
2895.000,516.000,77.650,16.330,2928.000,529.300,91.290,17.490,233.100,58.170,13.360,3.247,351.000,86.800,18.810,4.614,hard
2881.000,517.400,77.830,16.600,2924.000,534.600,91.400,17.530,232.800,58.070,13.450,3.263,351.900,86.820,18.930,4.623,hard
2869.000,517.500,79.220,16.710,2950.000,533.400,91.290,17.710,231.300,58.130,13.420,3.277,352.900,87.210,19.080,4.659,hard
2900.000,521.800,78.430,16.670,2933.000,526.500,90.620,17.480,232.600,58.220,13.450,3.250,351.400,86.890,18.880,4.614,hard
2864.000,515.900,76.660,16.250,2925.000,529.300,90.990,17.320,231.700,58.140,13.330,3.234,350.200,86.290,18.750,4.537,hard
2862.000,509.900,77.880,16.440,2917.000,526.800,90.920,17.540,231.200,58.120,13.350,3.240,349.200,86.260,18.800,4.551,hard
2857.000,515.600,77.710,16.150,2921.000,530.800,90.700,17.320,231.000,58.010,13.330,3.279,349.200,86.900,18.850,4.599,hard
2863.000,514.400,76.420,16.460,2931.000,527.400,91.040,17.460,230.500,58.300,13.350,3.237,349.700,86.320,18.680,4.592,hard
2864.000,511.800,76.780,16.570,2924.000,531.000,90.900,17.380,231.600,57.780,13.290,3.257,349.400,86.360,18.840,4.596,hard
2843.000,509.600,77.600,16.500,2926.000,529.500,90.620,17.480,230.400,57.890,13.300,3.249,349.300,86.890,18.890,4.584,hard
2862.000,515.100,77.820,16.520,2928.000,531.100,90.680,17.390,228.300,58.060,13.330,3.250,350.400,86.540,18.830,4.624,hard
2856.000,518.300,78.550,16.670,2927.000,528.500,91.300,17.490,230.000,57.880,13.320,3.266,352.600,86.840,18.990,4.662,hard
2855.000,517.000,77.360,16.470,2923.000,526.900,90.220,17.300,231.500,58.120,13.390,3.264,350.700,86.110,18.700,4.604,hard
2858.000,510.800,77.380,16.390,2904.000,530.100,90.780,17.430,231.000,58.140,13.410,3.247,349.700,86.390,18.870,4.612,hard
2867.000,514.500,77.450,16.310,2925.000,530.500,90.950,17.330,233.400,58.070,13.330,3.264,348.800,86.570,18.760,4.582,hard
2852.000,515.600,77.030,16.360,2924.000,528.600,90.850,17.390,230.100,58.060,13.420,3.268,350.200,86.210,18.990,4.613,hard
2863.000,511.800,77.040,16.380,2916.000,533.000,90.610,17.450,230.100,58.160,13.370,3.273,349.600,86.410,18.920,4.652,hard
2853.000,519.200,76.630,16.500,2932.000,532.700,91.240,17.510,229.600,57.960,13.390,3.266,350.300,86.910,18.850,4.620,hard
2886.000,518.100,77.640,16.640,2937.000,529.700,91.050,17.660,232.500,58.260,13.330,3.251,349.200,86.820,19.080,4.708,hard
2870.000,519.100,78.170,16.700,2937.000,531.700,92.270,17.670,228.500,58.000,13.440,3.252,352.500,86.950,18.980,4.689,hard
2883.000,517.000,78.240,16.730,2934.000,530.300,91.370,17.450,230.700,58.170,13.380,3.278,352.300,86.620,18.960,4.645,hard
2853.000,512.000,77.000,16.350,2925.000,530.000,91.020,17.300,230.400,57.990,13.390,3.246,348.600,86.390,18.840,4.646,hard
2856.000,509.100,77.350,16.240,2921.000,531.000,91.000,17.420,232.600,57.960,13.370,3.243,349.200,86.680,18.790,4.637,hard
2865.000,515.500,78.190,16.390,2923.000,529.500,91.630,17.550,229.400,58.310,13.380,3.273,349.700,86.630,18.980,4.645,hard
2848.000,511.300,77.670,16.250,2920.000,531.100,90.990,17.400,233.100,58.340,13.450,3.285,350.100,86.490,18.980,4.676,hard
2867.000,517.700,77.620,16.390,2929.000,531.300,90.870,17.550,230.400,57.970,13.470,3.292,350.200,86.660,19.010,4.677,hard
2891.000,517.100,78.390,16.610,2914.000,529.700,91.000,17.570,232.800,58.330,13.390,3.274,351.700,87.050,19.010,4.638,hard
2883.000,514.800,78.500,16.620,2935.000,532.800,92.300,17.730,231.600,58.600,13.440,3.305,352.400,87.130,19.120,4.717,hard
2872.000,517.600,78.960,16.620,2932.000,534.400,91.220,17.510,231.900,58.540,13.390,3.303,353.700,87.290,19.090,4.720,hard
2884.000,516.600,77.490,16.440,2926.000,530.400,91.940,17.390,232.400,58.300,13.480,3.269,351.800,87.160,19.030,4.628,hard
2885.000,511.900,76.580,16.490,2933.000,532.500,90.590,17.340,231.200,58.610,13.470,3.296,350.000,87.430,19.060,4.681,hard
2841.000,510.900,77.360,16.360,2931.000,531.700,91.500,17.530,231.700,58.490,13.390,3.288,352.000,87.040,19.010,4.662,hard
2845.000,515.000,77.140,16.510,2937.000,531.100,91.720,17.310,229.600,58.490,13.560,3.309,353.400,87.590,19.080,4.645,hard
2879.000,516.700,77.240,16.460,2929.000,528.100,90.700,17.560,232.200,58.550,13.530,3.257,353.500,88.160,18.990,4.651,hard
2881.000,515.800,76.890,16.340,2940.000,531.200,90.730,17.480,235.700,58.680,13.530,3.276,353.800,87.800,19.070,4.662,hard
2867.000,516.100,77.400,16.670,2931.000,532.700,90.780,17.580,231.600,58.620,13.560,3.282,354.000,88.280,19.170,4.725,hard
2866.000,517.500,77.750,16.720,2919.000,530.000,90.630,17.540,232.000,58.620,13.520,3.324,355.300,87.510,19.130,4.706,hard
2882.000,516.000,78.420,16.610,2904.000,530.300,90.350,17.310,234.400,58.680,13.430,3.285,354.600,87.430,18.990,4.698,hard
2866.000,508.500,76.360,16.290,2919.000,525.900,90.610,17.240,233.100,58.460,13.540,3.261,353.900,87.540,18.910,4.672,hard
2853.000,512.700,76.990,16.340,2937.000,529.200,91.630,17.550,233.100,58.370,13.540,3.297,352.100,87.350,19.110,4.691,hard
2848.000,513.400,77.280,16.280,2938.000,531.400,91.870,17.430,233.600,58.660,13.510,3.324,353.300,87.520,19.010,4.699,hard
2872.000,514.500,78.110,16.440,2954.000,531.700,91.190,17.540,231.600,58.970,13.540,3.347,353.400,87.860,19.080,4.748,hard
2888.000,519.600,78.420,16.560,2956.000,533.500,91.920,17.570,234.600,59.000,13.550,3.309,354.000,87.980,19.220,4.764,hard
2898.000,517.500,77.770,16.540,2940.000,540.400,92.220,17.740,232.300,58.930,13.630,3.338,354.900,88.480,19.330,4.788,hard
2920.000,524.100,78.890,16.790,2969.000,539.000,92.600,17.810,234.800,59.170,13.650,3.346,356.400,89.220,19.370,4.833,hard
2918.000,522.200,79.570,16.940,2952.000,538.100,92.610,17.600,235.000,59.240,13.730,3.329,357.300,89.670,19.460,4.816,hard
2923.000,522.000,78.670,16.700,2968.000,535.200,92.010,17.690,234.000,59.160,13.630,3.360,356.700,88.590,19.460,4.761,hard
2906.000,523.200,77.740,16.770,2957.000,538.200,92.380,17.780,231.500,59.270,13.680,3.352,356.100,88.700,19.330,4.741,hard
2900.000,520.000,77.990,16.730,2982.000,539.200,93.130,17.720,235.100,59.350,13.750,3.338,355.900,88.870,19.440,4.780,hard
2937.000,522.700,79.760,16.680,2975.000,541.500,92.620,17.750,232.400,59.230,13.720,3.352,357.800,88.520,19.560,4.845,hard
2908.000,525.300,79.320,16.780,2990.000,540.700,92.580,17.850,232.500,59.380,13.770,3.361,356.900,89.120,19.490,4.829,hard
2933.000,525.000,78.900,16.620,2981.000,542.800,93.620,17.760,236.600,59.290,13.780,3.396,358.800,89.800,19.510,4.844,hard
2968.000,522.100,80.100,16.820,2984.000,542.300,92.830,17.820,235.700,59.570,13.840,3.372,361.900,90.280,19.740,4.853,bogus
2955.000,527.700,79.520,16.930,2993.000,540.700,92.650,17.790,236.200,59.720,13.840,3.396,361.400,90.210,19.710,4.867,bogus
2933.000,526.400,80.580,17.020,2953.000,543.400,93.090,17.930,235.400,59.780,13.850,3.400,362.400,90.310,19.910,4.912,bogus
2928.000,526.700,80.570,17.060,2991.000,545.200,93.590,17.980,237.600,60.010,13.880,3.384,363.400,90.350,19.910,4.895,bogus
2965.000,532.900,81.590,17.250,3015.000,544.600,93.630,17.830,237.900,60.310,13.970,3.419,367.600,91.950,20.020,4.939,bogus
2603.000,457.200,69.280,14.670,2857.000,510.300,88.400,16.910,229.400,58.040,13.520,3.339,322.500,78.360,17.130,4.199,hard
2616.000,458.100,69.180,14.680,2843.000,507.900,88.750,17.060,230.500,57.900,13.530,3.347,323.200,79.150,17.190,4.180,hard
2608.000,455.600,69.500,14.910,2859.000,508.900,88.690,17.190,229.400,57.960,13.630,3.331,324.000,78.800,17.210,4.221,hard
2619.000,462.700,70.000,14.940,2865.000,512.900,88.890,17.240,231.900,57.930,13.630,3.376,325.300,79.280,17.180,4.237,hard
2619.000,463.400,70.310,15.050,2863.000,516.300,90.260,17.210,232.000,58.080,13.650,3.360,325.200,79.500,17.430,4.252,hard
2646.000,465.500,70.010,14.920,2856.000,511.600,87.930,17.200,232.500,58.140,13.780,3.356,325.800,79.630,17.200,4.182,hard
2602.000,460.800,69.400,14.790,2871.000,512.400,89.790,17.140,228.000,58.590,13.690,3.336,323.600,79.320,17.150,4.171,hard
2605.000,461.500,69.580,14.680,2855.000,514.200,89.250,17.200,230.900,58.230,13.590,3.348,325.200,79.670,17.250,4.225,hard
2626.000,462.100,69.880,14.810,2853.000,515.100,89.150,17.200,229.900,58.030,13.760,3.335,324.400,78.940,17.230,4.225,hard
2613.000,463.800,70.370,14.720,2866.000,516.300,89.570,17.420,229.200,58.370,13.710,3.305,324.100,79.640,17.210,4.211,hard
2624.000,465.900,70.000,14.810,2876.000,516.200,89.750,17.340,228.900,58.140,13.850,3.374,324.800,79.370,17.270,4.214,hard
2633.000,466.200,71.200,15.060,2890.000,521.200,90.800,17.400,230.700,58.860,13.740,3.371,325.400,79.660,17.360,4.297,hard
2639.000,464.300,71.020,15.150,2888.000,518.200,90.860,17.440,230.800,58.780,13.790,3.378,327.200,80.000,17.440,4.307,hard
2666.000,466.700,71.750,15.130,2881.000,520.200,90.750,17.220,232.800,58.680,13.840,3.369,328.000,79.990,17.400,4.232,hard
2626.000,463.800,70.200,14.720,2889.000,517.700,89.510,17.330,232.100,58.950,13.830,3.333,326.100,79.280,17.150,4.185,hard
2604.000,462.500,70.050,14.800,2880.000,520.400,89.540,17.320,233.000,58.560,13.690,3.375,324.300,79.210,17.330,4.220,hard
2641.000,460.000,70.510,14.840,2895.000,518.300,89.970,17.370,230.300,58.400,13.730,3.362,324.600,79.750,17.360,4.235,hard
2605.000,465.500,70.700,14.890,2873.000,524.300,90.160,17.360,231.400,58.620,13.690,3.354,324.000,79.260,17.190,4.195,hard
2633.000,463.300,71.200,14.880,2890.000,520.500,91.000,17.540,229.700,58.430,13.720,3.381,325.000,79.600,17.290,4.215,hard
2633.000,462.000,70.620,15.040,2895.000,520.100,91.250,17.580,230.600,58.390,13.790,3.371,325.100,80.140,17.290,4.262,hard
2647.000,472.700,71.520,15.070,2909.000,524.900,91.860,17.580,230.300,58.640,13.760,3.384,326.500,80.360,17.440,4.308,hard
2674.000,475.700,71.520,15.120,2910.000,523.200,90.180,17.550,230.500,58.570,13.840,3.403,327.300,80.450,17.490,4.256,hard
2646.000,467.500,70.110,14.870,2903.000,523.700,90.800,17.550,230.400,58.680,13.830,3.390,324.800,79.510,17.330,4.182,hard
2612.000,464.600,70.290,14.760,2886.000,522.100,90.850,17.350,230.100,58.400,13.820,3.377,323.800,79.590,17.220,4.214,hard
2645.000,467.000,69.900,14.730,2897.000,526.100,90.510,17.470,230.200,58.840,13.810,3.387,323.700,79.540,17.360,4.264,hard
2634.000,465.900,70.830,14.840,2873.000,525.000,91.210,17.510,230.400,58.550,13.830,3.392,325.200,79.550,17.290,4.213,hard
2626.000,465.100,70.740,14.740,2898.000,522.000,91.080,17.420,232.400,58.770,13.740,3.398,326.100,79.480,17.300,4.221,hard
2631.000,463.700,70.800,14.980,2921.000,523.600,91.630,17.570,231.000,58.750,13.780,3.419,326.500,80.180,17.370,4.248,hard
2652.000,464.800,70.810,15.090,2880.000,523.600,91.350,17.610,231.900,58.690,13.840,3.402,326.600,80.880,17.570,4.291,hard
2649.000,468.200,71.640,15.100,2913.000,527.400,91.710,17.550,233.200,58.830,13.840,3.422,328.900,81.010,17.670,4.323,hard
2639.000,469.800,71.350,15.050,2901.000,521.500,91.070,17.400,235.700,59.030,13.940,3.411,327.400,80.930,17.480,4.273,hard
2609.000,465.200,69.490,14.710,2891.000,519.100,90.740,17.400,234.300,58.880,13.800,3.397,327.800,80.160,17.290,4.248,hard
2611.000,459.200,69.660,14.690,2883.000,525.400,90.640,17.330,233.500,58.790,13.910,3.397,327.000,80.410,17.350,4.218,hard
2636.000,460.400,69.840,14.750,2885.000,522.100,89.620,17.270,230.400,58.970,13.910,3.414,326.800,80.400,17.300,4.273,hard
2613.000,462.900,70.400,14.950,2901.000,521.600,90.400,17.560,234.600,58.880,13.950,3.375,326.800,80.340,17.510,4.265,hard
2612.000,459.900,70.240,14.820,2902.000,521.400,90.760,17.490,232.500,59.160,13.870,3.380,328.900,80.190,17.490,4.298,hard
2614.000,462.700,70.770,14.690,2900.000,525.900,90.910,17.540,233.100,59.110,13.940,3.374,327.600,80.900,17.620,4.308,hard
2639.000,467.900,71.480,15.080,2899.000,525.200,91.520,17.500,229.800,59.080,13.930,3.418,327.600,80.990,17.650,4.296,hard
2627.000,470.700,70.770,15.340,2914.000,521.200,91.570,17.490,231.100,59.240,13.830,3.436,330.000,81.290,17.760,4.307,hard
2633.000,462.000,70.600,14.880,2896.000,523.200,91.320,17.360,232.500,59.140,13.950,3.392,328.500,80.440,17.510,4.241,hard
2625.000,457.000,69.730,14.680,2888.000,521.400,90.600,17.410,232.100,59.240,13.920,3.424,327.100,80.900,17.390,4.262,hard
2612.000,463.000,70.050,14.680,2887.000,523.700,90.840,17.320,230.800,59.190,13.930,3.391,328.900,80.800,17.520,4.264,hard
2599.000,462.300,70.120,14.790,2903.000,523.200,90.350,17.340,232.000,59.340,13.860,3.398,328.200,80.420,17.550,4.323,hard
2616.000,461.500,70.150,14.680,2873.000,520.100,90.120,17.290,233.100,59.400,13.920,3.389,329.200,81.120,17.580,4.339,hard
2612.000,464.200,70.240,14.890,2874.000,522.400,90.430,17.270,232.400,59.350,13.890,3.402,329.800,80.570,17.630,4.341,hard
2622.000,458.800,70.470,14.980,2892.000,521.900,90.700,17.400,232.800,59.280,13.980,3.413,330.900,80.870,17.790,4.351,hard
2622.000,465.200,70.630,14.820,2870.000,518.700,90.440,17.400,229.900,59.340,13.930,3.408,330.900,82.150,17.690,4.290,hard
2616.000,457.300,70.140,14.540,2866.000,518.300,89.850,17.250,231.300,59.380,13.840,3.417,331.000,81.140,17.560,4.271,hard
2599.000,455.600,68.900,14.580,2880.000,519.500,89.940,17.070,233.700,59.300,13.950,3.395,329.900,80.880,17.550,4.278,hard
2605.000,459.000,69.140,14.460,2871.000,519.600,90.000,17.250,233.300,59.260,13.970,3.439,330.400,81.400,17.600,4.281,hard
2579.000,457.700,69.480,14.640,2878.000,522.800,90.220,17.330,233.300,59.260,14.040,3.394,330.900,80.990,17.500,4.307,hard
2610.000,464.300,70.200,14.680,2903.000,523.600,90.410,17.330,232.900,59.300,13.880,3.380,329.600,81.150,17.600,4.331,hard
2620.000,464.500,70.990,14.800,2911.000,524.300,91.100,17.370,234.100,59.590,13.970,3.435,330.100,81.250,17.610,4.322,hard
2618.000,467.600,70.330,14.920,2915.000,528.100,91.810,17.420,231.600,59.270,13.970,3.399,330.800,81.600,17.900,4.383,hard
2638.000,468.600,71.900,15.100,2924.000,529.800,91.360,17.400,233.400,59.280,14.020,3.455,333.500,81.850,17.740,4.319,hard
2648.000,465.800,70.560,14.700,2917.000,527.900,91.220,17.380,232.100,59.260,13.960,3.403,329.500,81.320,17.570,4.314,hard
2626.000,465.500,70.430,14.590,2904.000,527.900,91.530,17.400,234.900,59.290,13.970,3.399,330.300,80.680,17.460,4.321,hard
2640.000,464.800,69.780,14.890,2920.000,529.800,92.260,17.560,233.100,59.130,13.960,3.392,330.800,81.250,17.680,4.342,hard
2650.000,463.500,70.510,14.800,2934.000,528.800,92.200,17.450,231.600,59.140,13.860,3.398,329.800,81.050,17.570,4.288,hard
2654.000,471.900,72.040,15.010,2929.000,532.500,93.410,17.600,232.500,59.140,13.800,3.414,330.100,81.020,17.660,4.341,hard
2655.000,471.600,71.400,14.830,2929.000,533.200,92.780,17.650,232.900,59.030,14.000,3.420,329.600,81.280,17.670,4.316,hard
2670.000,475.900,71.380,15.210,2944.000,535.000,93.290,17.920,233.700,59.400,13.870,3.431,330.700,81.840,17.650,4.347,hard
2690.000,475.900,72.900,15.250,2964.000,539.600,93.900,17.770,234.000,59.270,13.950,3.414,333.000,82.080,17.820,4.375,hard
2683.000,476.500,72.010,14.890,2951.000,539.300,92.770,17.700,232.100,59.300,13.930,3.385,329.700,81.200,17.610,4.298,hard
2670.000,476.300,71.190,14.870,2944.000,538.200,92.930,17.710,232.500,59.070,13.870,3.381,330.000,81.210,17.630,4.280,hard
2651.000,475.100,71.000,14.920,2958.000,539.300,92.910,17.690,232.100,59.180,13.860,3.412,329.400,81.240,17.560,4.319,hard
2679.000,479.600,71.490,15.060,2977.000,542.500,93.150,17.830,232.600,59.090,13.970,3.399,330.200,81.460,17.560,4.329,hard
2694.000,481.300,71.510,15.120,2974.000,540.800,93.190,17.790,231.300,59.010,13.850,3.397,330.500,80.720,17.680,4.306,hard
2702.000,477.500,72.320,15.180,2992.000,541.800,93.130,17.790,232.500,59.140,13.920,3.393,329.000,81.470,17.520,4.349,hard
2711.000,478.800,72.100,15.160,2986.000,541.400,93.690,17.880,232.100,59.030,13.920,3.405,329.800,81.200,17.690,4.374,hard
2740.000,483.700,72.720,15.540,2990.000,542.900,94.420,18.010,233.000,59.280,13.880,3.405,332.700,81.500,17.660,4.390,hard
2742.000,482.000,73.260,15.250,3007.000,542.200,93.930,17.800,232.900,59.330,13.820,3.388,331.200,81.250,17.630,4.377,hard
2703.000,481.100,72.090,15.060,2988.000,541.200,93.540,17.710,230.000,58.810,13.880,3.380,331.400,81.200,17.580,4.285,hard
2710.000,483.200,72.070,14.870,2975.000,546.000,94.190,17.750,231.900,58.790,13.720,3.400,329.500,81.150,17.550,4.374,hard
2704.000,480.400,71.820,15.200,3000.000,544.100,92.760,17.880,231.400,58.910,13.910,3.392,330.400,80.930,17.680,4.350,hard
2700.000,485.200,71.700,15.080,2981.000,541.100,93.230,17.890,228.900,58.750,13.860,3.371,329.600,81.420,17.650,4.350,hard
2708.000,483.100,72.630,15.290,3001.000,544.300,94.130,17.810,232.300,58.780,13.820,3.403,330.300,81.100,17.630,4.336,hard
2706.000,483.200,72.810,15.340,2990.000,547.000,94.600,17.950,231.900,58.700,13.850,3.397,331.700,81.720,17.870,4.414,hard
2713.000,483.900,72.840,15.460,3018.000,543.300,93.840,17.890,232.200,59.030,13.850,3.382,333.000,81.900,17.760,4.412,hard
2718.000,483.900,72.280,15.180,2982.000,542.100,93.550,17.850,230.400,58.980,13.810,3.391,332.400,81.520,17.720,4.335,hard
2688.000,477.300,71.880,14.940,2990.000,541.200,93.130,17.740,231.900,58.990,13.820,3.367,329.400,81.390,17.670,4.321,hard
2715.000,476.200,71.190,15.010,2969.000,541.100,93.830,17.890,230.100,58.850,13.850,3.373,329.900,81.000,17.630,4.336,hard
2709.000,479.300,72.080,15.220,2991.000,542.800,93.820,17.820,232.100,58.800,13.830,3.389,330.800,81.430,17.770,4.379,hard
2716.000,479.300,71.160,15.160,2992.000,544.300,93.120,17.820,231.600,59.100,13.850,3.374,331.500,80.980,17.780,4.345,hard
2715.000,483.100,72.010,15.140,2984.000,544.200,93.510,17.890,231.900,58.950,13.870,3.357,332.200,81.540,17.850,4.441,hard
2726.000,481.300,72.390,15.360,3009.000,543.600,94.210,17.770,230.800,59.040,13.870,3.388,332.700,81.950,17.870,4.421,hard
2708.000,480.800,72.750,15.290,2977.000,544.000,93.870,17.920,231.200,59.180,13.840,3.393,334.000,82.450,18.120,4.407,hard
2712.000,485.400,72.650,15.150,2999.000,541.000,92.780,17.670,231.200,58.960,13.830,3.359,333.600,82.410,17.940,4.369,hard
2700.000,480.100,70.900,14.990,2979.000,542.800,93.130,17.640,232.700,59.130,13.780,3.354,333.000,81.870,17.760,4.342,hard
2709.000,478.100,71.180,15.030,2969.000,537.800,93.500,17.730,231.600,58.820,13.790,3.386,330.600,81.860,17.760,4.339,hard
2709.000,479.400,71.770,15.010,2976.000,544.100,93.230,17.540,231.600,58.760,13.880,3.388,332.400,82.110,17.790,4.343,hard
2704.000,479.400,72.190,15.130,2966.000,540.100,93.290,17.610,232.700,58.890,13.850,3.398,332.300,81.710,17.630,4.349,hard
2713.000,478.000,72.330,15.170,2997.000,543.400,94.620,17.740,231.000,58.940,13.850,3.412,334.800,82.160,17.840,4.474,hard
2716.000,482.700,72.540,15.300,3005.000,544.600,93.570,17.840,232.900,59.250,13.870,3.413,333.500,82.910,17.970,4.413,hard
2754.000,484.800,73.150,15.320,3019.000,547.500,94.400,17.990,231.600,59.220,13.890,3.451,335.400,83.170,18.000,4.491,hard
2742.000,491.300,73.870,15.480,3016.000,550.900,94.470,17.960,233.700,59.270,13.920,3.444,336.500,83.390,18.190,4.500,hard
2750.000,488.600,72.810,15.190,3008.000,547.600,92.920,17.550,231.400,59.620,14.020,3.398,336.900,83.050,17.920,4.424,hard
2716.000,482.700,71.180,15.030,3012.000,542.500,93.270,17.690,234.700,59.520,14.020,3.385,336.600,82.910,17.920,4.405,hard
2753.000,483.700,72.350,15.150,3011.000,548.000,93.100,17.740,231.400,59.640,14.010,3.405,334.300,82.520,17.810,4.401,hard
2749.000,485.400,72.070,15.080,3018.000,544.600,93.550,17.480,235.000,59.270,13.960,3.415,334.900,82.400,17.930,4.417,hard
2747.000,481.900,72.560,14.990,3002.000,545.300,93.420,17.620,234.000,59.310,13.950,3.396,334.600,82.050,17.810,4.407,hard
2736.000,485.700,72.550,15.120,3011.000,546.400,93.170,17.710,234.100,59.250,13.950,3.385,333.800,82.530,17.930,4.377,hard
2759.000,488.000,72.370,15.320,3025.000,546.100,93.850,17.810,234.200,59.570,14.050,3.412,337.700,82.700,18.130,4.474,hard
2740.000,492.000,72.750,15.390,3032.000,547.000,94.360,17.850,233.800,59.420,13.920,3.409,337.100,82.860,17.950,4.494,hard
2763.000,493.600,73.930,15.580,3031.000,550.200,94.400,17.940,235.400,59.520,13.990,3.401,338.400,83.450,18.320,4.539,hard
2770.000,490.500,73.160,15.270,3040.000,544.900,93.500,17.750,233.700,59.840,13.970,3.432,337.400,83.260,18.100,4.430,hard
2760.000,489.700,73.030,15.080,3013.000,549.700,93.270,17.680,233.500,59.660,13.900,3.397,335.400,82.590,17.930,4.395,hard
2738.000,489.500,72.420,15.140,3024.000,548.200,93.320,17.700,236.400,59.570,13.880,3.398,335.800,82.610,18.000,4.394,hard
2747.000,488.800,73.200,15.390,3020.000,545.100,93.290,17.690,231.500,59.230,13.890,3.353,336.500,82.540,17.910,4.431,hard
2764.000,486.000,72.100,14.980,3023.000,545.500,93.790,17.700,231.600,59.310,13.920,3.410,334.900,82.960,17.910,4.447,hard
2736.000,489.000,72.500,15.150,3024.000,547.000,94.300,17.810,233.500,59.340,13.920,3.424,335.300,82.390,17.920,4.432,hard
2752.000,490.200,72.960,15.500,2998.000,549.400,93.560,17.770,231.800,59.090,13.930,3.406,335.400,82.880,17.900,4.450,hard
2779.000,493.200,73.830,15.310,3008.000,547.600,94.120,17.910,232.900,59.220,13.910,3.429,335.100,82.850,18.130,4.476,hard
2760.000,496.900,74.110,15.380,3034.000,547.600,93.540,17.660,233.400,59.370,13.910,3.412,336.800,82.810,18.020,4.399,hard
2753.000,488.700,72.430,15.100,3019.000,547.600,93.780,17.610,233.300,59.310,13.870,3.383,334.100,82.310,17.750,4.366,hard
2724.000,485.200,72.110,14.980,3018.000,544.800,93.610,17.770,233.900,59.180,13.840,3.380,334.600,81.980,17.770,4.349,hard
2736.000,487.200,72.210,15.070,3010.000,544.900,92.510,17.750,234.500,59.200,13.940,3.399,333.000,82.360,18.060,4.416,hard
2707.000,489.100,71.800,15.110,3000.000,540.900,93.610,17.720,233.600,59.140,13.770,3.400,332.400,82.430,17.950,4.392,hard
2726.000,486.500,72.120,14.980,3003.000,539.500,93.730,17.760,233.000,59.220,13.780,3.424,333.500,82.310,17.950,4.433,hard
2727.000,487.700,71.980,15.230,3001.000,547.200,93.650,17.780,230.700,59.110,13.900,3.422,334.600,82.050,18.070,4.460,hard
2757.000,488.400,72.850,15.350,3012.000,547.800,94.190,17.770,234.600,59.390,13.890,3.417,335.700,83.100,18.160,4.473,hard
2743.000,488.500,73.290,15.410,3031.000,545.900,93.480,17.750,235.700,59.370,13.960,3.409,337.200,83.320,18.070,4.464,hard
2760.000,486.600,71.880,15.050,3025.000,542.500,93.140,17.670,233.600,59.260,13.960,3.400,333.800,82.310,17.900,4.355,hard
2739.000,486.200,72.040,14.890,3009.000,542.500,92.630,17.610,233.100,59.250,13.910,3.415,332.800,81.720,17.910,4.379,hard
2730.000,484.600,72.200,15.030,3006.000,543.200,93.740,17.600,234.500,59.230,13.890,3.406,332.900,81.940,17.850,4.359,hard
2734.000,487.200,72.780,15.050,3013.000,542.300,92.320,17.610,231.800,59.100,13.910,3.370,332.100,82.040,17.710,4.355,hard
2726.000,481.400,72.200,14.990,2990.000,541.800,92.800,17.630,234.800,59.300,13.840,3.396,331.300,81.890,17.760,4.379,hard
2730.000,483.900,71.330,15.110,2997.000,541.500,94.090,17.670,233.500,58.940,13.830,3.397,333.700,82.130,17.910,4.402,hard
2740.000,483.700,72.410,15.130,3015.000,544.100,93.290,17.680,233.100,58.960,13.890,3.428,333.100,82.440,17.850,4.450,hard
2743.000,487.300,72.390,15.360,3011.000,544.800,93.460,17.610,233.000,59.240,13.790,3.436,335.000,82.640,18.060,4.440,hard
2734.000,484.500,71.570,14.950,2999.000,538.500,92.720,17.370,232.500,58.900,13.970,3.383,333.200,82.380,17.760,4.361,hard
2694.000,477.600,70.910,14.680,2997.000,536.100,91.390,17.350,233.500,59.300,13.910,3.390,330.800,81.720,17.660,4.288,hard
2681.000,479.000,70.900,14.820,2999.000,539.500,92.220,17.440,232.400,58.940,13.820,3.393,330.800,81.430,17.570,4.346,hard
2699.000,477.200,70.680,14.940,2988.000,539.400,93.100,17.500,232.600,59.290,13.850,3.388,330.600,81.660,17.700,4.326,hard
2710.000,475.600,71.550,14.900,2948.000,540.400,92.060,17.590,230.900,59.130,13.820,3.382,331.000,81.380,17.620,4.344,hard
2685.000,476.200,70.600,14.950,2985.000,541.500,91.840,17.700,232.500,58.910,13.860,3.399,330.700,81.440,17.810,4.376,hard
2698.000,476.500,71.890,14.960,2977.000,538.800,92.790,17.570,232.200,59.070,13.730,3.384,331.800,81.860,17.700,4.407,hard
2709.000,476.000,71.580,15.060,2987.000,538.400,92.320,17.550,234.200,59.080,13.960,3.392,331.900,82.020,17.850,4.395,hard
2710.000,481.600,71.100,15.140,2973.000,535.800,91.890,17.390,232.900,58.990,13.900,3.394,332.100,81.750,17.640,4.261,hard
2693.000,473.600,69.910,14.800,2989.000,535.200,92.700,17.410,232.200,58.960,13.880,3.365,329.800,81.200,17.610,4.323,hard
2680.000,475.200,70.850,14.870,2971.000,534.700,90.950,17.520,233.100,59.120,13.810,3.383,329.300,81.450,17.720,4.305,hard
2679.000,474.900,70.660,14.760,2967.000,535.400,92.020,17.510,232.800,59.040,13.780,3.386,330.200,81.670,17.570,4.329,hard
2674.000,476.700,71.010,14.780,2969.000,536.900,91.510,17.480,232.900,59.020,13.810,3.361,330.100,81.770,17.630,4.335,hard
2687.000,477.000,70.710,15.020,2970.000,538.600,92.520,17.420,230.300,59.010,13.840,3.362,331.500,81.690,17.720,4.359,hard
2708.000,484.100,71.470,15.020,2984.000,538.100,92.210,17.480,230.600,58.820,13.860,3.376,332.000,81.330,17.900,4.359,hard
2716.000,482.900,72.360,15.340,2969.000,538.900,93.010,17.630,233.600,59.050,13.920,3.391,333.400,82.260,17.940,4.391,hard
2719.000,481.200,71.260,14.910,2972.000,538.300,92.080,17.380,234.300,59.430,13.900,3.343,332.600,81.130,17.690,4.275,hard
2678.000,477.700,70.560,14.880,2958.000,537.700,91.810,17.310,232.000,59.160,13.850,3.354,330.500,81.690,17.580,4.321,hard
2688.000,474.700,71.270,14.900,2967.000,538.200,92.030,17.430,233.100,59.020,13.730,3.375,330.700,81.160,17.740,4.298,hard
2687.000,477.500,71.050,14.930,2981.000,537.900,91.950,17.450,231.100,59.080,13.870,3.380,331.800,81.350,17.500,4.307,hard
2690.000,478.900,71.760,15.070,2967.000,537.800,92.220,17.450,233.000,58.960,13.780,3.359,330.700,81.940,17.620,4.372,hard
2696.000,479.600,72.160,14.970,2979.000,542.600,92.740,17.430,233.000,59.040,13.800,3.366,332.400,81.530,17.700,4.328,hard
2688.000,479.700,71.880,15.180,2972.000,539.700,92.290,17.550,233.600,58.960,13.800,3.390,331.700,82.070,17.790,4.351,hard
2727.000,485.500,72.550,15.270,2973.000,539.700,93.020,17.530,231.200,59.010,13.810,3.399,333.100,81.930,17.710,4.323,hard
2696.000,479.700,71.120,14.810,2967.000,539.700,92.230,17.420,233.200,59.010,13.790,3.401,330.700,81.330,17.580,4.262,hard
2699.000,479.200,70.940,14.930,2982.000,537.900,91.540,17.410,234.300,58.820,13.750,3.343,330.800,81.300,17.580,4.220,hard
2692.000,476.900,71.230,14.870,2976.000,539.300,92.920,17.510,232.800,59.180,13.800,3.339,330.500,80.950,17.520,4.283,hard
2693.000,479.900,71.340,15.020,2963.000,536.400,92.220,17.450,233.600,58.940,13.870,3.366,330.900,81.320,17.730,4.268,hard
2705.000,475.700,71.310,15.140,2963.000,539.600,92.890,17.520,233.500,59.020,13.750,3.348,329.800,81.930,17.700,4.296,hard
2720.000,480.800,71.100,15.070,2987.000,541.200,92.890,17.500,229.200,59.090,13.750,3.363,332.000,81.700,17.650,4.314,hard
2709.000,484.300,72.670,15.110,2982.000,541.400,93.280,17.570,234.600,59.010,13.740,3.351,332.100,81.240,17.720,4.405,hard
2712.000,489.600,73.020,15.260,2976.000,540.400,93.040,17.440,231.100,58.980,13.730,3.383,333.200,81.580,17.820,4.362,hard
2710.000,483.100,71.360,15.070,2974.000,539.600,91.490,17.510,231.100,58.920,13.750,3.357,330.700,81.480,17.710,4.262,hard
2690.000,481.600,71.610,15.140,2987.000,539.600,91.360,17.480,231.700,58.880,13.750,3.344,330.400,81.370,17.560,4.264,hard
2712.000,480.100,71.640,14.980,2970.000,540.300,92.840,17.590,230.400,59.250,13.960,3.360,330.800,81.600,17.650,4.319,hard
2730.000,478.400,71.340,15.060,2977.000,538.900,93.660,17.520,232.700,59.080,13.800,3.341,332.200,81.590,17.670,4.317,hard
2719.000,481.300,72.280,15.080,3006.000,541.600,93.210,17.540,233.600,58.830,13.860,3.353,331.100,82.150,17.780,4.335,hard
2722.000,486.200,72.610,15.150,2988.000,542.000,92.910,17.720,232.500,59.060,13.820,3.368,332.400,82.210,17.800,4.322,hard
2704.000,490.800,72.760,15.320,2985.000,541.500,94.300,17.710,229.400,59.170,13.760,3.349,333.500,82.140,17.840,4.344,hard
2729.000,489.200,74.070,15.450,2986.000,544.700,94.000,17.780,232.500,59.230,13.740,3.351,334.300,82.540,17.910,4.386,hard
2739.000,488.200,74.000,15.570,2994.000,544.600,93.590,17.770,231.300,59.330,13.880,3.364,334.800,82.810,17.980,4.380,hard
2782.000,490.100,72.650,15.160,2993.000,542.600,92.450,17.590,232.900,59.360,13.780,3.366,333.900,82.400,17.840,4.286,hard
2720.000,488.000,72.590,15.110,2970.000,540.900,93.250,17.650,231.200,59.220,13.840,3.365,333.000,81.960,17.800,4.353,hard
2749.000,487.300,72.390,15.000,2991.000,544.800,92.200,17.680,233.200,59.200,13.870,3.363,333.800,82.300,17.910,4.294,hard
2738.000,488.200,72.640,15.290,2974.000,539.000,92.500,17.650,232.700,59.120,13.910,3.383,334.000,82.310,17.870,4.326,hard
2761.000,486.800,73.100,15.350,2974.000,542.600,93.000,17.850,234.300,59.250,13.780,3.390,334.500,82.540,17.800,4.332,hard
2747.000,490.300,73.560,15.420,2999.000,540.400,93.180,17.830,234.300,59.010,13.820,3.392,334.500,82.790,17.880,4.376,hard
2760.000,493.400,73.070,15.720,3006.000,546.500,93.480,17.730,231.900,59.240,13.900,3.369,335.200,83.050,18.050,4.383,hard
2775.000,491.100,73.820,15.620,3000.000,547.500,93.350,17.950,232.500,59.290,13.940,3.382,336.800,82.980,18.170,4.413,hard
2779.000,493.900,74.820,15.580,2999.000,545.800,93.760,17.790,232.800,59.480,13.910,3.395,336.500,83.230,18.100,4.333,hard
2752.000,492.900,73.660,15.290,2986.000,543.400,93.050,17.750,234.000,59.240,13.820,3.341,335.900,82.840,17.850,4.297,hard
2762.000,489.000,73.400,15.290,3003.000,544.200,93.740,17.940,232.900,59.220,13.910,3.374,336.000,82.360,17.890,4.344,hard
2764.000,493.300,73.580,15.570,2996.000,545.600,93.610,17.740,232.900,59.570,13.930,3.350,336.200,82.710,17.880,4.352,hard
2782.000,497.100,74.220,15.410,2999.000,546.300,93.600,17.850,235.500,59.600,13.880,3.378,337.300,83.380,18.000,4.401,hard
2789.000,495.600,73.890,15.640,2988.000,545.100,94.340,17.830,235.800,59.400,13.900,3.370,337.300,82.950,18.050,4.389,hard
2767.000,491.200,74.550,15.810,2999.000,545.400,94.470,18.030,236.100,59.530,13.900,3.371,338.900,83.260,18.120,4.420,hard
2800.000,495.100,74.170,15.790,2996.000,545.200,93.970,17.820,236.000,59.700,13.850,3.364,341.100,83.530,18.170,4.468,hard
2794.000,499.700,74.900,15.820,3009.000,542.600,93.170,17.800,233.800,59.440,13.950,3.383,340.000,83.690,18.110,4.370,hard
2757.000,493.900,74.840,15.410,2977.000,542.700,93.860,17.600,235.700,59.640,13.830,3.364,339.100,83.300,17.920,4.346,hard
2784.000,495.700,73.650,15.400,3016.000,544.800,93.570,17.770,233.200,59.520,13.950,3.368,339.000,83.300,18.040,4.379,hard
2766.000,492.800,74.270,15.540,3014.000,546.200,93.690,17.750,234.800,59.490,13.880,3.379,339.800,83.630,18.070,4.365,hard
2796.000,490.400,74.190,15.750,3011.000,543.800,93.100,17.720,233.700,59.540,13.930,3.375,338.900,83.780,18.210,4.373,hard
2775.000,493.500,74.800,15.680,3009.000,545.700,93.140,17.860,235.600,59.730,13.920,3.388,340.400,83.950,18.240,4.479,hard
2785.000,493.300,75.340,15.880,2996.000,545.500,94.120,18.110,234.400,59.760,13.970,3.384,341.600,83.920,18.240,4.481,hard
2813.000,500.100,76.260,16.080,2996.000,546.300,94.390,17.770,236.700,59.880,13.950,3.397,343.500,84.660,18.370,4.544,hard
2810.000,500.900,75.060,16.040,3013.000,544.100,94.040,17.710,235.900,59.820,13.950,3.406,344.700,84.650,18.280,4.404,hard
2796.000,502.000,74.430,15.750,2992.000,546.700,93.670,17.780,238.500,59.960,13.950,3.400,340.900,84.570,18.280,4.400,hard
2772.000,499.500,74.300,15.600,3002.000,547.400,93.700,17.700,236.800,59.800,13.960,3.393,341.600,83.870,18.180,4.427,hard
2794.000,502.100,74.840,15.780,2989.000,542.800,93.440,17.820,237.900,59.750,13.930,3.401,342.200,84.060,18.290,4.457,hard
2790.000,499.400,74.880,15.730,3019.000,547.200,94.060,17.820,237.400,60.200,13.960,3.379,342.000,84.350,18.270,4.431,hard
2768.000,499.300,75.160,15.710,3009.000,544.700,93.470,17.770,234.600,60.040,13.990,3.391,343.100,84.100,18.290,4.421,hard
2810.000,499.000,75.900,15.780,3024.000,547.800,94.390,17.830,233.900,59.690,14.000,3.396,342.300,84.520,18.200,4.471,hard
2825.000,504.200,76.130,15.890,3016.000,549.800,93.100,17.880,236.700,60.120,14.060,3.373,344.000,84.670,18.450,4.508,hard
2814.000,502.100,76.570,16.010,3009.000,547.800,94.630,18.070,236.500,60.080,13.950,3.407,343.400,85.230,18.500,4.530,hard
2831.000,503.000,76.720,15.960,3015.000,548.300,94.230,18.000,234.800,60.110,13.950,3.387,344.600,85.070,18.370,4.451,hard
2819.000,504.700,74.790,15.850,3027.000,542.100,92.970,17.910,236.600,59.700,14.010,3.398,342.900,84.180,18.320,4.435,hard
2809.000,502.500,74.780,15.860,3014.000,547.700,94.560,17.870,237.400,59.760,13.930,3.394,342.300,84.420,18.210,4.414,hard
2833.000,499.800,75.030,15.840,3031.000,545.200,93.370,17.880,235.500,59.840,13.970,3.397,342.300,84.220,18.340,4.442,hard
2812.000,497.600,76.390,15.940,3007.000,544.000,94.610,17.820,237.900,59.870,13.940,3.371,343.200,84.200,18.300,4.470,hard
2813.000,500.100,76.090,15.930,3022.000,545.000,94.490,17.950,234.300,59.530,13.980,3.381,342.600,84.310,18.270,4.449,hard
2810.000,501.900,76.290,16.150,3047.000,548.100,94.400,17.900,232.000,59.860,13.970,3.367,342.600,84.420,18.370,4.500,hard
2816.000,505.600,76.800,16.250,3014.000,547.000,94.640,18.000,232.800,59.720,13.840,3.368,343.500,84.460,18.470,4.504,hard
2839.000,505.200,77.540,16.480,3024.000,549.700,94.310,18.190,235.500,59.750,13.940,3.416,344.600,85.070,18.520,4.487,hard
2823.000,503.900,76.670,15.970,3024.000,550.400,94.640,18.030,237.500,59.950,13.900,3.401,342.400,84.110,18.320,4.432,hard
2844.000,510.200,76.520,16.020,3024.000,547.500,94.740,17.950,238.400,59.920,13.940,3.416,341.900,84.110,18.360,4.472,hard
2828.000,501.700,76.480,16.320,3010.000,547.800,94.980,18.010,232.700,59.760,13.890,3.366,343.300,85.210,18.400,4.440,hard
2833.000,506.600,77.330,16.280,3037.000,550.600,94.190,18.150,235.800,59.930,13.910,3.392,343.400,84.860,18.370,4.461,hard
2823.000,507.700,76.700,16.210,3021.000,548.600,94.110,18.080,236.700,59.690,14.030,3.397,343.500,84.740,18.490,4.463,hard
2832.000,507.700,76.970,16.220,3043.000,545.900,94.400,18.170,236.100,59.620,13.920,3.367,345.100,84.660,18.310,4.517,hard
2843.000,506.600,77.310,16.410,3019.000,551.300,95.240,18.180,236.900,60.100,13.930,3.376,344.400,85.480,18.620,4.506,hard
2841.000,509.900,78.030,16.340,3018.000,550.300,94.540,17.950,234.700,60.000,14.020,3.380,346.700,85.340,18.320,4.471,hard
2824.000,508.200,76.340,16.240,3032.000,548.700,94.390,18.020,234.600,59.810,13.880,3.355,343.200,84.500,18.350,4.432,hard
2821.000,506.500,76.800,16.070,3015.000,549.700,95.000,18.040,236.500,59.770,13.910,3.375,343.400,84.720,18.100,4.409,hard
2845.000,506.800,76.860,16.260,3008.000,548.000,94.300,18.010,235.300,59.640,13.820,3.366,344.300,84.490,18.470,4.447,hard
2812.000,507.900,77.370,16.300,3046.000,550.300,94.980,18.010,236.700,59.770,13.810,3.368,343.500,84.570,18.310,4.455,hard
2830.000,517.000,77.310,16.330,3023.000,548.200,94.100,17.980,234.000,59.260,13.940,3.327,343.600,84.420,18.460,4.443,hard
2830.000,509.600,77.170,16.290,3023.000,548.300,94.810,18.090,234.600,59.530,13.910,3.354,343.200,84.800,18.360,4.462,hard
2837.000,508.000,78.310,16.500,3033.000,548.900,94.630,17.920,234.300,59.720,13.840,3.404,345.600,85.800,18.670,4.504,hard
2837.000,504.100,77.710,16.290,3016.000,547.600,93.060,17.890,237.000,59.740,13.890,3.364,343.100,85.100,18.300,4.416,hard
2817.000,501.000,76.840,16.230,3008.000,544.700,93.670,17.870,235.500,59.730,13.890,3.350,342.400,84.780,18.230,4.399,hard
2839.000,507.000,76.940,16.220,3013.000,545.300,94.170,17.990,236.300,59.570,13.790,3.355,343.200,84.630,18.320,4.454,hard
2811.000,506.500,77.110,16.270,2988.000,543.900,94.260,17.840,234.700,59.770,13.880,3.361,343.300,84.970,18.450,4.450,hard
2819.000,500.500,76.920,16.290,3020.000,540.400,93.770,17.990,235.300,59.440,13.850,3.354,343.000,84.480,18.340,4.491,hard
2818.000,503.700,76.980,16.380,3008.000,545.400,94.350,17.910,234.400,59.570,13.760,3.371,342.900,84.950,18.320,4.464,hard
2818.000,507.600,77.540,16.450,3029.000,544.100,94.780,17.950,237.100,59.510,13.940,3.351,343.900,85.250,18.490,4.479,hard
2838.000,505.000,77.130,16.460,2996.000,543.700,93.440,17.900,235.700,59.720,13.910,3.346,346.500,85.440,18.360,4.441,hard
2813.000,502.000,76.870,16.140,3016.000,537.400,92.780,17.810,235.600,59.710,13.920,3.353,346.800,85.390,18.360,4.403,hard
2818.000,499.600,76.150,16.200,2994.000,540.800,93.370,17.770,238.800,59.880,13.810,3.360,345.700,85.330,18.430,4.444,hard
2813.000,498.000,76.570,16.250,3003.000,539.400,93.860,17.900,236.600,59.810,13.840,3.348,347.400,85.600,18.390,4.522,hard
2803.000,502.400,76.950,16.060,2995.000,540.900,93.310,17.790,235.700,59.980,13.880,3.366,346.500,85.560,18.410,4.468,hard
2829.000,502.400,76.320,16.010,2963.000,534.600,93.360,17.770,236.100,59.860,13.910,3.375,347.200,85.720,18.430,4.438,hard
2823.000,501.500,77.240,16.350,2978.000,540.300,93.160,17.990,235.600,59.630,13.860,3.363,346.600,85.110,18.530,4.497,hard
2831.000,503.700,77.000,16.350,2989.000,537.600,92.990,17.850,236.000,59.430,13.790,3.372,346.700,85.360,18.420,4.488,hard
2798.000,496.800,76.740,16.260,2971.000,533.800,93.180,17.700,235.600,59.330,13.780,3.308,344.200,84.910,18.320,4.400,hard
