A-DC1,A-DC2,A-DC3,A-DC4,A-DC5,A-DC6,A-DC7,A-DC8,B-DC1,B-DC2,B-DC3,B-DC4,B-DC5,B-DC6,B-DC7,B-DC8,condition
1964.000,384.900,62.920,15.450,1849.000,351.100,52.080,9.046,190.100,30.710,6.411,2.171,315.100,65.310,14.600,5.650,baseline
1966.000,385.800,62.690,15.450,1850.000,345.700,51.340,9.010,190.000,30.710,6.424,2.169,315.900,65.370,14.720,5.603,baseline
1972.000,384.900,63.010,15.460,1844.000,344.800,51.670,9.112,189.000,30.920,6.380,2.152,316.600,65.510,14.710,5.621,baseline
1988.000,388.800,64.050,15.630,1841.000,349.800,52.110,9.180,190.700,31.060,6.531,2.197,317.800,64.890,14.790,5.615,baseline
1985.000,391.500,64.350,15.870,1842.000,351.100,51.700,9.143,190.100,31.340,6.607,2.180,319.300,65.110,14.740,5.534,baseline
1960.000,388.400,63.120,15.580,1820.000,349.600,51.730,8.997,189.300,31.200,6.531,2.151,316.000,64.540,14.610,5.462,baseline
1958.000,390.100,62.770,15.450,1835.000,349.100,51.350,9.101,191.200,31.170,6.507,2.176,316.500,64.740,14.560,5.547,baseline
1951.000,389.000,62.850,15.370,1835.000,350.700,51.740,9.124,190.900,31.350,6.548,2.179,318.500,64.860,14.610,5.621,baseline
1973.000,391.200,62.890,15.410,1829.000,350.000,51.330,9.168,190.500,31.330,6.614,2.190,318.500,65.230,14.780,5.604,baseline
1968.000,393.600,62.980,15.480,1837.000,347.900,52.170,9.205,191.700,31.360,6.491,2.206,322.300,66.190,14.810,5.679,baseline
1967.000,392.800,64.020,15.780,1843.000,351.900,51.390,9.173,195.900,31.470,6.515,2.228,324.900,66.370,15.060,5.750,baseline
1973.000,393.600,64.130,15.850,1836.000,352.000,52.510,9.250,193.500,31.670,6.595,2.219,326.800,67.960,15.340,5.865,baseline
1970.000,393.000,64.720,15.910,1840.000,351.500,52.440,9.271,195.600,31.600,6.588,2.236,329.700,67.470,15.130,5.868,baseline
1979.000,392.300,63.520,15.580,1827.000,349.600,52.120,9.159,194.500,31.490,6.531,2.212,323.500,66.600,14.990,5.682,baseline
1971.000,392.300,62.370,15.490,1825.000,348.800,51.850,9.209,191.600,31.310,6.479,2.185,322.900,65.990,14.880,5.689,baseline
1960.000,391.600,62.830,15.360,1817.000,350.100,51.460,9.037,192.200,31.140,6.566,2.199,322.900,65.710,15.040,5.748,baseline
1969.000,391.700,63.370,15.430,1817.000,351.100,51.910,9.237,190.800,31.230,6.545,2.208,323.500,65.880,15.070,5.703,baseline
1950.000,392.000,62.930,15.500,1821.000,351.200,52.330,9.186,193.400,31.450,6.547,2.243,322.600,66.390,15.080,5.738,baseline
1967.000,389.300,63.420,15.830,1840.000,354.300,52.560,9.237,194.300,31.480,6.606,2.244,325.600,66.630,15.210,5.809,baseline
1975.000,397.500,64.820,15.880,1832.000,350.800,52.300,9.304,192.000,31.590,6.632,2.230,326.200,67.530,15.240,5.812,baseline
1985.000,393.200,64.040,15.970,1832.000,352.600,52.480,9.330,191.600,31.640,6.644,2.257,328.800,67.860,15.510,5.962,baseline
1992.000,398.600,64.740,15.890,1840.000,351.700,52.350,9.310,192.100,31.870,6.651,2.261,327.300,67.580,15.240,5.795,baseline
1959.000,393.300,64.020,15.720,1831.000,350.400,52.090,9.215,193.500,31.550,6.552,2.219,324.100,66.570,15.110,5.787,baseline
1962.000,395.100,63.790,15.470,1823.000,348.700,51.940,9.254,190.800,31.430,6.595,2.217,321.900,66.330,14.900,5.781,baseline
1960.000,393.600,64.080,15.740,1831.000,351.900,52.620,9.306,190.500,31.390,6.576,2.230,322.400,66.110,15.070,5.732,baseline
1990.000,394.600,64.080,15.610,1824.000,350.700,51.740,9.299,191.600,31.310,6.585,2.216,322.300,66.470,14.930,5.752,baseline
1969.000,394.900,64.020,15.650,1847.000,352.200,52.670,9.352,191.000,31.430,6.590,2.233,323.300,66.540,15.220,5.746,baseline
1969.000,395.000,64.600,15.820,1835.000,354.400,52.140,9.292,190.200,31.520,6.607,2.249,325.900,67.270,15.260,5.813,baseline
1994.000,399.100,64.850,15.910,1846.000,353.600,52.840,9.397,191.700,31.720,6.719,2.243,328.000,67.470,15.400,5.891,baseline
2008.000,396.200,64.900,16.030,1829.000,355.700,52.760,9.442,194.400,31.440,6.697,2.254,329.600,68.030,15.480,5.949,baseline
2017.000,397.500,64.880,15.880,1834.000,352.800,52.320,9.256,194.700,31.700,6.670,2.262,328.600,67.320,15.250,5.804,baseline
1982.000,394.000,63.850,15.620,1825.000,351.700,52.050,9.323,191.500,31.520,6.627,2.232,325.400,66.920,15.240,5.818,baseline
1962.000,390.100,63.820,15.640,1835.000,351.000,52.820,9.261,191.000,31.510,6.673,2.257,326.800,66.420,15.250,5.816,baseline
1972.000,396.600,63.430,15.720,1833.000,353.800,52.330,9.312,194.000,31.340,6.621,2.243,326.100,66.880,15.260,5.846,baseline
1969.000,399.500,63.970,15.680,1835.000,354.000,52.570,9.271,193.800,31.560,6.568,2.249,327.700,67.160,15.340,5.810,baseline
1983.000,394.500,64.050,15.690,1843.000,350.800,52.920,9.323,194.300,31.860,6.713,2.274,328.400,67.640,15.450,5.880,baseline
1992.000,397.300,64.540,15.950,1833.000,353.800,52.900,9.425,192.200,31.890,6.657,2.277,329.600,68.160,15.560,5.959,baseline
1995.000,399.000,65.400,16.040,1838.000,353.800,53.080,9.354,195.400,32.000,6.725,2.295,334.000,69.160,15.640,5.987,baseline
1998.000,401.800,64.800,15.710,1835.000,351.200,52.520,9.255,194.700,31.930,6.645,2.272,329.000,67.700,15.390,5.850,baseline
1992.000,394.300,63.800,15.580,1832.000,350.500,52.320,9.216,192.600,31.590,6.637,2.256,328.300,67.720,15.370,5.891,baseline
1961.000,390.700,63.860,15.440,1827.000,348.200,52.300,9.274,193.900,31.540,6.570,2.273,327.500,67.600,15.270,5.830,baseline
1997.000,390.500,64.000,15.820,1833.000,348.000,52.850,9.202,192.700,31.680,6.666,2.245,328.300,67.440,15.420,5.873,baseline
1973.000,395.200,64.360,15.700,1840.000,350.400,52.760,9.281,192.300,31.510,6.638,2.251,328.800,67.580,15.420,5.893,baseline
1985.000,392.600,64.230,15.740,1837.000,348.900,52.760,9.182,195.200,31.670,6.695,2.266,331.700,68.300,15.500,5.974,baseline
1977.000,396.700,64.750,15.820,1833.000,350.700,51.570,9.164,194.900,31.850,6.749,2.270,333.600,69.210,15.550,6.031,baseline
2006.000,396.000,64.250,15.830,1830.000,349.200,51.080,9.033,194.000,32.090,6.725,2.275,336.400,68.810,15.740,5.982,baseline
1976.000,391.600,61.570,15.110,1805.000,344.100,50.080,8.620,194.800,31.940,6.706,2.292,331.600,67.930,15.460,5.941,baseline
1946.000,384.800,59.810,14.800,1810.000,342.800,49.500,8.670,195.600,31.680,6.649,2.281,329.500,68.050,15.340,5.895,baseline
1943.000,386.100,60.420,14.810,1796.000,342.700,50.640,8.806,193.600,31.790,6.659,2.275,329.800,67.910,15.470,5.867,baseline
1970.000,389.700,61.050,14.970,1823.000,344.300,50.700,8.941,195.300,31.750,6.676,2.262,330.300,68.040,15.320,5.876,baseline
1954.000,390.300,62.550,15.050,1818.000,346.700,52.010,9.178,196.200,31.730,6.670,2.298,329.900,68.060,15.440,5.954,baseline
1974.000,392.400,63.880,15.490,1841.000,350.900,52.470,9.187,195.400,31.750,6.733,2.272,331.000,68.170,15.620,6.013,baseline
1983.000,393.200,64.630,15.750,1834.000,350.100,52.480,9.268,191.600,31.900,6.667,2.297,334.100,69.150,15.780,6.024,baseline
2000.000,398.200,65.140,15.840,1833.000,351.500,52.530,9.272,193.600,31.890,6.766,2.298,337.200,69.270,15.750,6.033,baseline
1976.000,394.600,64.220,15.480,1839.000,351.100,52.200,9.163,192.900,31.960,6.696,2.270,332.000,68.170,15.440,5.970,baseline
1957.000,389.300,63.480,15.360,1817.000,350.200,51.760,9.220,197.000,31.880,6.706,2.290,329.600,67.450,15.460,5.872,baseline
1979.000,387.000,62.840,15.430,1813.000,348.700,52.210,9.248,192.700,31.770,6.725,2.277,329.500,67.390,15.220,5.907,baseline
1967.000,388.800,63.080,15.390,1830.000,348.100,52.620,9.149,195.300,31.620,6.698,2.265,329.600,67.830,15.450,5.883,baseline
1950.000,389.300,63.640,15.460,1832.000,350.600,52.470,9.293,193.100,31.810,6.683,2.244,329.200,67.920,15.510,5.914,baseline
1965.000,390.900,64.290,15.970,1811.000,350.300,52.860,9.222,194.400,31.990,6.699,2.311,331.700,68.470,15.530,5.943,baseline
1980.000,395.700,64.090,16.080,1821.000,350.600,52.430,9.199,192.000,31.880,6.731,2.327,333.200,69.020,15.830,6.011,baseline
1981.000,397.000,64.890,15.900,1834.000,349.900,52.610,9.268,194.900,31.860,6.784,2.308,336.000,69.880,15.850,6.145,baseline
1993.000,395.700,65.160,16.130,1841.000,350.500,52.800,9.368,193.300,31.830,6.761,2.329,339.700,70.630,16.010,6.188,baseline
2002.000,396.400,64.760,15.940,1828.000,350.300,51.970,9.144,195.000,31.930,6.754,2.317,335.300,68.830,15.460,6.028,baseline
1970.000,394.600,63.650,15.520,1828.000,348.400,51.810,9.186,194.800,31.670,6.717,2.307,331.900,68.550,15.480,5.938,baseline
1966.000,389.300,63.700,15.610,1823.000,349.400,51.590,9.172,194.100,31.800,6.654,2.304,330.600,68.430,15.740,5.991,baseline
1979.000,391.800,63.940,15.540,1822.000,349.700,51.980,9.184,195.400,31.850,6.715,2.295,333.000,68.430,15.590,5.949,baseline
1966.000,392.800,64.150,15.510,1821.000,349.100,51.930,9.212,194.100,31.780,6.751,2.293,333.300,68.330,15.650,6.026,baseline
1966.000,395.200,63.540,15.650,1835.000,347.200,52.260,9.254,195.200,31.710,6.742,2.313,333.700,68.600,15.560,6.097,baseline
1990.000,396.800,64.650,15.790,1815.000,351.300,52.380,9.254,195.600,31.810,6.750,2.311,336.100,69.620,15.800,6.145,baseline
1986.000,396.100,64.190,15.920,1830.000,354.000,52.320,9.212,194.700,32.030,6.802,2.332,337.500,70.340,16.010,6.213,baseline
1984.000,400.300,64.770,16.120,1826.000,351.300,52.490,9.300,196.300,32.170,6.819,2.326,341.400,71.040,16.210,6.193,baseline
1993.000,399.300,64.890,15.860,1816.000,347.800,52.090,9.130,197.200,31.990,6.717,2.296,335.700,69.490,15.770,6.089,baseline
1961.000,395.400,63.830,15.780,1805.000,350.800,52.160,9.231,195.300,31.820,6.678,2.331,335.500,68.970,15.700,6.092,baseline
1977.000,393.600,64.010,15.790,1832.000,349.100,51.650,9.152,195.400,31.910,6.780,2.299,335.100,69.170,15.820,6.126,baseline
1995.000,399.000,64.270,15.820,1814.000,350.500,52.140,9.074,193.200,31.890,6.741,2.323,334.400,69.350,15.890,6.115,baseline
1973.000,396.500,64.100,15.840,1831.000,349.200,52.270,9.147,194.300,32.000,6.692,2.323,336.800,69.530,15.880,6.119,baseline
2005.000,397.800,65.350,16.050,1826.000,350.700,52.240,9.169,196.700,31.830,6.707,2.311,338.000,69.730,16.220,6.176,baseline
1997.000,397.700,65.390,16.210,1826.000,351.300,52.570,9.125,196.700,31.970,6.754,2.303,339.700,70.380,16.180,6.255,baseline
1999.000,403.300,65.640,16.160,1819.000,348.200,52.430,9.209,193.900,32.280,6.783,2.323,343.400,71.200,16.370,6.311,baseline
2008.000,405.500,66.770,16.250,1829.000,354.600,52.570,9.057,194.700,32.380,6.801,2.296,342.400,71.080,16.200,6.156,baseline
1999.000,397.100,64.510,15.850,1811.000,348.900,52.650,9.086,194.900,31.760,6.755,2.279,336.400,69.240,15.910,6.100,baseline
2000.000,399.000,64.540,15.740,1826.000,348.900,51.890,8.982,196.000,31.940,6.658,2.282,335.800,69.550,15.960,6.096,baseline
1994.000,395.800,65.300,15.910,1825.000,349.700,52.360,9.017,194.500,31.860,6.660,2.295,335.300,69.530,16.020,6.169,baseline
1985.000,397.900,65.170,15.990,1829.000,348.000,51.650,9.099,194.500,31.860,6.699,2.281,334.300,69.680,16.000,6.154,baseline
1998.000,399.500,64.840,16.030,1811.000,349.600,51.790,9.049,193.700,31.630,6.675,2.285,336.100,69.900,16.110,6.187,baseline
1996.000,399.600,66.190,16.010,1831.000,351.300,52.010,9.022,196.400,31.740,6.698,2.283,338.400,70.560,16.230,6.291,baseline
2012.000,399.400,65.180,16.120,1828.000,349.900,52.240,9.113,193.900,32.070,6.785,2.298,342.100,71.290,16.530,6.334,baseline
2010.000,407.400,66.820,16.330,1826.000,347.300,52.330,9.000,196.100,32.270,6.833,2.296,344.600,71.660,16.710,6.461,baseline
2024.000,404.100,64.940,16.100,1838.000,348.800,51.300,8.806,198.100,32.120,6.721,2.299,342.300,70.250,16.090,6.250,baseline
1992.000,399.200,64.580,15.600,1823.000,345.900,50.950,8.835,195.400,31.940,6.694,2.271,336.600,69.720,15.890,6.188,baseline
1999.000,401.500,63.890,15.410,1807.000,346.800,51.090,8.922,194.600,31.840,6.637,2.259,334.100,69.510,15.920,6.157,baseline
1999.000,398.400,64.140,15.770,1815.000,348.400,51.380,8.952,194.300,31.640,6.663,2.236,334.900,69.130,16.100,6.133,baseline
1996.000,401.200,65.070,15.870,1813.000,349.200,51.470,9.017,193.700,31.640,6.614,2.274,336.100,69.190,16.070,6.183,baseline
2004.000,402.300,65.190,15.770,1830.000,348.300,51.820,8.896,193.100,31.630,6.655,2.273,335.300,69.690,16.130,6.201,baseline
2010.000,400.900,65.520,16.020,1822.000,349.900,51.620,9.130,193.800,31.710,6.663,2.277,336.100,70.030,16.170,6.318,baseline
2028.000,404.900,65.480,16.310,1840.000,352.300,52.660,9.184,194.000,31.820,6.677,2.265,339.900,71.160,16.400,6.362,baseline
2013.000,403.600,67.090,16.490,1833.000,348.800,52.500,9.024,195.300,32.040,6.764,2.284,343.200,71.230,16.390,6.332,baseline
2028.000,399.500,66.470,16.130,1823.000,348.100,51.120,9.025,196.200,31.740,6.638,2.245,334.800,69.880,16.030,6.134,baseline
2002.000,397.500,64.460,16.020,1823.000,349.500,51.570,9.056,191.800,31.590,6.596,2.227,333.300,69.400,15.900,6.189,baseline
1987.000,399.700,65.290,16.010,1833.000,348.300,51.900,9.164,193.600,31.440,6.521,2.258,333.000,69.270,15.910,6.157,baseline
2008.000,398.900,65.530,16.070,1837.000,347.700,52.150,9.122,196.600,31.520,6.645,2.246,331.400,69.250,15.900,6.166,baseline
2003.000,398.200,65.360,16.230,1817.000,346.600,52.140,9.110,193.500,31.420,6.653,2.216,333.000,69.200,15.960,6.234,baseline
1992.000,401.500,65.350,16.030,1842.000,350.500,52.630,9.155,192.700,31.720,6.628,2.246,334.600,69.730,16.250,6.292,baseline
2001.000,407.100,67.140,16.360,1824.000,353.200,52.140,9.162,195.200,31.520,6.638,2.236,338.400,70.480,16.290,6.335,baseline
2014.000,407.100,65.690,16.430,1828.000,351.300,52.450,9.162,193.200,31.670,6.580,2.240,339.200,71.140,16.540,6.399,baseline
2026.000,410.200,66.750,16.500,1835.000,351.200,52.090,9.171,196.500,31.760,6.651,2.264,343.400,71.030,16.460,6.414,baseline
2016.000,403.300,66.270,15.980,1810.000,351.200,51.840,9.064,196.600,31.570,6.653,2.210,336.600,69.440,16.130,6.238,baseline
1992.000,399.800,64.560,15.930,1829.000,346.200,51.620,9.126,195.700,31.460,6.592,2.214,331.400,69.290,15.870,6.166,baseline
2010.000,399.900,65.730,15.970,1819.000,347.200,51.970,9.086,192.700,31.360,6.543,2.225,331.400,68.960,15.880,6.155,baseline
1985.000,398.600,65.640,16.000,1823.000,347.100,51.910,8.994,191.500,31.300,6.542,2.221,332.800,69.400,15.900,6.163,baseline
2011.000,397.600,65.030,16.150,1818.000,351.400,51.970,9.089,192.000,31.270,6.508,2.212,333.500,68.960,15.950,6.176,baseline
2010.000,397.800,65.730,16.280,1825.000,346.600,52.130,9.126,195.100,31.430,6.552,2.221,333.800,69.250,16.020,6.238,baseline
2005.000,403.300,66.420,16.250,1834.000,349.900,52.720,9.184,191.200,31.360,6.535,2.255,336.400,69.800,16.090,6.282,baseline
2004.000,405.000,66.510,16.390,1834.000,349.900,52.470,9.163,192.000,31.690,6.583,2.219,339.900,71.070,16.560,6.405,baseline
2037.000,405.100,67.050,16.370,1845.000,349.100,52.260,9.164,195.200,31.760,6.661,2.238,340.400,70.530,16.300,6.279,baseline
2019.000,397.300,65.910,16.140,1833.000,350.100,52.410,9.090,192.500,31.390,6.503,2.203,334.300,69.050,16.010,6.150,baseline
2003.000,398.600,65.710,15.960,1821.000,348.000,51.310,9.014,193.800,31.170,6.517,2.199,332.100,68.790,16.010,6.174,baseline
1987.000,396.500,65.190,16.000,1823.000,347.500,52.470,9.119,192.500,31.370,6.461,2.194,332.400,68.630,15.860,6.189,baseline
2007.000,399.700,64.720,16.170,1828.000,347.600,51.440,9.105,192.700,31.360,6.519,2.193,330.400,69.030,15.860,6.120,baseline
2019.000,398.300,65.860,15.970,1823.000,346.300,52.120,9.104,192.200,31.260,6.481,2.214,332.000,68.920,15.960,6.185,baseline
2018.000,396.700,65.470,15.920,1828.000,348.600,52.110,9.137,191.500,31.410,6.559,2.234,333.100,69.600,16.090,6.207,baseline
1999.000,403.200,66.550,16.330,1825.000,349.000,52.550,9.127,194.200,31.390,6.583,2.220,336.500,70.590,16.180,6.303,baseline
2006.000,402.800,66.370,16.320,1816.000,349.300,51.520,9.107,196.600,31.540,6.571,2.197,339.600,71.040,16.420,6.388,baseline
2015.000,406.200,65.810,16.190,1828.000,349.400,50.730,9.066,192.600,31.520,6.602,2.207,339.500,70.780,16.230,6.243,baseline
2006.000,400.400,64.030,15.960,1819.000,344.900,50.750,8.924,192.700,31.280,6.473,2.197,333.100,69.380,16.010,6.142,baseline
1984.000,392.700,63.660,15.730,1811.000,345.900,50.800,8.911,191.100,31.110,6.481,2.182,332.000,68.920,15.760,6.176,baseline
1978.000,392.900,64.040,15.780,1826.000,345.000,51.800,8.933,190.400,31.180,6.451,2.209,331.200,68.510,15.830,6.203,baseline
1997.000,395.100,64.310,15.760,1833.000,348.200,51.180,8.929,190.700,31.090,6.453,2.182,330.300,68.920,15.890,6.147,baseline
1992.000,393.400,63.980,15.900,1819.000,347.300,51.690,9.057,189.700,31.030,6.471,2.200,330.200,68.980,15.870,6.131,baseline
1986.000,393.000,64.700,16.130,1813.000,348.600,51.990,9.051,193.500,31.270,6.488,2.180,332.100,69.280,16.050,6.221,baseline
1988.000,398.200,65.560,16.000,1822.000,349.600,51.540,9.106,192.000,31.510,6.541,2.190,336.400,69.810,16.200,6.338,baseline
1992.000,403.400,65.450,16.130,1826.000,350.000,52.270,9.078,192.400,31.470,6.578,2.215,338.400,70.310,16.170,6.309,baseline
2014.000,403.900,65.940,16.220,1823.000,348.100,51.780,9.040,192.300,31.370,6.570,2.236,340.900,70.730,16.230,6.308,baseline
2002.000,399.400,64.060,15.980,1833.000,346.500,50.880,9.019,194.700,31.330,6.537,2.198,333.100,68.650,15.950,6.145,baseline
1973.000,393.500,64.350,15.730,1815.000,346.300,51.700,9.018,189.400,31.090,6.479,2.196,330.800,68.110,15.810,6.152,baseline
1968.000,391.100,64.610,15.820,1814.000,345.300,51.670,8.931,191.900,30.810,6.441,2.179,329.100,67.930,15.720,6.190,baseline
1967.000,393.100,64.270,15.870,1819.000,346.800,51.330,8.999,193.700,30.970,6.434,2.192,329.900,67.810,15.660,6.097,baseline
1986.000,391.900,64.180,15.890,1814.000,347.300,51.230,9.048,192.600,31.040,6.436,2.198,330.000,68.180,15.780,6.126,baseline
1983.000,397.700,64.360,15.850,1831.000,345.400,51.700,9.066,190.300,30.950,6.439,2.183,331.000,68.460,15.950,6.134,baseline
1993.000,396.300,64.480,15.910,1824.000,346.400,51.930,9.105,190.800,31.290,6.486,2.178,334.400,69.050,15.990,6.204,baseline
1990.000,396.600,65.400,16.080,1827.000,347.900,51.650,9.101,192.000,31.150,6.493,2.208,335.800,69.380,16.130,6.242,baseline
1992.000,397.000,65.370,16.260,1819.000,347.700,51.830,9.056,194.600,31.280,6.521,2.229,337.200,70.100,16.350,6.363,baseline
2005.000,399.300,66.660,16.000,1826.000,347.500,51.330,9.097,194.400,31.560,6.519,2.215,335.700,68.990,15.890,6.138,baseline
2003.000,395.500,63.860,15.810,1819.000,345.100,51.150,8.936,191.900,31.020,6.462,2.211,328.500,68.080,15.600,6.139,baseline
1963.000,391.300,64.240,15.740,1809.000,347.600,51.650,8.943,191.400,31.050,6.373,2.198,327.500,67.650,15.570,6.042,baseline
1966.000,392.100,64.730,15.830,1825.000,346.000,51.980,8.998,189.400,31.180,6.419,2.167,328.600,68.100,15.690,6.006,baseline
1972.000,393.400,63.700,15.630,1802.000,345.900,51.430,9.009,191.100,30.960,6.398,2.178,327.000,68.040,15.530,6.041,baseline
1961.000,392.100,64.670,15.820,1808.000,344.300,51.900,9.156,190.600,30.840,6.495,2.175,329.000,68.100,15.730,6.157,baseline
1978.000,396.200,64.450,16.040,1823.000,345.900,51.720,9.115,191.400,30.910,6.461,2.204,329.700,68.880,15.960,6.129,baseline
1975.000,396.500,65.620,16.100,1825.000,346.700,52.110,9.022,193.200,31.210,6.501,2.209,332.500,69.080,15.920,6.202,baseline
1990.000,399.600,65.010,16.190,1816.000,346.300,52.160,9.129,191.400,31.300,6.584,2.209,335.500,69.270,16.100,6.353,baseline
2004.000,397.200,66.270,16.200,1829.000,347.200,51.330,9.073,191.200,31.500,6.525,2.214,335.100,69.240,16.020,6.197,baseline
1987.000,395.700,64.310,15.700,1815.000,347.400,51.770,9.089,191.800,31.030,6.457,2.169,330.100,68.120,15.700,6.129,baseline
1980.000,388.900,62.840,15.690,1825.000,345.800,51.200,9.071,189.000,31.020,6.449,2.176,327.600,67.720,15.540,6.088,baseline
1980.000,391.900,63.990,15.720,1804.000,346.000,51.560,9.033,190.300,30.960,6.470,2.188,327.500,67.870,15.750,6.117,baseline
1981.000,392.700,64.200,15.760,1810.000,346.300,51.700,9.033,188.900,30.970,6.475,2.191,326.500,67.430,15.710,6.081,baseline
1977.000,391.300,63.730,15.690,1806.000,344.300,51.520,9.003,188.900,30.940,6.475,2.187,327.100,68.020,15.790,6.102,baseline
1981.000,397.100,64.970,15.800,1825.000,348.400,51.670,9.059,191.000,31.010,6.509,2.193,328.800,68.410,15.720,6.142,baseline
2001.000,398.400,65.210,16.040,1825.000,349.100,52.420,9.126,192.500,31.270,6.523,2.189,332.500,68.970,15.950,6.203,baseline
2012.000,399.300,65.230,16.130,1807.000,348.400,52.100,9.169,190.900,31.320,6.540,2.194,335.000,69.590,16.170,6.250,baseline
2008.000,401.900,65.120,15.980,1818.000,347.400,51.590,9.028,193.000,31.550,6.504,2.186,333.700,68.780,15.740,6.102,baseline
1974.000,391.200,63.890,15.660,1821.000,346.600,51.430,8.912,192.300,31.140,6.473,2.195,328.100,67.830,15.650,6.058,baseline
1965.000,391.900,63.930,15.740,1818.000,346.500,51.120,8.950,190.200,30.900,6.436,2.176,326.900,67.070,15.730,6.084,baseline
1976.000,392.300,64.060,15.650,1818.000,346.100,51.140,8.910,190.300,31.040,6.479,2.184,328.300,67.820,15.720,6.081,baseline
1975.000,392.100,63.880,15.560,1817.000,342.700,51.310,8.963,189.600,30.880,6.433,2.173,327.200,67.440,15.650,6.104,baseline
1982.000,393.200,64.790,15.740,1827.000,346.100,51.670,8.982,189.900,30.900,6.426,2.203,327.900,67.860,15.790,6.149,baseline
1990.000,392.900,64.780,15.720,1822.000,345.100,51.960,8.981,189.700,31.030,6.447,2.225,330.200,68.610,16.000,6.169,baseline
1991.000,396.500,65.060,15.920,1825.000,344.900,51.820,9.148,191.000,31.120,6.551,2.205,332.600,69.690,16.000,6.242,baseline
1996.000,398.900,64.900,16.030,1845.000,347.000,52.340,9.065,192.300,31.200,6.520,2.241,337.500,70.420,16.230,6.386,baseline
2017.000,401.100,65.760,16.110,1833.000,345.900,51.320,9.015,193.600,31.290,6.542,2.228,335.900,69.450,15.800,6.158,baseline
1989.000,395.500,64.270,15.640,1837.000,345.500,50.990,9.013,190.600,30.990,6.441,2.202,327.900,67.650,15.630,6.018,baseline
1979.000,393.200,63.810,15.520,1813.000,342.800,51.360,8.926,192.100,30.940,6.404,2.191,325.700,67.770,15.540,6.077,baseline
1961.000,387.400,64.210,15.570,1826.000,344.800,51.420,9.031,192.600,30.700,6.454,2.174,325.300,68.050,15.560,6.119,baseline
1989.000,391.900,63.680,15.810,1819.000,347.300,51.290,8.943,190.900,30.780,6.411,2.206,325.900,66.820,15.580,6.046,baseline
1967.000,391.300,64.020,15.600,1833.000,343.600,51.770,8.932,191.000,30.830,6.424,2.202,324.900,67.570,15.780,6.078,baseline
1994.000,391.400,64.580,15.610,1829.000,347.800,51.670,8.980,189.300,30.790,6.418,2.193,328.200,68.380,15.730,6.125,baseline
1980.000,392.800,65.280,15.840,1839.000,349.000,52.280,9.028,192.500,31.000,6.485,2.219,331.000,68.630,15.940,6.200,baseline
1998.000,392.200,65.450,15.960,1831.000,346.200,52.220,9.052,190.800,30.880,6.574,2.217,333.500,69.030,16.110,6.244,baseline
2005.000,400.400,65.450,16.070,1839.000,345.800,51.850,9.103,193.000,31.220,6.537,2.203,332.800,68.880,15.790,6.068,baseline
1997.000,390.300,63.770,15.540,1811.000,346.000,52.000,8.937,190.900,30.960,6.481,2.210,325.600,67.370,15.430,5.958,baseline
1971.000,391.100,63.610,15.630,1830.000,343.500,51.510,8.955,188.400,30.580,6.458,2.166,324.700,67.310,15.320,6.029,baseline
1979.000,386.700,64.050,15.470,1820.000,344.800,51.830,9.098,191.700,30.860,6.411,2.201,323.000,67.180,15.510,6.007,baseline
1965.000,389.400,63.800,15.600,1828.000,343.700,51.750,8.984,188.900,30.740,6.409,2.196,322.900,66.860,15.440,5.942,baseline
1978.000,388.200,63.960,15.570,1819.000,344.300,51.860,9.112,187.500,30.660,6.403,2.193,324.000,67.120,15.420,5.993,baseline
1987.000,391.700,63.770,15.890,1843.000,347.300,51.700,9.074,190.800,30.710,6.466,2.201,326.100,67.280,15.640,6.080,baseline
1989.000,389.700,64.770,15.750,1828.000,347.800,52.360,9.158,191.200,30.910,6.503,2.204,328.900,68.060,15.660,6.060,baseline
1981.000,393.000,64.950,15.890,1824.000,349.300,51.910,9.081,190.800,31.070,6.564,2.224,329.800,68.510,15.780,6.129,baseline
2003.000,396.800,65.650,16.280,1822.000,348.900,52.430,9.051,189.200,31.080,6.516,2.217,331.600,69.530,15.890,6.170,baseline
2013.000,393.100,64.560,15.600,1833.000,349.100,51.710,9.002,190.900,31.030,6.453,2.221,326.000,67.740,15.480,5.944,baseline
1979.000,392.000,64.420,15.460,1844.000,346.600,51.520,9.005,189.900,30.850,6.465,2.185,325.500,66.330,15.430,5.971,baseline
1963.000,388.700,64.810,15.620,1823.000,346.100,51.530,8.968,191.700,30.710,6.494,2.215,323.100,67.350,15.430,6.010,baseline
1977.000,390.300,63.910,15.640,1831.000,345.200,51.850,9.058,189.400,30.800,6.475,2.207,323.700,66.940,15.460,5.946,baseline
1966.000,389.700,64.050,15.600,1823.000,348.700,52.010,9.057,188.800,31.000,6.457,2.217,323.300,67.180,15.320,6.017,baseline
1984.000,395.500,64.290,15.790,1831.000,346.100,51.830,9.132,188.900,30.950,6.515,2.239,324.800,67.260,15.490,5.969,baseline
1997.000,393.200,64.140,15.900,1835.000,346.700,52.200,9.121,189.600,30.940,6.505,2.236,326.700,67.680,15.600,6.075,baseline
2020.000,394.300,64.170,15.770,1841.000,347.800,52.590,9.163,189.700,31.200,6.525,2.266,329.300,68.610,15.770,6.144,baseline
1994.000,396.400,65.110,16.020,1829.000,351.800,51.920,9.055,191.400,31.390,6.542,2.232,333.400,69.050,15.930,6.228,baseline
1993.000,398.500,65.130,15.920,1843.000,346.500,52.060,9.083,192.500,31.340,6.593,2.230,330.600,68.280,15.610,6.013,baseline
1982.000,395.300,64.520,15.720,1830.000,344.000,51.890,9.094,191.600,31.100,6.494,2.224,326.700,67.640,15.410,6.029,baseline
1982.000,391.500,63.850,15.780,1829.000,347.200,51.950,8.987,190.500,30.990,6.521,2.235,325.900,67.750,15.510,6.039,baseline
1959.000,396.000,64.250,15.760,1823.000,347.000,52.140,9.060,192.100,31.030,6.552,2.234,327.700,67.680,15.520,6.001,baseline
1985.000,392.000,64.320,15.670,1849.000,346.300,52.730,9.166,191.600,30.960,6.540,2.212,327.300,68.010,15.530,6.041,baseline
1979.000,393.400,64.320,15.850,1832.000,346.200,51.900,9.125,189.700,31.080,6.532,2.248,328.800,68.210,15.660,6.031,baseline
1988.000,396.200,64.960,15.920,1830.000,346.000,52.090,9.132,191.500,31.180,6.607,2.242,331.700,68.780,15.870,6.110,baseline
1998.000,395.100,65.260,15.960,1836.000,350.600,52.390,9.121,192.700,31.190,6.617,2.258,334.000,69.100,16.040,6.210,baseline
2004.000,396.400,65.820,16.110,1834.000,348.600,52.490,9.067,192.800,31.250,6.670,2.262,336.700,70.160,16.080,6.246,baseline
1999.000,393.500,64.670,15.980,1836.000,348.400,51.560,9.001,192.700,31.340,6.564,2.241,332.000,68.720,15.670,6.076,baseline
1983.000,395.300,64.070,15.710,1823.000,344.500,51.240,9.025,191.700,31.140,6.518,2.227,329.800,68.180,15.620,6.002,baseline
1978.000,390.400,64.070,15.850,1828.000,346.300,51.780,8.989,190.400,31.190,6.515,2.247,329.000,67.920,15.690,6.041,baseline
1978.000,395.200,64.280,15.800,1821.000,348.100,51.690,9.053,191.600,31.230,6.581,2.244,328.700,68.510,15.700,6.092,baseline
1970.000,391.600,64.870,15.670,1827.000,347.000,52.010,8.938,193.000,31.020,6.518,2.227,331.000,68.130,15.710,6.054,baseline
1987.000,394.300,65.290,15.970,1845.000,345.800,51.980,8.981,192.700,31.290,6.586,2.221,331.100,68.650,15.780,6.087,baseline
2000.000,400.200,65.250,15.830,1826.000,348.000,52.390,9.123,192.400,31.340,6.577,2.243,333.200,68.990,15.980,6.131,baseline
1998.000,397.100,64.980,16.080,1839.000,349.100,51.840,9.057,191.200,31.320,6.641,2.256,335.500,69.120,16.080,6.216,baseline
2005.000,401.600,65.070,15.970,1809.000,348.700,52.120,9.030,192.200,31.490,6.566,2.246,333.800,68.960,15.790,6.101,baseline
1970.000,395.100,64.090,15.830,1824.000,345.800,51.560,8.940,191.200,31.000,6.537,2.223,329.000,67.690,15.600,6.011,baseline
1971.000,393.600,63.590,15.610,1829.000,343.800,50.940,8.983,192.200,31.170,6.531,2.234,330.300,67.710,15.470,6.001,baseline
1956.000,389.100,63.790,15.680,1832.000,348.200,51.610,8.931,190.100,30.850,6.536,2.244,328.500,67.720,15.530,5.951,baseline
1992.000,391.900,63.780,15.660,1823.000,347.300,51.610,8.930,190.400,31.030,6.564,2.219,327.800,67.390,15.510,5.987,baseline
1979.000,392.000,63.970,15.710,1823.000,347.300,51.300,9.021,190.400,30.830,6.540,2.222,328.500,67.540,15.550,6.021,baseline
1976.000,393.800,64.070,15.810,1828.000,346.500,51.780,8.939,189.300,31.200,6.613,2.243,329.500,68.480,15.680,6.127,baseline
1993.000,397.100,65.060,15.880,1830.000,346.400,52.090,9.053,189.400,31.270,6.651,2.260,333.700,68.890,16.010,6.142,baseline
2005.000,398.200,65.210,15.890,1830.000,349.500,51.800,9.035,192.400,31.380,6.628,2.277,334.800,69.680,15.990,6.177,baseline
2006.000,396.900,65.590,16.200,1828.000,349.600,51.850,8.988,190.300,31.590,6.592,2.256,337.500,69.680,15.890,6.110,baseline
1977.000,396.700,63.950,15.760,1833.000,343.000,51.280,8.988,193.000,31.000,6.579,2.243,329.400,68.020,15.490,5.979,baseline
1967.000,389.800,63.410,15.470,1806.000,344.200,51.310,8.922,190.700,31.050,6.566,2.228,327.300,67.300,15.320,5.945,baseline
1976.000,388.300,63.340,15.490,1822.000,345.900,50.810,8.939,190.300,31.060,6.540,2.221,326.100,67.380,15.410,5.929,baseline
1955.000,395.700,63.100,15.710,1809.000,345.700,51.170,8.911,189.800,30.940,6.537,2.206,326.000,66.770,15.290,5.922,baseline
1968.000,386.600,63.520,15.410,1825.000,345.800,51.180,9.023,191.100,31.120,6.538,2.221,324.800,67.350,15.460,5.935,baseline
1963.000,391.900,63.900,15.640,1812.000,345.900,51.010,8.983,187.300,30.930,6.538,2.207,328.500,67.570,15.440,5.985,baseline
1957.000,392.600,64.530,15.870,1822.000,344.000,51.550,9.076,188.400,31.170,6.588,2.239,328.600,68.080,15.500,6.046,baseline
1986.000,392.300,64.670,15.900,1832.000,345.800,51.900,9.077,191.700,31.230,6.583,2.264,333.000,68.570,15.860,6.136,baseline
1993.000,395.500,65.030,16.050,1817.000,347.900,51.620,8.971,192.600,31.460,6.635,2.288,333.500,68.800,15.840,6.081,baseline
2011.000,394.400,64.230,15.740,1813.000,342.800,51.250,9.045,189.300,31.290,6.565,2.233,328.800,67.660,15.250,5.931,baseline
1954.000,390.100,63.690,15.690,1824.000,345.200,51.180,8.998,188.700,31.030,6.482,2.254,326.100,66.960,15.210,5.898,baseline
1969.000,386.100,62.900,15.600,1819.000,343.300,50.790,8.954,190.100,30.870,6.477,2.227,323.400,66.660,15.090,5.890,baseline
1966.000,388.700,63.810,15.620,1811.000,346.600,51.610,9.012,190.400,30.920,6.453,2.222,324.100,66.460,15.150,5.792,baseline
1953.000,388.400,63.430,15.660,1796.000,345.600,51.290,8.951,190.000,30.860,6.494,2.254,322.700,66.210,15.220,5.876,baseline
1965.000,393.100,63.690,15.570,1812.000,344.400,51.860,9.018,188.500,30.750,6.553,2.231,325.300,66.910,15.370,5.886,baseline
1968.000,393.800,64.090,16.010,1821.000,344.500,51.350,9.054,189.300,30.860,6.542,2.247,324.800,67.240,15.420,5.943,baseline
1980.000,391.800,64.980,16.020,1830.000,345.800,52.000,9.100,187.600,31.050,6.549,2.244,329.100,67.670,15.620,6.023,baseline
2003.000,393.500,65.000,16.020,1817.000,347.300,51.900,9.031,192.500,31.270,6.656,2.234,330.700,68.710,15.840,6.076,baseline
1997.000,402.100,65.460,16.050,1817.000,347.900,51.720,8.998,191.900,31.300,6.582,2.264,328.200,67.510,15.340,5.931,baseline
1983.000,390.500,63.270,15.570,1816.000,344.900,51.470,9.012,188.700,30.880,6.503,2.244,324.300,66.590,15.150,5.865,baseline
1967.000,389.900,63.060,15.660,1822.000,346.800,51.760,8.901,188.600,30.990,6.535,2.240,320.800,66.450,15.210,5.816,baseline
1966.000,387.600,64.180,15.700,1807.000,342.900,51.640,9.007,191.000,30.970,6.518,2.220,321.900,66.350,15.080,5.814,baseline
1966.000,391.700,63.980,15.680,1803.000,345.800,51.120,9.022,188.300,30.710,6.514,2.241,322.800,65.990,15.090,5.857,baseline
1965.000,387.800,63.840,15.730,1806.000,347.200,52.300,9.111,188.700,30.960,6.599,2.243,323.200,66.550,15.100,5.852,baseline
1984.000,397.100,64.480,15.720,1823.000,347.700,52.110,9.058,189.600,30.880,6.598,2.262,323.900,67.110,15.390,5.935,baseline
2002.000,396.400,65.000,16.030,1826.000,346.400,52.150,9.071,189.700,30.840,6.557,2.282,325.500,67.450,15.470,5.976,baseline
1984.000,397.400,65.910,15.960,1820.000,351.300,52.070,9.055,190.400,31.070,6.548,2.271,328.100,67.950,15.540,6.017,baseline
2005.000,397.700,65.100,15.840,1815.000,345.500,51.730,9.053,191.700,31.080,6.613,2.237,325.300,67.000,15.190,5.866,baseline
1965.000,391.800,64.560,15.730,1819.000,347.500,51.470,9.008,188.000,30.910,6.552,2.236,321.100,66.140,15.150,5.852,baseline
1980.000,395.400,63.170,15.860,1812.000,346.700,51.590,9.052,189.000,30.960,6.549,2.255,320.600,65.970,15.090,5.809,baseline
1985.000,395.400,65.020,15.620,1819.000,345.600,51.730,9.115,189.500,31.000,6.566,2.263,321.500,66.540,15.160,5.816,baseline
1983.000,393.000,64.100,15.690,1829.000,349.200,51.810,9.069,188.100,30.820,6.541,2.263,320.300,65.850,15.170,5.849,baseline
1991.000,396.000,64.610,15.800,1830.000,346.100,52.400,9.045,189.600,30.870,6.589,2.243,321.200,66.480,15.110,5.881,baseline
2000.000,397.800,65.110,16.080,1832.000,346.100,52.240,9.118,186.200,30.840,6.545,2.257,325.800,67.080,15.460,6.012,baseline
2004.000,396.900,65.290,16.060,1842.000,352.300,52.410,9.130,191.000,31.200,6.568,2.278,327.000,67.150,15.540,6.031,baseline
1998.000,402.100,64.880,15.930,1846.000,351.400,51.880,9.074,188.900,31.160,6.619,2.267,326.600,66.980,15.310,5.845,baseline
1977.000,395.400,63.680,15.850,1818.000,346.900,51.440,9.015,188.900,30.820,6.573,2.238,321.500,66.260,15.130,5.839,baseline
1992.000,396.300,64.200,15.570,1819.000,348.000,51.450,9.001,189.600,31.050,6.562,2.246,320.000,65.930,14.990,5.775,baseline
1988.000,396.600,64.470,15.810,1826.000,349.200,52.490,9.051,190.400,30.990,6.609,2.232,320.600,66.200,15.100,5.780,baseline
1983.000,390.500,63.400,15.660,1821.000,347.400,51.780,9.016,190.000,31.000,6.561,2.259,320.800,66.260,15.040,5.844,baseline
1991.000,392.800,64.490,15.950,1828.000,348.800,52.340,9.149,187.900,30.920,6.571,2.272,321.200,66.320,15.160,5.873,baseline
1980.000,390.300,65.140,15.860,1847.000,346.200,51.770,9.174,187.500,30.870,6.577,2.245,323.900,67.040,15.260,5.924,baseline
2012.000,397.100,64.850,15.980,1825.000,348.000,52.410,9.073,191.200,31.040,6.601,2.279,326.400,67.320,15.440,5.987,baseline
2014.000,400.200,65.330,16.090,1834.000,349.500,53.210,9.130,190.000,31.380,6.633,2.288,330.000,67.910,15.540,6.070,baseline
2010.000,401.100,66.070,16.150,1835.000,348.500,52.950,9.159,191.100,31.420,6.676,2.286,331.700,68.410,15.740,6.063,baseline
2024.000,399.300,64.790,15.770,1848.000,346.400,51.700,9.010,190.700,31.280,6.605,2.261,325.900,67.130,15.270,5.908,baseline
2005.000,391.700,63.790,15.600,1826.000,348.700,51.800,9.023,191.500,31.020,6.594,2.248,323.800,66.630,15.140,5.893,baseline
1988.000,394.800,64.490,15.690,1814.000,348.000,51.620,9.070,192.200,31.050,6.582,2.257,323.500,66.960,15.210,5.883,baseline
1981.000,396.400,63.900,15.550,1838.000,348.100,52.180,9.147,189.200,31.040,6.560,2.281,323.500,66.250,15.190,5.881,baseline
1994.000,393.000,63.530,15.760,1830.000,348.500,51.810,9.082,189.400,31.110,6.584,2.284,324.500,66.480,15.030,5.854,baseline
1989.000,396.600,64.900,15.780,1830.000,350.200,52.340,9.082,191.700,31.240,6.584,2.275,326.300,67.110,15.420,5.857,baseline
1991.000,400.400,65.380,15.980,1825.000,351.600,51.980,9.175,192.300,31.190,6.619,2.313,327.800,67.530,15.500,5.987,baseline
2003.000,398.100,66.040,15.870,1838.000,347.500,52.720,9.046,191.300,31.180,6.641,2.267,329.500,68.440,15.640,6.076,baseline
2012.000,403.000,66.000,16.010,1835.000,351.800,52.300,9.145,191.300,31.570,6.681,2.289,332.200,68.660,15.770,6.136,baseline
2015.000,400.900,65.530,16.130,1833.000,351.700,52.400,9.079,194.100,31.680,6.686,2.323,333.700,68.440,15.720,6.061,baseline
1987.000,398.900,63.970,15.650,1814.000,348.900,50.950,8.894,191.200,31.390,6.635,2.278,329.700,67.900,15.410,5.912,baseline
1971.000,393.200,63.930,15.590,1827.000,348.100,51.390,8.969,189.700,31.250,6.663,2.272,327.200,66.830,15.410,5.939,baseline
1995.000,395.600,63.320,15.510,1827.000,346.100,51.610,8.946,189.600,31.180,6.579,2.283,326.100,67.420,15.420,5.921,baseline
2001.000,395.100,63.390,15.510,1819.000,346.600,51.880,8.983,190.000,31.380,6.631,2.268,326.100,67.400,15.360,5.913,baseline
1991.000,392.900,64.150,15.590,1831.000,346.300,51.800,9.033,192.000,31.230,6.631,2.269,325.200,67.490,15.430,5.979,baseline
2006.000,396.700,64.400,15.840,1838.000,348.400,51.930,9.154,192.100,31.350,6.642,2.305,329.300,68.080,15.480,6.032,baseline
2003.000,397.900,65.450,15.910,1825.000,350.000,51.960,9.110,194.200,31.520,6.687,2.291,330.200,68.740,15.770,6.095,baseline
2023.000,404.400,65.590,16.050,1844.000,350.000,52.450,9.163,192.300,31.370,6.640,2.270,331.200,69.280,15.810,6.133,baseline
2013.000,400.200,66.090,16.020,1840.000,350.700,52.200,9.236,192.600,31.540,6.659,2.312,335.700,69.190,15.880,6.130,baseline
2002.000,401.700,64.950,15.860,1836.000,348.500,52.320,9.118,194.600,31.790,6.669,2.269,332.000,68.640,15.670,5.937,baseline
1995.000,393.100,64.240,15.690,1817.000,349.100,52.020,9.147,193.600,31.370,6.670,2.274,329.000,68.370,15.500,5.965,baseline
1979.000,391.500,64.160,15.690,1821.000,348.200,51.920,9.092,191.000,31.270,6.666,2.266,328.100,68.490,15.580,6.025,baseline
1989.000,398.600,64.370,15.930,1811.000,348.300,51.970,9.082,191.700,31.390,6.658,2.273,329.400,68.250,15.610,6.026,baseline
2009.000,393.300,65.010,15.770,1830.000,348.000,52.140,9.094,192.000,31.390,6.601,2.254,330.100,68.070,15.490,6.026,baseline
2015.000,397.300,65.070,15.890,1822.000,346.900,52.440,9.066,192.300,31.440,6.639,2.255,332.300,68.700,15.660,6.087,baseline
1993.000,398.900,65.340,16.080,1831.000,349.100,52.610,9.174,193.800,31.640,6.607,2.291,332.300,69.500,15.760,6.168,baseline
2012.000,402.900,65.450,16.200,1829.000,349.100,52.500,9.236,192.600,31.610,6.757,2.279,336.000,69.820,15.910,6.166,baseline
2026.000,404.700,66.650,16.340,1844.000,348.500,52.710,9.261,197.300,31.540,6.703,2.268,339.300,70.090,16.040,6.195,baseline
2011.000,397.000,65.270,15.840,1828.000,348.400,51.800,9.117,194.400,31.510,6.654,2.264,331.100,68.620,15.720,6.072,baseline
1972.000,393.500,64.950,15.880,1825.000,347.100,51.830,9.042,193.700,31.430,6.608,2.253,330.200,67.970,15.680,6.054,baseline
1965.000,391.100,64.860,15.660,1820.000,347.300,51.940,9.006,191.600,31.330,6.650,2.257,329.700,68.020,15.470,5.993,baseline
1955.000,392.400,64.460,15.700,1824.000,347.800,51.510,9.114,189.200,31.470,6.571,2.275,329.000,67.870,15.610,5.985,baseline
1953.000,392.500,64.280,15.810,1820.000,346.700,51.850,8.983,191.800,31.360,6.641,2.231,328.400,68.690,15.560,6.094,baseline
1964.000,395.200,64.860,16.110,1817.000,349.400,52.280,9.141,194.000,31.420,6.611,2.263,332.500,68.220,15.730,6.059,baseline
1991.000,396.500,65.310,16.030,1819.000,349.200,52.410,9.217,192.000,31.500,6.650,2.262,334.300,69.240,15.740,6.145,baseline
1996.000,399.000,65.700,16.270,1828.000,351.300,52.680,9.077,193.500,31.690,6.636,2.271,336.900,69.930,16.130,6.229,baseline
1997.000,403.300,66.140,16.340,1824.000,348.500,52.720,9.186,193.500,31.670,6.715,2.258,339.800,70.220,16.140,6.230,baseline
2014.000,402.900,65.470,16.050,1829.000,347.600,52.080,9.058,191.800,31.620,6.630,2.240,334.000,68.990,15.720,6.048,baseline
1975.000,395.100,64.140,15.760,1827.000,347.000,51.680,8.985,191.800,31.410,6.567,2.211,329.400,67.890,15.450,5.984,baseline
1965.000,394.500,64.330,15.750,1824.000,348.100,52.060,9.055,192.000,31.160,6.560,2.234,329.300,67.810,15.590,5.945,baseline
1971.000,394.800,64.320,15.890,1820.000,346.800,51.580,9.089,190.500,31.110,6.554,2.208,328.800,68.050,15.490,5.963,baseline
1968.000,392.300,65.170,15.740,1812.000,347.600,52.350,9.006,191.700,31.290,6.511,2.202,328.800,67.450,15.510,5.986,baseline
1995.000,394.400,65.120,15.870,1814.000,346.200,52.040,9.074,190.200,31.120,6.556,2.244,328.800,68.040,15.570,6.026,baseline
1969.000,396.200,64.620,16.030,1824.000,349.100,52.360,9.023,191.700,31.360,6.628,2.235,332.500,68.800,15.730,6.035,baseline
1977.000,403.200,65.960,16.220,1824.000,348.800,52.370,9.169,192.000,31.420,6.591,2.262,334.600,69.090,15.750,6.162,baseline
2003.000,403.100,65.930,16.320,1835.000,349.200,52.490,9.074,193.300,31.520,6.549,2.257,336.800,69.750,16.010,6.201,baseline
1999.000,398.400,65.470,15.990,1823.000,347.400,51.920,8.967,193.100,31.580,6.627,2.228,332.500,68.690,15.540,6.016,baseline
1981.000,392.200,64.520,15.750,1817.000,345.400,51.790,9.047,193.000,31.110,6.507,2.218,326.900,67.760,15.430,5.957,baseline
1984.000,388.100,64.020,15.700,1829.000,343.700,51.100,8.973,190.200,31.110,6.530,2.202,325.600,67.170,15.340,5.894,baseline
1965.000,393.800,64.200,15.870,1817.000,346.700,51.690,9.045,189.100,30.960,6.546,2.229,326.100,67.120,15.350,5.962,baseline
1991.000,389.900,64.720,15.730,1825.000,347.200,52.140,9.143,189.200,31.070,6.518,2.218,325.500,67.160,15.410,5.908,baseline
1994.000,393.000,64.340,15.770,1828.000,345.800,51.730,9.084,189.800,30.990,6.498,2.206,327.800,67.590,15.470,5.993,baseline
1994.000,398.100,65.040,16.080,1825.000,344.800,52.200,9.185,192.600,31.230,6.519,2.242,330.100,67.940,15.780,6.087,baseline
1988.000,398.400,65.110,16.210,1838.000,347.700,51.860,9.129,191.500,31.390,6.551,2.241,329.800,68.670,15.770,6.157,baseline
1990.000,397.400,66.400,16.080,1826.000,350.700,52.700,9.179,190.800,31.290,6.540,2.240,334.300,69.510,15.880,6.153,baseline
2026.000,401.600,66.780,16.190,1828.000,349.100,51.400,9.121,194.300,31.410,6.637,2.237,333.500,68.170,15.590,6.038,baseline
1999.000,391.700,64.240,15.750,1821.000,343.800,51.320,9.021,188.500,30.920,6.526,2.199,328.000,67.490,15.330,5.933,baseline
1970.000,393.800,64.530,15.820,1815.000,347.200,52.220,8.979,187.500,30.870,6.493,2.180,325.300,66.840,15.340,5.864,baseline
1972.000,390.400,63.880,15.810,1820.000,346.900,51.520,8.972,192.500,31.210,6.405,2.194,325.900,67.260,15.340,5.902,baseline
1986.000,392.000,64.850,15.910,1834.000,345.400,52.370,9.008,191.500,30.860,6.487,2.189,326.000,67.130,15.110,5.990,baseline
1983.000,395.800,64.690,15.810,1816.000,346.400,51.860,8.946,189.900,30.860,6.521,2.212,325.000,67.050,15.290,5.959,baseline
1980.000,396.500,64.990,15.900,1815.000,348.100,52.490,9.016,189.400,31.050,6.498,2.220,328.300,67.700,15.490,5.979,baseline
1992.000,401.400,66.050,16.150,1835.000,348.000,52.240,9.037,188.400,31.250,6.553,2.207,329.800,68.090,15.670,6.116,baseline
1994.000,399.700,66.000,16.220,1819.000,347.400,52.310,9.076,189.500,31.210,6.549,2.233,332.900,68.990,15.860,6.107,baseline
2014.000,404.400,65.290,15.990,1824.000,349.400,52.010,9.102,191.000,31.130,6.540,2.213,327.000,67.430,15.360,5.919,baseline
1986.000,396.500,64.440,15.760,1818.000,345.900,51.410,9.040,189.400,30.890,6.426,2.187,323.300,66.830,15.200,5.884,baseline
1971.000,391.400,64.350,15.770,1807.000,347.000,51.610,9.020,189.700,30.810,6.484,2.184,323.200,66.920,15.230,5.859,baseline
1977.000,393.700,64.630,15.870,1824.000,344.800,51.180,8.925,191.200,30.830,6.485,2.203,324.300,66.510,15.290,5.921,baseline
1995.000,398.000,64.530,15.810,1815.000,346.300,51.410,9.042,189.400,30.840,6.495,2.193,323.700,66.490,15.190,5.929,baseline
1973.000,396.300,64.630,15.890,1825.000,347.900,52.400,9.058,187.500,30.780,6.390,2.189,325.400,66.850,15.340,5.928,baseline
1981.000,395.700,65.480,16.080,1820.000,349.200,51.630,9.135,190.800,30.860,6.533,2.199,327.000,67.760,15.510,6.029,baseline
2006.000,398.400,65.560,16.120,1829.000,349.200,52.360,9.096,192.800,31.100,6.518,2.190,331.000,68.350,15.690,6.113,baseline
1997.000,401.600,65.540,16.380,1832.000,349.400,51.930,9.068,192.600,31.320,6.484,2.193,332.300,68.700,15.650,6.065,baseline
1997.000,398.700,64.770,15.870,1820.000,347.300,51.140,9.023,191.700,30.950,6.463,2.182,325.800,66.510,15.160,5.887,baseline
1966.000,393.900,63.790,15.660,1815.000,345.500,50.870,9.008,190.400,30.670,6.481,2.181,321.800,66.070,14.940,5.852,baseline
1972.000,390.400,63.450,15.720,1816.000,347.900,51.410,8.965,187.700,30.600,6.415,2.178,321.100,66.030,14.940,5.754,baseline
1982.000,389.700,63.570,15.660,1810.000,343.900,51.380,8.993,188.600,30.760,6.453,2.187,319.800,65.490,14.860,5.822,baseline
1967.000,389.700,63.540,15.740,1817.000,344.700,51.610,8.951,189.000,30.580,6.420,2.176,319.200,65.550,15.000,5.851,baseline
1970.000,391.400,64.750,15.770,1808.000,344.600,52.020,8.978,188.300,30.610,6.463,2.164,321.500,65.460,15.080,5.907,baseline
1969.000,393.500,64.490,15.880,1813.000,344.500,52.090,8.978,187.400,30.890,6.462,2.185,323.700,66.170,15.310,5.979,baseline
1990.000,391.700,65.300,15.910,1816.000,347.600,52.250,9.055,188.100,30.940,6.443,2.209,326.300,67.210,15.280,5.936,baseline
2010.000,398.600,65.440,16.110,1815.000,348.300,51.640,9.027,192.900,30.950,6.531,2.211,324.800,66.750,15.260,5.816,baseline
1982.000,390.000,63.700,15.610,1824.000,346.300,51.910,8.901,188.300,30.670,6.409,2.176,319.500,65.450,14.800,5.703,baseline
1940.000,387.400,63.370,15.530,1819.000,343.600,50.960,8.821,188.500,30.540,6.333,2.165,317.100,64.880,14.790,5.719,baseline
1937.000,389.300,63.000,15.620,1816.000,346.600,51.590,8.948,187.800,30.390,6.372,2.158,316.500,64.810,14.790,5.716,baseline
1942.000,383.400,63.310,15.540,1821.000,345.300,51.010,9.009,188.500,30.550,6.374,2.161,316.600,65.020,14.700,5.722,easy
1955.000,384.900,63.100,15.430,1800.000,346.100,51.890,8.953,188.300,30.620,6.435,2.186,316.200,65.340,14.870,5.744,easy
1960.000,390.000,63.420,15.550,1813.000,346.400,51.450,9.085,188.500,30.540,6.411,2.207,318.200,65.500,14.850,5.744,easy
1957.000,391.500,64.150,15.800,1809.000,347.800,52.160,9.073,188.200,30.740,6.423,2.214,320.500,65.670,15.120,5.887,easy
1969.000,393.300,64.470,15.810,1827.000,347.800,52.190,9.046,187.400,30.880,6.478,2.209,323.200,66.550,15.140,5.923,easy
1979.000,392.000,64.640,15.910,1833.000,347.400,52.010,9.196,190.300,30.850,6.526,2.233,325.700,66.990,15.360,5.971,easy
2000.000,394.700,64.940,15.810,1825.000,347.400,51.070,9.033,190.100,30.910,6.480,2.197,322.500,66.030,14.810,5.788,easy
1976.000,388.900,63.540,15.470,1811.000,344.300,51.400,8.964,187.600,30.560,6.435,2.180,316.900,65.200,14.750,5.719,easy
1943.000,386.800,62.450,15.480,1804.000,346.500,51.260,8.975,185.000,30.540,6.398,2.167,315.400,64.300,14.640,5.720,easy
1945.000,387.000,63.340,15.430,1816.000,346.700,51.470,8.934,189.100,30.620,6.370,2.198,314.900,64.910,14.660,5.691,easy
1951.000,387.100,62.400,15.420,1818.000,344.700,51.450,8.980,187.100,30.490,6.418,2.165,315.700,64.820,14.700,5.708,easy
1947.000,385.500,63.470,15.300,1807.000,348.200,51.770,9.090,189.600,30.550,6.456,2.177,316.600,64.840,14.890,5.725,easy
1952.000,387.300,63.170,15.540,1813.000,346.600,51.990,9.040,187.900,30.650,6.523,2.205,318.300,65.390,15.040,5.721,easy
1957.000,387.700,63.620,15.870,1808.000,347.100,51.780,9.052,188.300,30.660,6.494,2.213,319.400,65.630,15.020,5.857,easy
1967.000,393.700,63.850,15.700,1813.000,348.100,52.160,9.155,190.800,30.790,6.461,2.236,323.100,66.560,15.170,5.869,easy
1992.000,392.900,64.290,16.100,1828.000,347.600,51.650,9.206,189.100,31.100,6.535,2.217,325.500,66.440,15.020,5.842,easy
1966.000,391.600,63.380,15.420,1811.000,345.000,51.490,8.972,189.300,30.660,6.471,2.191,319.400,65.010,14.780,5.697,easy
1952.000,382.400,62.830,15.370,1809.000,345.000,51.250,8.941,187.300,30.650,6.408,2.199,318.900,64.900,14.680,5.668,easy
1935.000,386.400,62.240,15.510,1811.000,343.700,51.850,9.053,186.100,30.570,6.403,2.200,316.300,64.800,14.650,5.710,easy
1950.000,388.300,63.280,15.360,1801.000,344.500,51.600,9.017,186.500,30.610,6.446,2.192,315.200,64.630,14.740,5.682,easy
1924.000,384.700,63.000,15.450,1808.000,345.500,51.490,9.065,187.000,30.700,6.406,2.192,317.200,64.580,14.660,5.665,easy
1938.000,383.200,63.200,15.440,1812.000,345.300,52.090,9.136,191.200,30.750,6.470,2.204,318.800,65.160,14.950,5.703,easy
1936.000,384.500,63.200,15.790,1803.000,347.700,52.330,9.098,188.500,30.730,6.465,2.208,320.600,65.450,14.900,5.806,easy
1950.000,389.200,63.590,15.830,1811.000,347.000,51.880,9.208,191.200,30.770,6.533,2.204,322.300,66.220,15.160,5.830,easy
1955.000,390.200,64.350,15.790,1803.000,347.700,52.390,9.122,191.300,31.030,6.609,2.221,324.500,66.420,15.100,5.825,easy
1951.000,390.600,63.080,15.330,1805.000,343.700,51.860,9.022,189.800,30.860,6.443,2.201,317.900,65.040,14.690,5.641,easy
1935.000,380.100,62.560,15.240,1813.000,345.600,51.580,8.990,188.400,30.640,6.442,2.197,316.100,64.350,14.540,5.641,easy
1941.000,382.800,62.470,15.280,1803.000,343.300,51.080,9.028,186.300,30.500,6.465,2.188,315.300,64.610,14.690,5.686,easy
1933.000,383.400,62.350,15.460,1804.000,343.800,51.660,9.052,187.500,30.530,6.455,2.191,314.300,64.070,14.600,5.644,easy
1933.000,383.100,62.240,15.300,1810.000,344.700,51.760,9.039,187.400,30.760,6.421,2.206,315.400,64.190,14.660,5.686,easy
1924.000,378.700,62.890,15.400,1807.000,348.700,51.790,9.104,187.500,30.740,6.429,2.211,316.000,64.740,14.740,5.713,easy
1941.000,385.500,63.230,15.560,1807.000,346.300,52.140,9.119,187.600,30.490,6.492,2.220,318.500,65.450,14.900,5.799,easy
1942.000,388.900,64.440,15.550,1811.000,348.200,52.220,9.168,187.900,30.880,6.538,2.223,320.400,66.250,14.910,5.816,easy
1948.000,389.300,63.490,15.710,1811.000,348.000,51.740,9.177,190.300,30.880,6.533,2.224,322.800,66.350,15.120,5.837,easy
1952.000,388.300,63.740,15.450,1813.000,346.200,51.940,9.155,190.400,31.060,6.551,2.213,319.300,65.480,14.740,5.677,easy
1931.000,381.600,62.270,15.350,1809.000,346.400,51.500,9.048,188.200,30.590,6.468,2.183,315.600,64.590,14.570,5.611,easy
1905.000,377.800,62.010,15.260,1802.000,343.800,51.550,9.076,185.000,30.610,6.440,2.182,313.100,64.140,14.580,5.604,easy
1922.000,382.300,62.570,15.300,1815.000,345.100,51.640,9.075,189.200,30.580,6.404,2.206,314.500,64.350,14.590,5.575,easy
1906.000,384.100,62.450,15.340,1802.000,343.700,51.510,9.041,186.600,30.470,6.470,2.183,312.800,64.000,14.410,5.635,easy
1922.000,382.000,62.430,15.330,1790.000,343.600,51.530,9.049,185.500,30.670,6.491,2.197,313.200,64.130,14.710,5.634,easy
1924.000,384.000,62.100,15.510,1808.000,346.300,51.860,9.093,188.700,30.810,6.447,2.204,315.800,65.110,14.810,5.695,easy
1935.000,384.100,63.280,15.620,1807.000,348.700,51.880,9.062,189.200,30.720,6.504,2.208,317.800,65.560,14.960,5.725,easy
1962.000,392.400,63.480,15.610,1803.000,345.900,51.730,9.144,190.400,30.790,6.529,2.234,321.200,65.850,15.030,5.789,easy
1952.000,388.500,63.340,15.670,1806.000,343.800,51.690,8.990,189.800,30.960,6.518,2.214,316.200,64.830,14.670,5.623,easy
1910.000,385.400,62.660,15.210,1793.000,343.000,51.080,8.956,188.700,30.790,6.427,2.188,313.100,63.950,14.450,5.667,easy
1907.000,376.100,62.140,15.230,1807.000,343.200,51.150,9.055,189.700,30.460,6.411,2.193,311.500,63.670,14.470,5.589,easy
1925.000,384.100,62.080,15.250,1810.000,344.300,51.290,9.021,187.000,30.650,6.488,2.213,314.500,64.100,14.390,5.617,easy
1919.000,380.200,62.490,15.250,1797.000,343.100,51.350,9.108,187.100,30.560,6.435,2.204,312.400,63.920,14.450,5.622,easy
1915.000,384.700,62.310,15.370,1800.000,345.800,51.870,9.033,186.300,30.520,6.431,2.194,314.100,64.310,14.550,5.603,easy
1935.000,385.200,63.210,15.510,1804.000,345.000,51.720,9.079,185.200,30.730,6.474,2.212,316.000,65.070,14.740,5.688,easy
1929.000,387.300,63.600,15.570,1809.000,346.600,51.960,9.088,187.600,30.790,6.503,2.202,318.400,65.070,14.900,5.771,easy
1958.000,382.900,63.490,15.590,1818.000,344.200,52.090,9.018,190.000,30.960,6.532,2.198,317.700,64.340,14.640,5.580,easy
1923.000,379.300,62.360,15.310,1805.000,345.800,51.510,9.045,189.600,30.530,6.404,2.197,312.800,64.180,14.400,5.590,easy
1914.000,381.300,62.820,15.150,1821.000,342.200,51.530,8.991,187.400,30.590,6.423,2.202,313.000,63.770,14.440,5.567,easy
1921.000,382.300,62.610,15.220,1813.000,345.400,51.630,9.022,185.700,30.560,6.425,2.195,312.500,63.830,14.570,5.597,easy
1921.000,380.000,62.770,15.480,1812.000,340.600,51.410,8.997,186.800,30.430,6.409,2.215,310.600,63.830,14.510,5.552,easy
1937.000,384.600,63.200,15.590,1809.000,345.300,50.900,9.070,188.000,30.600,6.407,2.217,311.700,64.020,14.500,5.599,easy
1918.000,386.300,63.170,15.680,1806.000,346.900,52.000,9.107,188.400,30.810,6.487,2.197,315.700,64.850,14.650,5.678,easy
1932.000,385.200,63.730,15.620,1802.000,346.000,52.190,9.136,187.500,30.840,6.504,2.221,318.000,65.230,14.660,5.748,easy
1935.000,390.900,64.100,15.780,1802.000,347.100,51.930,9.031,189.600,30.710,6.534,2.215,317.400,65.350,14.740,5.622,easy
1938.000,389.200,62.890,15.450,1793.000,344.500,50.820,9.012,186.900,30.730,6.473,2.188,311.400,64.170,14.500,5.540,easy
1898.000,384.200,62.240,15.340,1797.000,341.200,51.480,8.946,186.900,30.580,6.387,2.197,310.600,63.250,14.450,5.533,easy
1927.000,382.700,62.740,15.420,1795.000,343.200,51.480,8.955,186.500,30.540,6.488,2.205,309.800,63.300,14.340,5.527,easy
1925.000,382.500,63.100,15.470,1805.000,345.700,52.100,8.977,186.900,30.250,6.426,2.188,310.400,63.930,14.410,5.509,easy
1932.000,380.000,62.720,15.490,1815.000,346.500,51.240,9.044,188.100,30.420,6.412,2.206,310.800,63.950,14.480,5.601,easy
1913.000,385.800,63.400,15.480,1803.000,343.500,51.380,9.071,189.000,30.580,6.444,2.207,313.000,64.470,14.720,5.657,easy
1943.000,387.000,63.810,15.630,1808.000,348.500,52.100,9.085,186.100,30.600,6.499,2.237,315.800,64.710,14.750,5.668,easy
1957.000,390.600,64.600,15.720,1806.000,348.200,52.340,9.169,188.500,30.660,6.548,2.234,318.100,65.430,14.810,5.735,easy
1964.000,387.500,63.210,15.580,1810.000,344.600,51.000,9.083,188.600,30.760,6.456,2.226,313.300,64.170,14.540,5.566,easy
1927.000,384.400,63.700,15.390,1797.000,343.300,51.150,9.019,186.100,30.390,6.363,2.175,309.200,63.460,14.340,5.512,easy
1938.000,382.100,62.530,15.330,1808.000,344.400,51.590,9.002,189.800,30.410,6.486,2.189,309.500,63.250,14.320,5.586,easy
1941.000,383.000,63.070,15.470,1811.000,342.300,51.610,9.031,186.400,30.420,6.435,2.209,309.300,63.480,14.400,5.562,easy
1929.000,382.600,63.180,15.400,1811.000,345.700,51.910,9.087,185.700,30.450,6.449,2.208,311.000,63.730,14.560,5.576,easy
1935.000,384.500,63.620,15.480,1814.000,344.800,51.680,9.038,187.100,30.470,6.467,2.202,312.300,64.200,14.570,5.652,easy
1945.000,386.800,64.290,15.580,1822.000,345.500,52.260,9.182,185.900,30.580,6.462,2.213,314.000,64.900,14.570,5.671,easy
1951.000,387.600,63.820,15.680,1825.000,347.400,52.090,9.265,189.700,30.790,6.525,2.225,316.700,65.430,14.710,5.773,easy
1959.000,392.000,64.150,15.890,1827.000,347.600,52.730,9.153,188.500,30.760,6.569,2.234,319.700,66.170,15.000,5.803,easy
1968.000,392.300,65.480,15.950,1821.000,347.800,51.830,9.184,189.100,31.030,6.582,2.234,322.200,66.980,15.060,5.806,easy
1980.000,389.500,63.640,15.760,1819.000,347.200,51.560,9.064,189.100,30.890,6.480,2.211,316.900,65.150,14.690,5.647,easy
1944.000,387.300,63.820,15.490,1832.000,346.200,51.590,9.032,187.600,30.830,6.446,2.234,315.100,64.440,14.610,5.670,easy
1946.000,385.600,63.510,15.760,1813.000,345.800,52.090,9.072,186.500,30.730,6.499,2.191,313.600,64.260,14.610,5.659,easy
1955.000,384.400,63.760,15.630,1823.000,344.900,52.420,9.163,188.400,30.600,6.494,2.209,314.800,64.660,14.640,5.652,easy
1953.000,387.800,63.960,15.510,1806.000,346.800,51.940,9.204,188.900,30.600,6.499,2.216,314.100,64.390,14.730,5.639,easy
1947.000,387.900,64.500,15.650,1818.000,346.800,52.350,9.172,188.400,30.740,6.462,2.205,316.700,65.010,14.750,5.722,easy
1967.000,389.600,64.980,15.850,1815.000,348.400,52.290,9.091,188.500,30.490,6.541,2.215,317.200,65.840,14.940,5.764,easy
1967.000,393.300,65.350,15.920,1823.000,348.200,51.980,9.254,190.500,30.860,6.566,2.238,320.000,66.180,14.970,5.841,easy
1986.000,395.200,65.270,16.040,1828.000,348.900,52.150,9.144,189.200,30.910,6.622,2.239,321.300,66.990,15.180,5.903,easy
1989.000,395.800,64.330,16.230,1833.000,348.500,52.170,9.219,191.800,31.030,6.581,2.244,326.300,67.250,15.380,5.983,easy
1984.000,395.700,65.010,15.900,1825.000,351.200,51.570,9.014,191.000,31.110,6.573,2.240,322.200,66.880,15.040,5.811,easy
1955.000,393.700,64.500,15.680,1817.000,344.400,51.080,9.022,189.300,30.830,6.514,2.230,319.500,65.580,15.000,5.724,easy
1974.000,389.700,64.020,15.710,1811.000,346.800,51.640,9.089,189.700,30.920,6.547,2.212,318.800,65.600,15.080,5.740,easy
1976.000,391.500,64.400,15.610,1812.000,346.000,52.000,9.083,189.700,31.030,6.539,2.198,318.700,66.290,14.950,5.793,easy
1963.000,394.000,64.150,15.720,1823.000,346.500,51.270,9.086,188.000,30.990,6.515,2.208,318.100,65.650,15.060,5.759,easy
1971.000,392.400,64.580,15.860,1829.000,348.300,52.030,9.059,191.500,30.900,6.526,2.203,320.400,66.450,15.090,5.823,easy
1998.000,392.900,65.470,15.880,1832.000,349.200,52.110,9.180,190.400,31.000,6.480,2.220,321.800,66.970,15.300,5.876,easy
1981.000,396.200,64.960,16.070,1813.000,348.600,52.580,9.129,189.400,31.170,6.560,2.236,325.200,67.580,15.510,5.966,easy
1974.000,398.300,65.310,16.080,1823.000,349.000,51.490,9.093,191.400,31.170,6.576,2.245,327.100,68.170,15.590,5.980,easy
1992.000,399.600,65.520,15.990,1813.000,347.100,51.370,9.061,192.700,31.390,6.577,2.249,327.200,67.660,15.380,5.902,easy
1959.000,390.700,64.600,15.940,1810.000,344.900,51.900,9.056,192.100,31.090,6.548,2.227,322.400,66.660,15.030,5.776,easy
1958.000,390.000,64.460,15.810,1828.000,344.900,51.810,9.103,190.500,31.060,6.563,2.211,321.200,66.270,15.090,5.810,easy
1966.000,390.000,64.050,15.640,1819.000,347.200,51.370,9.116,190.000,30.930,6.508,2.202,322.300,66.460,15.150,5.808,easy
1965.000,390.300,63.490,15.710,1825.000,344.400,51.800,9.011,189.600,31.020,6.495,2.220,321.200,66.220,15.090,5.818,easy
1967.000,391.700,64.040,15.770,1806.000,346.600,51.750,9.117,189.500,30.990,6.530,2.196,322.400,66.950,15.290,5.891,easy
1958.000,390.900,65.230,15.850,1806.000,346.800,51.490,9.212,189.200,30.930,6.534,2.232,325.000,67.380,15.280,5.935,easy
1980.000,394.800,64.530,15.960,1823.000,347.800,52.020,9.048,191.100,31.170,6.594,2.226,328.600,67.990,15.390,5.940,easy
1982.000,394.300,65.000,16.280,1824.000,345.500,51.900,9.160,190.700,31.310,6.634,2.266,328.900,68.240,15.540,5.966,easy
1981.000,392.200,65.620,16.110,1821.000,345.700,51.550,8.996,194.500,31.420,6.640,2.257,328.700,67.610,15.390,5.899,easy
1951.000,386.100,64.170,15.860,1805.000,343.900,51.700,9.075,189.300,31.140,6.513,2.212,323.300,66.450,15.160,5.820,easy
1956.000,386.900,63.690,15.740,1805.000,342.100,51.550,8.940,189.600,31.070,6.532,2.206,322.300,66.200,14.990,5.788,easy
1956.000,382.700,64.060,15.510,1813.000,345.200,51.900,8.888,189.500,30.980,6.577,2.194,322.100,66.640,15.010,5.832,easy
1946.000,385.300,63.360,15.710,1806.000,344.400,51.460,8.930,188.700,31.080,6.499,2.228,321.500,66.290,15.150,5.795,easy
1947.000,387.000,64.360,15.760,1819.000,345.400,51.450,9.100,187.700,31.100,6.533,2.213,321.700,66.240,15.110,5.868,easy
1951.000,392.300,64.620,15.850,1814.000,345.400,51.760,9.056,189.100,31.030,6.555,2.230,322.900,67.000,15.250,5.852,easy
1950.000,391.400,65.160,15.790,1806.000,344.600,51.740,9.064,191.500,31.110,6.540,2.227,327.500,67.400,15.410,5.934,easy
1967.000,396.200,65.190,16.070,1817.000,347.200,52.170,9.082,188.500,31.230,6.538,2.239,328.900,68.130,15.500,6.046,easy
1971.000,397.400,65.400,15.950,1811.000,345.300,52.280,9.114,191.400,31.460,6.614,2.209,330.000,67.920,15.440,5.950,easy
1952.000,389.500,64.380,15.780,1805.000,341.700,51.150,8.985,190.100,31.220,6.528,2.229,322.900,66.900,14.960,5.764,easy
1942.000,385.200,64.020,15.660,1812.000,343.400,51.270,8.959,190.200,31.080,6.431,2.223,322.200,66.410,15.000,5.793,easy
1926.000,386.800,63.520,15.530,1799.000,344.200,51.630,9.038,190.900,30.960,6.493,2.201,321.600,66.680,15.050,5.851,easy
1943.000,389.500,63.210,15.680,1798.000,343.700,51.930,8.946,189.900,31.090,6.465,2.197,322.100,65.890,15.090,5.792,easy
1943.000,385.400,63.820,15.640,1801.000,342.500,51.320,9.078,189.300,30.930,6.492,2.200,321.700,66.340,15.090,5.759,easy
1942.000,391.400,64.100,15.700,1809.000,346.100,51.750,9.086,190.000,30.810,6.555,2.216,321.200,66.880,15.120,5.848,easy
1949.000,390.200,64.080,15.830,1811.000,343.800,51.780,9.083,189.400,31.220,6.475,2.189,323.900,67.350,15.300,5.843,easy
1963.000,393.800,65.820,15.910,1821.000,344.600,52.240,9.103,188.900,31.290,6.504,2.220,327.700,68.050,15.440,5.991,easy
1975.000,393.100,65.380,16.200,1821.000,344.500,51.550,9.143,189.700,31.280,6.646,2.225,329.800,68.200,15.500,5.954,easy
1981.000,389.800,64.130,15.810,1805.000,342.900,51.400,9.054,191.400,31.080,6.486,2.207,324.200,66.430,15.110,5.781,easy
1957.000,383.300,63.750,15.690,1809.000,345.100,51.680,8.907,189.800,30.920,6.512,2.196,321.200,66.400,15.010,5.727,easy
1944.000,391.000,64.340,15.610,1826.000,342.500,51.570,9.001,187.800,30.900,6.517,2.193,320.200,67.000,15.110,5.878,easy
1938.000,387.200,63.470,15.700,1809.000,346.200,51.530,9.043,188.900,30.850,6.477,2.196,320.700,66.120,15.100,5.750,easy
1946.000,387.400,63.650,15.760,1808.000,344.900,52.050,9.047,189.200,30.740,6.548,2.223,322.600,66.840,15.100,5.839,easy
1958.000,388.600,64.590,15.760,1810.000,345.300,51.780,9.068,188.600,31.090,6.590,2.207,322.500,67.050,15.320,5.837,easy
1977.000,391.900,65.270,15.830,1824.000,344.800,52.050,9.137,189.500,30.990,6.552,2.240,324.000,67.540,15.340,5.932,easy
1961.000,393.200,65.560,15.900,1821.000,348.500,52.140,9.127,191.400,31.300,6.608,2.243,327.000,68.350,15.520,6.022,easy
1991.000,396.500,65.280,16.030,1822.000,346.700,51.960,9.222,191.800,31.240,6.622,2.219,329.500,67.740,15.350,5.926,easy
1959.000,390.800,64.500,15.640,1806.000,341.700,52.010,9.128,191.100,31.170,6.553,2.208,322.800,66.660,14.970,5.799,easy
1945.000,386.600,63.990,15.680,1811.000,345.700,52.310,9.003,189.700,30.980,6.532,2.194,320.500,66.090,15.100,5.771,easy
1956.000,387.600,63.260,15.700,1812.000,345.000,51.670,9.017,190.300,30.800,6.523,2.182,320.600,66.180,15.130,5.751,easy
1951.000,389.100,63.420,15.540,1807.000,345.400,51.530,9.019,188.200,31.100,6.527,2.222,321.900,65.910,14.980,5.802,easy
1963.000,388.100,64.600,15.590,1820.000,347.500,51.780,9.089,187.200,30.770,6.513,2.214,319.400,66.090,15.140,5.760,easy
1973.000,387.600,63.750,15.720,1822.000,348.000,52.000,9.077,190.700,30.980,6.496,2.223,321.500,66.610,15.290,5.833,easy
1959.000,392.700,64.660,15.830,1826.000,345.100,51.980,9.122,186.900,31.150,6.549,2.234,324.000,67.080,15.210,5.897,easy
1985.000,393.400,65.620,15.860,1821.000,349.300,52.150,9.137,189.800,31.240,6.593,2.227,326.700,67.480,15.490,5.986,easy
1980.000,395.700,64.570,15.820,1830.000,347.000,51.910,9.129,189.500,31.060,6.551,2.237,323.800,67.080,15.080,5.766,easy
1965.000,392.200,63.690,15.630,1810.000,346.500,51.920,9.045,189.600,30.690,6.503,2.229,319.100,65.600,14.850,5.771,easy
1957.000,386.100,64.000,15.400,1816.000,346.000,51.950,9.020,189.100,30.720,6.477,2.192,316.300,65.120,14.870,5.732,easy
1947.000,388.000,63.300,15.570,1819.000,342.200,51.590,9.143,186.400,30.820,6.495,2.205,317.000,65.210,14.840,5.690,easy
1948.000,395.000,63.710,15.570,1820.000,343.900,51.560,9.074,188.500,30.760,6.511,2.208,318.000,65.140,14.870,5.725,easy
1940.000,387.300,63.810,15.610,1810.000,346.400,52.390,9.187,188.500,30.720,6.476,2.237,318.100,65.740,15.050,5.746,easy
1970.000,387.100,63.800,15.740,1823.000,346.200,52.480,9.194,191.200,30.780,6.537,2.210,320.100,66.210,15.080,5.817,easy
1969.000,390.300,64.780,15.810,1815.000,348.300,52.190,9.180,190.800,31.020,6.558,2.230,321.700,66.890,15.260,5.872,easy
1977.000,395.600,65.440,16.010,1828.000,346.600,52.240,9.204,190.000,31.240,6.571,2.228,324.000,67.190,15.390,5.913,easy
1965.000,390.600,64.540,15.550,1816.000,346.800,51.750,9.060,187.700,31.070,6.521,2.231,319.100,65.620,15.010,5.725,easy
1957.000,389.100,63.290,15.430,1809.000,346.400,51.970,9.087,187.300,30.660,6.481,2.213,316.100,65.240,14.780,5.724,easy
1936.000,387.800,63.570,15.340,1806.000,346.300,52.110,9.061,190.100,30.720,6.452,2.209,315.400,65.470,14.690,5.698,easy
1958.000,390.500,63.110,15.260,1799.000,348.500,52.400,9.156,186.500,30.800,6.504,2.234,315.400,65.120,14.800,5.671,easy
1953.000,385.300,63.090,15.510,1813.000,346.000,52.440,9.271,187.300,30.840,6.516,2.207,316.000,65.140,14.860,5.710,easy
1949.000,388.100,64.170,15.550,1827.000,347.500,52.140,9.183,186.800,30.770,6.577,2.227,316.500,65.620,14.900,5.796,easy
1981.000,393.800,64.490,15.560,1823.000,348.300,52.780,9.315,190.100,30.810,6.528,2.232,317.900,66.040,15.090,5.827,easy
1983.000,397.200,63.870,15.890,1826.000,347.500,52.480,9.153,190.200,30.990,6.620,2.243,322.400,66.300,15.210,5.843,easy
1976.000,391.000,64.480,15.770,1835.000,347.500,51.370,9.227,191.200,30.960,6.572,2.227,318.100,65.650,15.040,5.767,easy
1950.000,389.500,63.550,15.380,1834.000,348.800,52.020,9.081,187.700,30.650,6.560,2.200,316.000,65.330,14.870,5.650,easy
1947.000,385.100,62.740,15.360,1811.000,349.900,52.580,9.175,189.400,30.770,6.531,2.221,316.400,64.540,14.730,5.689,easy
1952.000,386.000,62.950,15.310,1829.000,346.100,52.540,9.185,187.800,30.720,6.515,2.239,315.800,65.380,14.930,5.732,easy
1960.000,390.100,63.310,15.420,1822.000,347.800,52.430,9.283,189.500,30.880,6.483,2.228,315.000,64.900,14.790,5.706,easy
1957.000,385.400,63.530,15.550,1838.000,348.500,52.240,9.218,189.000,30.710,6.566,2.210,316.900,65.670,14.830,5.763,easy
1968.000,390.800,64.290,15.510,1824.000,349.100,52.620,9.212,186.400,30.770,6.593,2.237,319.500,65.870,15.030,5.800,easy
1957.000,389.500,64.090,15.620,1829.000,349.900,53.040,9.242,188.900,31.120,6.578,2.260,321.200,66.470,15.210,5.806,easy
1973.000,392.600,64.320,15.750,1838.000,346.700,52.450,9.247,188.300,31.040,6.589,2.235,323.700,66.370,15.260,5.872,easy
1985.000,389.300,63.940,15.430,1814.000,351.000,52.030,9.227,189.100,30.910,6.627,2.220,317.600,65.810,14.950,5.731,easy
1957.000,386.600,63.190,15.210,1830.000,347.300,51.960,9.106,186.300,30.720,6.550,2.230,314.700,64.720,14.630,5.659,easy
1950.000,386.500,62.670,15.330,1826.000,348.600,52.200,9.215,187.700,30.930,6.534,2.221,314.200,64.800,14.770,5.702,easy
1940.000,386.400,62.850,15.380,1828.000,348.800,52.790,9.211,189.100,30.780,6.561,2.232,314.700,64.630,14.880,5.677,easy
1948.000,385.200,63.400,15.310,1826.000,345.900,52.310,9.270,187.500,30.750,6.557,2.233,314.400,64.740,14.820,5.738,easy
1961.000,387.800,63.890,15.440,1825.000,350.600,52.780,9.361,188.600,30.880,6.623,2.220,317.200,65.320,14.850,5.793,easy
1956.000,390.600,63.300,15.520,1840.000,351.500,52.810,9.276,190.000,30.850,6.599,2.269,318.700,65.890,15.180,5.814,easy
1967.000,389.800,64.360,15.750,1839.000,350.300,53.040,9.291,191.000,31.100,6.630,2.233,321.800,66.370,15.280,5.913,easy
1965.000,389.700,64.090,15.710,1845.000,354.700,52.810,9.329,190.000,31.120,6.605,2.246,323.800,67.200,15.390,5.918,easy
1972.000,401.900,65.590,15.750,1840.000,350.700,53.030,9.361,191.600,31.210,6.606,2.281,326.800,67.330,15.340,5.978,easy
1967.000,394.000,64.760,15.430,1842.000,348.100,52.850,9.208,190.500,31.140,6.566,2.266,319.800,66.130,14.990,5.805,easy
1949.000,388.900,63.450,15.510,1837.000,348.900,52.700,9.230,189.900,31.030,6.593,2.230,318.800,65.790,15.000,5.786,easy
1954.000,384.400,63.350,15.390,1833.000,350.100,52.380,9.189,188.000,31.030,6.543,2.255,316.700,65.640,14.900,5.751,easy
1952.000,384.400,63.070,15.310,1837.000,348.500,52.610,9.222,187.500,30.960,6.568,2.243,317.500,65.460,14.950,5.779,easy
1948.000,385.500,63.290,15.330,1828.000,348.900,52.790,9.245,188.900,30.900,6.553,2.258,317.300,65.600,15.040,5.782,easy
1946.000,383.300,63.460,15.630,1813.000,349.400,52.600,9.271,188.500,31.090,6.583,2.240,318.700,66.110,15.210,5.864,easy
1975.000,389.700,64.040,15.680,1817.000,349.400,52.820,9.284,188.500,31.130,6.591,2.254,321.700,66.280,15.310,5.863,easy
1957.000,392.100,64.390,15.680,1830.000,350.500,53.600,9.311,189.100,31.060,6.569,2.250,323.000,67.050,15.390,5.937,easy
1964.000,392.800,64.470,15.810,1834.000,353.900,54.290,9.272,191.400,31.470,6.678,2.284,325.700,67.810,15.630,6.039,easy
1956.000,395.900,64.650,15.920,1853.000,352.600,53.330,9.273,192.000,31.160,6.697,2.284,326.500,67.390,15.430,5.903,easy
1953.000,387.100,63.430,15.380,1828.000,349.500,52.910,9.234,189.600,31.150,6.595,2.260,322.600,66.840,15.160,5.939,easy
1925.000,385.400,63.150,15.670,1832.000,350.300,51.910,9.193,188.300,31.050,6.610,2.243,319.400,66.540,15.220,5.843,easy
1946.000,384.700,63.420,15.590,1832.000,349.700,52.810,9.211,190.300,30.910,6.627,2.238,320.000,66.090,15.150,5.871,easy
1941.000,387.200,63.290,15.470,1830.000,350.200,52.690,9.265,190.000,31.070,6.606,2.247,320.800,66.160,15.260,5.880,easy
1960.000,386.400,63.640,15.630,1835.000,349.500,52.940,9.226,191.000,31.080,6.603,2.266,321.000,66.560,15.310,5.883,easy
1951.000,391.000,64.320,15.650,1842.000,349.300,52.920,9.329,188.000,31.030,6.597,2.234,322.700,67.040,15.390,5.989,easy
1949.000,392.500,64.440,15.850,1830.000,350.400,53.140,9.339,190.400,31.290,6.674,2.256,325.400,67.550,15.440,5.987,easy
1962.000,396.600,64.420,16.000,1828.000,351.100,53.630,9.292,191.200,31.330,6.579,2.264,326.900,68.140,15.800,6.090,easy
1984.000,397.800,65.780,16.030,1829.000,350.100,52.970,9.349,190.600,31.390,6.627,2.257,329.600,68.330,15.680,6.065,easy
1993.000,395.100,64.980,15.700,1827.000,351.300,52.720,9.218,192.500,31.370,6.624,2.263,325.100,67.390,15.430,5.980,easy
1962.000,390.700,63.830,15.610,1834.000,349.000,52.100,9.313,190.000,31.100,6.568,2.243,323.900,67.290,15.330,5.923,easy
1970.000,385.600,64.210,15.600,1824.000,347.000,53.120,9.200,192.300,31.070,6.535,2.237,321.600,66.960,15.320,6.013,easy
1951.000,389.500,65.030,15.740,1827.000,350.800,52.200,9.204,190.500,31.060,6.592,2.241,323.900,66.810,15.220,5.984,easy
1959.000,388.100,64.180,15.810,1829.000,347.800,53.110,9.197,191.100,31.240,6.575,2.241,322.400,67.520,15.390,6.020,easy
1961.000,391.600,64.920,15.830,1828.000,349.100,52.820,9.249,187.600,31.170,6.554,2.245,325.100,67.730,15.500,5.980,easy
1973.000,389.100,64.980,16.010,1842.000,349.800,52.380,9.304,193.300,31.270,6.631,2.243,328.100,68.240,15.690,6.084,easy
1984.000,398.800,65.740,15.920,1831.000,352.000,52.950,9.341,192.500,31.370,6.579,2.233,329.300,68.290,15.840,6.135,easy
1983.000,401.800,66.060,16.210,1831.000,351.500,53.070,9.194,191.100,31.480,6.707,2.261,332.700,69.140,15.880,6.188,easy
1995.000,401.000,66.670,16.370,1830.000,352.800,52.930,9.168,192.900,31.540,6.701,2.265,334.100,69.290,16.110,6.176,easy
1996.000,399.600,64.970,15.990,1851.000,347.200,52.370,9.226,192.500,31.460,6.593,2.225,328.400,68.060,15.640,6.052,easy
1961.000,395.000,64.770,15.760,1842.000,348.000,52.180,9.176,193.000,31.350,6.638,2.213,324.400,67.490,15.500,6.066,easy
1942.000,393.800,64.980,15.690,1851.000,350.700,52.360,9.160,191.100,31.080,6.518,2.205,325.000,67.360,15.540,6.036,easy
1956.000,390.600,64.300,15.930,1830.000,347.800,52.780,9.101,190.300,31.100,6.565,2.221,324.500,67.420,15.670,5.964,easy
1963.000,391.400,64.530,15.810,1834.000,347.500,52.150,9.149,191.900,31.300,6.577,2.203,326.200,67.400,15.500,6.051,easy
1988.000,392.800,65.060,16.040,1820.000,347.900,53.180,9.277,189.700,31.150,6.545,2.233,325.000,67.430,15.570,6.090,easy
1952.000,396.200,65.910,16.160,1830.000,349.000,52.390,9.214,191.400,31.310,6.568,2.213,328.300,68.320,15.730,6.071,easy
1992.000,397.700,65.370,16.080,1837.000,350.600,52.600,9.261,191.900,31.390,6.578,2.234,329.900,69.020,15.900,6.209,easy
2004.000,401.500,66.010,16.200,1837.000,351.400,53.130,9.257,192.700,31.530,6.638,2.208,333.300,69.750,16.000,6.150,easy
2002.000,398.300,66.260,15.890,1833.000,347.800,52.550,9.093,193.100,31.390,6.555,2.200,327.700,67.720,15.570,5.983,easy
1974.000,391.500,64.610,15.800,1826.000,347.300,52.500,9.076,189.800,31.140,6.547,2.182,325.300,67.280,15.410,5.958,easy
1963.000,394.700,64.710,15.880,1826.000,345.000,52.440,9.153,191.900,31.060,6.528,2.208,324.500,67.110,15.430,6.007,easy
1965.000,391.800,65.010,15.770,1832.000,349.400,51.930,9.160,189.400,31.020,6.501,2.190,324.400,67.110,15.400,5.943,easy
1964.000,392.300,64.850,15.840,1833.000,347.800,51.960,9.193,191.300,31.040,6.529,2.193,323.400,67.310,15.530,5.976,easy
1993.000,397.300,64.670,16.040,1837.000,348.400,52.780,9.175,189.700,31.110,6.553,2.229,325.900,67.990,15.640,6.030,easy
1978.000,394.300,65.640,16.230,1827.000,350.000,52.810,9.167,189.200,31.300,6.538,2.202,329.000,68.120,15.740,6.163,easy
1998.000,399.000,65.720,16.260,1825.000,351.100,52.830,9.146,190.300,31.440,6.591,2.219,330.300,69.250,15.880,6.162,easy
1997.000,397.000,66.550,16.310,1848.000,350.200,51.980,9.153,192.000,31.520,6.631,2.187,331.300,69.210,15.910,6.119,easy
1978.000,395.500,65.430,16.100,1834.000,348.000,52.180,9.078,191.300,31.230,6.553,2.175,325.200,67.870,15.410,5.973,easy
1977.000,389.000,64.260,15.610,1827.000,349.100,52.680,9.226,188.900,30.970,6.462,2.169,323.800,67.010,15.520,5.894,easy
1977.000,387.100,64.550,15.990,1820.000,348.800,52.220,9.143,187.800,31.080,6.480,2.178,322.000,67.410,15.370,6.051,easy
1968.000,394.200,65.080,15.940,1825.000,348.300,52.510,9.146,190.400,31.010,6.495,2.162,322.400,67.060,15.430,5.983,easy
1987.000,391.600,64.820,15.990,1833.000,347.700,52.520,9.082,191.400,31.010,6.485,2.181,322.700,67.420,15.460,5.959,easy
1983.000,395.100,65.460,16.130,1846.000,348.400,52.490,9.040,191.600,30.910,6.546,2.179,325.800,67.720,15.550,6.022,easy
1982.000,397.000,65.810,15.990,1840.000,351.400,52.310,9.171,190.800,31.020,6.513,2.210,326.500,68.050,15.750,6.043,easy
2003.000,396.800,66.150,16.180,1834.000,348.200,52.960,9.250,191.800,31.260,6.530,2.207,329.500,68.650,15.860,6.164,easy
1995.000,398.800,66.150,16.370,1832.000,352.200,51.960,9.105,190.700,31.490,6.538,2.243,330.900,68.400,15.610,6.009,easy
1979.000,394.600,64.690,15.980,1835.000,346.200,52.150,9.073,190.700,31.050,6.471,2.184,323.400,66.790,15.440,5.934,easy
1972.000,387.000,64.720,15.860,1822.000,348.900,52.610,9.094,190.100,31.040,6.453,2.163,322.300,66.710,15.340,5.929,easy
1974.000,391.600,64.750,15.810,1837.000,349.000,52.200,9.102,190.400,31.000,6.462,2.169,322.500,67.070,15.240,5.965,easy
1983.000,388.700,65.220,15.740,1831.000,348.800,53.120,9.083,189.800,30.890,6.483,2.177,321.200,66.740,15.190,5.844,easy
1976.000,392.600,64.920,15.990,1841.000,351.100,52.110,9.169,189.800,30.970,6.508,2.188,321.300,67.090,15.410,5.981,easy
1995.000,394.700,65.110,16.040,1831.000,349.200,52.650,9.126,191.500,31.050,6.455,2.203,323.500,67.540,15.480,6.004,easy
2001.000,397.800,66.160,16.120,1850.000,350.100,52.640,9.221,191.800,31.260,6.567,2.205,327.500,68.080,15.720,6.072,easy
2009.000,398.400,66.080,16.190,1830.000,351.700,52.510,9.178,190.100,31.200,6.563,2.217,329.500,68.680,15.790,6.157,easy
2005.000,401.300,66.730,16.430,1849.000,354.000,52.720,9.261,194.300,31.350,6.598,2.211,330.400,68.960,15.900,6.164,easy
1990.000,398.200,65.970,15.870,1835.000,350.700,52.300,9.154,192.600,31.270,6.548,2.190,325.400,67.090,15.460,5.940,easy
1973.000,392.500,63.980,15.870,1845.000,348.000,52.480,9.108,189.100,30.950,6.508,2.194,322.000,66.430,15.200,5.847,easy
1987.000,390.200,63.890,15.790,1848.000,349.500,52.750,9.099,189.700,30.850,6.507,2.184,322.100,66.090,15.320,5.896,easy
1987.000,393.000,65.320,15.850,1846.000,349.500,52.800,9.108,190.200,30.880,6.522,2.181,320.600,66.600,15.320,5.887,easy
1971.000,390.800,64.040,15.810,1839.000,349.400,52.930,9.148,188.400,31.020,6.500,2.193,321.000,66.420,15.360,5.901,easy
1974.000,390.300,64.160,15.930,1844.000,350.700,52.760,9.138,194.000,30.890,6.455,2.195,321.700,67.150,15.330,5.965,easy
1997.000,394.000,65.390,15.940,1840.000,349.900,52.850,9.199,190.400,31.090,6.548,2.202,325.000,66.870,15.630,6.036,easy
1998.000,397.900,65.400,16.190,1846.000,352.700,53.180,9.128,188.700,31.260,6.548,2.236,326.900,68.100,15.680,6.080,easy
2003.000,399.100,66.160,16.250,1830.000,351.800,52.710,9.171,189.700,31.400,6.576,2.205,328.700,68.010,15.490,6.013,easy
2010.000,396.700,64.500,15.770,1840.000,350.400,52.470,9.031,192.000,31.020,6.465,2.185,323.300,67.120,15.300,5.941,easy
1964.000,386.200,64.410,15.810,1837.000,350.300,52.560,9.205,188.600,30.930,6.535,2.211,319.700,66.210,15.180,5.881,easy
1974.000,392.200,64.420,15.560,1832.000,351.700,52.430,9.171,190.100,30.780,6.467,2.171,320.700,66.020,15.400,5.905,easy
1974.000,390.100,65.040,15.750,1841.000,351.200,51.860,9.129,187.600,31.040,6.496,2.190,320.100,66.680,15.260,5.919,easy
2002.000,391.400,64.100,15.780,1837.000,349.800,52.260,9.241,190.000,30.760,6.506,2.204,320.300,66.410,15.260,5.914,easy
1966.000,396.200,64.400,15.980,1838.000,350.900,52.510,9.180,191.100,30.880,6.551,2.192,323.500,66.740,15.440,6.000,easy
1986.000,393.200,64.780,16.190,1847.000,354.400,52.850,9.186,190.900,31.300,6.505,2.209,324.800,67.250,15.670,6.007,easy
1990.000,396.300,65.730,16.160,1832.000,352.000,53.080,9.271,190.800,31.230,6.612,2.215,326.100,67.770,15.700,6.047,easy
2008.000,397.800,65.840,15.900,1845.000,349.500,52.230,9.162,192.200,31.160,6.588,2.192,322.000,66.530,15.250,5.897,easy
1972.000,389.500,63.480,15.550,1824.000,347.200,51.980,9.211,188.300,31.100,6.480,2.178,318.800,66.400,15.260,5.886,easy
1954.000,389.100,64.090,15.650,1833.000,347.800,52.870,9.135,189.000,30.940,6.494,2.172,319.100,65.910,15.220,5.888,easy
1968.000,385.400,64.150,15.810,1828.000,349.400,52.090,9.138,189.500,30.850,6.528,2.190,319.100,65.850,15.210,5.868,easy
1969.000,388.700,64.390,15.660,1832.000,347.100,53.700,9.253,187.400,30.890,6.499,2.183,317.600,66.130,15.140,5.874,easy
1971.000,390.600,63.940,15.660,1829.000,350.900,52.560,9.099,187.200,30.830,6.463,2.193,317.300,66.300,15.220,5.870,easy
1976.000,392.800,65.350,15.920,1841.000,350.300,52.540,9.154,190.800,30.720,6.523,2.190,319.300,66.610,15.240,5.922,easy
1979.000,391.300,65.310,15.840,1840.000,351.000,53.150,9.214,190.900,31.070,6.542,2.196,323.600,66.620,15.640,6.001,easy
1988.000,395.800,64.810,16.000,1838.000,349.800,52.910,9.155,189.100,31.040,6.612,2.202,321.900,66.650,15.200,5.867,easy
1958.000,386.700,63.530,15.660,1830.000,348.000,52.710,9.116,189.900,30.890,6.489,2.176,317.700,65.730,15.010,5.798,easy
1965.000,388.700,63.610,15.520,1818.000,349.300,52.440,9.180,189.400,30.770,6.513,2.201,315.500,65.070,14.930,5.765,easy
1972.000,391.100,63.800,15.510,1837.000,348.400,52.170,9.216,189.200,30.630,6.517,2.167,317.100,65.500,15.020,5.781,easy
1951.000,389.600,63.400,15.450,1846.000,349.800,52.180,9.097,189.300,30.590,6.520,2.181,315.900,65.080,15.120,5.763,easy
1953.000,388.500,63.840,15.560,1829.000,351.900,52.780,9.240,189.100,30.750,6.480,2.178,315.600,65.520,15.070,5.832,easy
1960.000,387.100,64.090,15.610,1828.000,352.000,52.510,9.273,187.900,30.810,6.510,2.203,317.200,65.640,15.180,5.854,easy
1963.000,387.500,64.450,15.780,1844.000,348.800,53.190,9.232,190.800,30.990,6.505,2.224,319.500,66.020,15.370,5.939,easy
1991.000,391.700,65.400,15.920,1829.000,349.900,52.750,9.231,191.000,31.130,6.595,2.209,322.300,66.350,15.390,5.903,easy
1979.000,389.800,64.890,15.680,1840.000,349.900,52.840,9.217,188.100,30.920,6.555,2.210,319.000,65.550,14.940,5.782,easy
1957.000,388.800,63.780,15.570,1830.000,347.200,52.140,9.091,189.100,30.930,6.471,2.201,313.800,64.320,14.790,5.734,easy
1931.000,387.000,63.260,15.420,1826.000,349.400,52.480,9.137,187.500,30.680,6.539,2.188,311.500,64.390,14.780,5.676,easy
1944.000,386.700,63.770,15.590,1825.000,348.600,52.820,9.262,189.100,30.680,6.494,2.204,312.500,64.490,14.750,5.713,easy
1954.000,383.500,62.790,15.500,1819.000,347.600,52.510,9.280,189.700,30.580,6.514,2.194,312.400,64.190,14.700,5.689,easy
1962.000,386.300,64.210,15.670,1832.000,351.900,52.750,9.237,187.500,30.820,6.528,2.207,312.500,64.590,15.040,5.782,easy
1963.000,387.400,63.750,15.690,1846.000,351.200,52.600,9.244,188.400,30.760,6.555,2.217,314.800,64.420,14.850,5.757,easy
1963.000,389.800,64.420,15.620,1826.000,349.400,52.940,9.317,189.200,30.960,6.561,2.195,316.500,65.640,15.090,5.874,easy
1974.000,394.100,64.400,15.800,1836.000,351.700,53.740,9.344,189.500,30.900,6.605,2.229,318.800,65.760,15.130,5.864,easy
1970.000,388.700,63.830,15.520,1843.000,350.800,52.550,9.264,189.700,30.960,6.494,2.229,312.000,64.230,15.000,5.747,easy
1930.000,384.800,62.680,15.650,1820.000,351.200,52.590,9.227,188.600,30.680,6.517,2.201,312.500,64.280,14.840,5.747,easy
1941.000,382.600,63.150,15.620,1839.000,351.200,53.020,9.253,186.800,30.830,6.550,2.206,312.300,63.690,14.810,5.713,easy
1944.000,387.800,63.600,15.400,1829.000,349.500,52.780,9.254,191.000,30.760,6.485,2.207,310.800,64.150,14.610,5.720,easy
1935.000,389.600,63.450,15.590,1844.000,352.200,52.670,9.208,188.300,30.770,6.539,2.226,312.900,64.410,14.780,5.712,easy
1934.000,384.900,63.720,15.610,1820.000,352.600,53.030,9.335,188.200,30.920,6.557,2.246,313.700,64.810,14.880,5.789,easy
1965.000,386.500,64.170,15.650,1853.000,351.800,53.120,9.295,188.900,31.030,6.521,2.221,316.000,65.070,15.130,5.833,easy
1962.000,393.700,64.930,16.060,1850.000,353.200,53.930,9.352,188.500,31.030,6.518,2.223,318.900,65.760,15.200,5.815,easy
1990.000,391.200,65.290,16.000,1832.000,353.000,53.320,9.375,190.200,31.150,6.608,2.246,320.900,66.470,15.230,5.896,easy
1980.000,396.100,64.470,15.860,1834.000,352.600,52.370,9.337,188.200,31.130,6.637,2.236,316.200,65.510,14.920,5.815,easy
1964.000,387.800,63.230,15.600,1838.000,353.800,52.980,9.316,189.800,30.900,6.568,2.214,314.400,64.560,14.980,5.705,easy
1949.000,391.000,63.920,15.680,1831.000,351.000,53.430,9.302,188.900,30.860,6.546,2.205,312.100,65.040,14.820,5.724,easy
1957.000,389.400,64.240,15.700,1842.000,352.400,53.270,9.293,191.200,30.840,6.483,2.210,312.400,64.400,14.860,5.748,easy
1957.000,387.800,63.950,15.660,1837.000,351.400,52.760,9.288,187.200,30.830,6.544,2.215,311.900,64.610,14.900,5.767,easy
1949.000,389.900,65.020,15.660,1852.000,351.100,54.020,9.331,188.900,31.040,6.591,2.250,314.400,64.930,15.020,5.803,easy
1978.000,388.400,64.140,15.910,1830.000,352.100,53.110,9.324,185.800,31.070,6.584,2.210,317.100,65.730,15.150,5.880,easy
1977.000,394.100,65.230,15.960,1841.000,352.400,53.580,9.249,190.400,31.150,6.586,2.218,318.600,66.330,15.210,5.911,easy
1977.000,395.700,65.320,16.100,1855.000,353.100,53.870,9.364,189.300,31.220,6.624,2.232,321.800,66.610,15.410,5.959,easy
1991.000,399.900,65.450,15.940,1848.000,353.500,52.680,9.282,192.000,31.290,6.626,2.231,316.700,65.740,15.080,5.878,easy
1981.000,390.200,64.780,15.760,1830.000,351.000,53.090,9.233,189.700,31.070,6.547,2.190,314.800,65.400,14.960,5.792,easy
1959.000,390.000,64.310,15.770,1835.000,348.600,53.070,9.237,191.900,30.800,6.521,2.222,313.900,65.490,15.020,5.760,easy
1976.000,394.200,64.710,15.810,1842.000,352.500,52.880,9.313,189.300,31.040,6.543,2.219,315.400,65.650,14.970,5.772,easy
1968.000,392.900,64.760,15.850,1843.000,352.600,52.880,9.227,191.700,30.960,6.563,2.227,316.200,65.560,15.000,5.844,easy
1966.000,392.700,64.670,15.980,1844.000,350.300,52.540,9.303,189.800,31.040,6.559,2.244,316.300,65.710,15.190,5.901,easy
1977.000,397.300,65.560,15.870,1849.000,352.200,53.320,9.325,187.600,31.170,6.589,2.202,318.700,66.590,15.410,5.956,easy
2001.000,397.500,65.320,16.130,1854.000,352.000,53.510,9.274,190.600,31.200,6.604,2.246,322.700,66.540,15.550,5.956,easy
2003.000,401.900,66.360,16.330,1857.000,354.200,53.770,9.378,192.700,31.460,6.644,2.221,324.500,67.530,15.480,6.051,easy
2018.000,398.500,66.480,16.350,1855.000,354.500,53.600,9.231,191.100,31.580,6.679,2.235,327.700,67.610,15.610,6.075,easy
2003.000,401.400,67.160,16.350,1845.000,351.300,52.540,9.318,192.100,31.450,6.645,2.218,324.100,67.210,15.460,5.888,easy
1993.000,396.400,64.840,15.920,1843.000,352.900,52.910,9.193,189.300,31.450,6.625,2.202,320.000,66.460,15.210,5.883,easy
1984.000,392.700,65.020,15.870,1833.000,352.500,52.920,9.099,191.100,31.260,6.625,2.196,319.200,66.680,15.200,5.863,easy
1982.000,391.900,64.910,16.000,1847.000,350.400,52.420,9.143,191.200,30.990,6.562,2.234,320.400,66.160,15.280,5.881,easy
1976.000,393.800,64.610,16.000,1843.000,351.400,52.360,9.250,189.900,31.120,6.553,2.210,318.600,66.700,15.330,5.848,easy
1984.000,397.700,65.280,16.060,1839.000,350.900,52.400,9.207,193.400,31.420,6.599,2.209,321.000,66.820,15.340,5.932,easy
2005.000,397.600,65.700,16.150,1846.000,351.300,52.830,9.212,190.000,31.200,6.617,2.224,322.800,67.240,15.410,5.992,easy
1996.000,399.200,66.160,16.040,1851.000,352.200,52.740,9.240,194.100,31.270,6.644,2.214,324.600,67.540,15.640,6.097,easy
1992.000,401.900,66.830,16.230,1829.000,351.600,53.340,9.160,193.200,31.560,6.659,2.193,326.700,68.340,15.830,6.144,easy
2020.000,401.500,66.730,16.400,1847.000,352.500,53.140,9.145,191.600,31.780,6.627,2.225,328.500,68.800,15.700,6.023,easy
2002.000,393.800,64.800,16.070,1850.000,347.900,52.270,9.149,192.700,31.400,6.585,2.196,322.100,67.240,15.350,5.951,easy
1987.000,391.000,64.880,15.860,1827.000,347.200,52.270,9.112,193.000,31.420,6.570,2.238,320.300,67.140,15.390,5.929,easy
1970.000,394.400,65.160,15.870,1833.000,349.800,52.090,9.033,187.300,31.190,6.582,2.192,321.000,67.510,15.350,5.927,easy
1979.000,392.600,65.760,15.990,1852.000,349.000,52.340,9.044,191.400,31.390,6.576,2.207,320.800,66.710,15.400,5.885,easy
1999.000,394.800,65.020,16.040,1836.000,349.600,52.140,9.172,189.000,31.140,6.591,2.207,321.500,67.130,15.370,6.002,easy
1976.000,396.200,65.690,16.070,1835.000,350.800,52.560,9.167,192.400,31.360,6.543,2.195,324.200,67.710,15.600,6.014,easy
1989.000,400.300,65.680,16.290,1835.000,351.100,52.480,9.173,190.400,31.310,6.620,2.201,325.400,68.170,15.760,6.138,easy
2007.000,397.000,65.640,16.190,1853.000,352.300,52.190,9.164,192.200,31.770,6.628,2.210,327.400,69.010,15.930,6.124,easy
1997.000,402.200,66.690,16.420,1848.000,352.200,52.660,9.196,193.300,31.730,6.661,2.238,331.600,69.360,15.930,6.181,easy
2005.000,397.700,65.670,16.100,1841.000,350.200,51.890,9.061,191.700,31.520,6.576,2.214,324.600,67.890,15.530,5.982,easy
1958.000,390.700,64.460,15.960,1830.000,351.600,52.170,9.108,190.700,31.350,6.534,2.178,323.300,67.250,15.290,5.966,easy
1972.000,393.600,65.190,15.880,1828.000,345.600,52.400,9.029,191.700,31.140,6.518,2.191,321.700,67.780,15.410,5.941,easy
1987.000,392.500,64.460,16.050,1822.000,346.300,52.360,9.126,192.600,31.410,6.544,2.173,324.100,67.010,15.500,5.975,easy
1963.000,394.500,65.540,16.050,1845.000,348.100,52.610,9.129,190.600,31.310,6.543,2.170,323.200,67.710,15.340,5.995,easy
1987.000,396.100,65.680,16.110,1826.000,346.700,52.480,9.085,190.600,31.320,6.539,2.198,324.200,68.230,15.450,6.054,easy
1984.000,394.500,65.590,16.220,1839.000,347.200,53.060,9.105,194.300,31.390,6.561,2.203,326.600,68.700,15.630,6.048,easy
2000.000,398.500,65.980,16.310,1836.000,349.900,52.130,9.174,190.000,31.280,6.571,2.194,329.700,68.770,15.760,6.159,easy
1987.000,399.000,66.770,16.270,1846.000,348.700,52.720,9.144,192.400,31.620,6.561,2.191,331.400,69.010,15.680,6.072,easy
1966.000,392.600,65.740,15.980,1836.000,347.600,52.090,9.002,192.800,31.370,6.463,2.165,323.700,67.350,15.490,5.959,easy
1975.000,391.400,64.900,15.850,1837.000,346.600,52.000,9.121,193.600,31.170,6.590,2.158,322.300,67.110,15.370,5.960,easy
1973.000,391.200,65.740,15.840,1835.000,349.300,52.020,9.051,192.400,31.140,6.507,2.156,324.100,67.280,15.490,5.946,easy
1981.000,394.800,65.700,16.100,1831.000,349.100,51.950,9.040,192.200,31.240,6.534,2.163,322.700,67.510,15.440,5.943,easy
1983.000,391.800,64.700,15.970,1834.000,346.400,52.440,9.013,188.000,31.360,6.543,2.168,322.800,67.300,15.620,6.016,easy
1976.000,394.100,65.800,16.140,1832.000,348.500,52.000,9.088,192.400,31.210,6.500,2.160,325.900,68.180,15.660,6.054,easy
1974.000,399.700,66.060,16.330,1822.000,346.300,51.810,9.140,193.300,31.210,6.526,2.172,329.200,68.890,15.890,6.105,easy
1984.000,402.000,67.180,16.430,1837.000,349.500,53.290,9.120,191.300,31.520,6.566,2.182,330.700,69.440,15.940,6.184,easy
1988.000,397.300,66.030,16.260,1841.000,350.800,51.660,8.987,192.900,31.510,6.546,2.165,326.300,68.030,15.410,5.951,easy
1972.000,391.400,63.980,15.990,1812.000,345.500,51.910,9.007,193.300,31.240,6.537,2.148,323.700,67.160,15.320,5.915,easy
1975.000,387.000,64.180,15.860,1834.000,346.500,52.010,9.029,189.700,31.020,6.486,2.129,319.700,66.860,15.320,5.922,easy
1981.000,394.400,64.760,16.030,1826.000,347.800,51.570,8.978,189.200,31.010,6.499,2.160,321.300,66.840,15.430,5.979,easy
1969.000,394.000,64.950,16.000,1822.000,344.100,52.290,9.045,190.900,30.920,6.443,2.144,320.900,66.530,15.370,5.932,easy
1991.000,394.500,65.250,16.000,1833.000,345.900,51.820,8.982,190.400,30.830,6.454,2.122,322.500,67.270,15.490,5.998,easy
1969.000,396.100,64.550,16.170,1827.000,349.300,52.610,8.945,189.800,31.150,6.478,2.150,324.500,67.780,15.540,5.988,easy
1990.000,397.700,65.720,16.350,1828.000,346.600,52.080,9.017,191.100,31.240,6.521,2.180,326.600,68.510,15.690,6.128,easy
1991.000,398.900,65.240,16.020,1841.000,349.800,51.920,9.041,191.800,31.200,6.545,2.166,322.600,67.240,15.210,5.897,easy
1968.000,390.300,64.570,15.910,1824.000,346.600,51.270,8.896,189.300,31.020,6.443,2.141,319.300,66.140,15.160,5.853,easy
1946.000,388.100,63.650,15.700,1826.000,347.200,51.720,8.976,189.800,30.780,6.447,2.179,317.700,66.070,15.140,5.869,easy
1972.000,392.200,64.350,15.830,1815.000,346.100,51.610,9.015,188.300,30.830,6.428,2.145,318.500,66.100,15.100,5.830,easy
1956.000,389.700,64.350,15.810,1821.000,347.100,51.510,8.984,191.100,30.830,6.433,2.150,316.800,66.140,15.230,5.926,easy
1971.000,396.900,64.360,15.800,1823.000,347.200,53.110,9.066,189.000,30.890,6.467,2.152,320.000,66.560,15.260,5.892,easy
1956.000,395.500,64.770,15.960,1825.000,345.700,52.620,9.039,190.200,30.950,6.434,2.153,320.500,67.080,15.400,5.985,easy
1975.000,393.900,65.860,16.230,1832.000,348.000,52.900,9.044,190.900,31.090,6.490,2.203,323.100,67.540,15.560,5.991,easy
1978.000,394.100,65.510,15.960,1843.000,348.800,52.310,9.115,188.800,30.800,6.456,2.175,320.100,66.500,15.260,5.944,bogus
1971.000,393.600,65.360,16.070,1833.000,347.400,53.070,9.074,189.600,30.920,6.493,2.184,322.100,67.090,15.330,5.872,bogus
1979.000,392.300,64.730,15.760,1833.000,347.000,52.210,9.044,187.900,31.030,6.447,2.166,316.500,65.970,14.890,5.732,bogus
1965.000,386.900,64.130,15.600,1819.000,345.900,52.270,8.993,188.000,30.870,6.382,2.153,314.600,65.160,15.020,5.775,bogus
1960.000,387.300,64.470,15.580,1824.000,348.100,52.560,9.065,187.400,30.590,6.443,2.175,313.900,64.860,15.000,5.800,bogus
1940.000,382.200,62.810,15.330,1830.000,347.000,52.330,9.015,186.100,30.800,6.406,2.178,318.000,65.810,15.050,5.829,easy
1921.000,383.400,63.410,15.590,1831.000,344.700,51.910,9.014,187.000,30.900,6.483,2.160,320.900,66.670,15.200,5.833,easy
1930.000,382.100,63.340,15.580,1816.000,345.800,52.010,9.012,188.400,30.910,6.476,2.173,318.700,65.630,14.900,5.701,easy
1888.000,377.100,61.850,15.120,1819.000,346.200,51.720,8.904,185.800,30.590,6.317,2.146,313.200,64.670,14.530,5.552,easy
1886.000,370.600,61.500,15.140,1810.000,343.000,51.580,8.956,185.300,30.590,6.354,2.123,310.600,63.760,14.440,5.571,easy
1888.000,373.800,61.130,15.150,1802.000,342.300,51.130,8.901,185.200,30.310,6.371,2.124,308.700,63.970,14.460,5.538,easy
1904.000,370.900,60.670,15.130,1812.000,342.500,51.410,8.935,186.000,30.290,6.309,2.146,307.700,63.380,14.350,5.582,easy
1882.000,371.400,60.860,15.080,1813.000,343.300,51.630,8.847,186.800,30.420,6.371,2.126,308.600,63.340,14.560,5.601,easy
1887.000,375.900,61.430,15.290,1810.000,344.800,51.800,9.009,186.800,30.360,6.290,2.148,310.700,64.000,14.570,5.639,easy
1908.000,376.200,61.960,15.300,1816.000,347.700,51.830,9.032,184.600,30.520,6.416,2.149,312.900,64.810,14.680,5.696,easy
1918.000,382.000,61.850,15.540,1810.000,344.800,52.820,9.061,187.300,30.660,6.404,2.169,315.200,65.690,14.680,5.692,easy
1919.000,377.700,61.810,15.190,1812.000,343.900,51.380,8.981,188.000,30.560,6.333,2.122,309.500,63.560,14.480,5.540,easy
1896.000,372.800,60.820,14.680,1810.000,342.300,51.570,8.985,185.000,30.310,6.306,2.111,305.800,63.060,14.270,5.436,easy
1870.000,365.800,60.270,14.850,1810.000,342.900,51.400,8.951,185.900,30.130,6.319,2.118,303.800,62.140,14.110,5.462,easy
1851.000,371.900,60.180,14.930,1803.000,344.000,51.960,8.942,185.000,30.230,6.310,2.097,304.100,62.160,14.170,5.399,easy
1867.000,368.200,60.030,14.860,1813.000,344.200,51.930,9.005,183.800,30.260,6.285,2.149,302.700,62.410,14.130,5.410,easy
1856.000,371.000,60.480,14.860,1812.000,345.100,51.460,8.987,185.200,30.070,6.331,2.137,304.300,62.790,14.150,5.478,easy
1886.000,370.100,60.350,14.890,1813.000,346.100,51.770,9.148,186.200,30.140,6.311,2.160,306.700,63.140,14.370,5.558,easy
1893.000,372.300,61.990,15.140,1816.000,347.700,52.540,9.065,183.900,30.470,6.334,2.157,310.000,63.950,14.500,5.596,easy
1893.000,378.600,61.350,15.190,1812.000,347.300,52.830,9.246,185.500,30.300,6.351,2.152,310.000,64.140,14.670,5.667,easy
1895.000,378.800,62.250,15.370,1819.000,349.900,52.810,9.210,182.900,30.570,6.471,2.147,314.200,64.880,14.670,5.719,easy
1900.000,380.200,62.520,15.500,1822.000,347.700,52.790,9.225,184.200,30.810,6.461,2.162,315.200,64.850,14.650,5.648,easy
1913.000,377.000,61.160,15.030,1814.000,347.300,51.910,9.110,186.900,30.530,6.344,2.164,307.100,63.270,14.340,5.499,easy
1884.000,373.400,60.400,14.930,1816.000,347.800,52.090,9.060,183.600,30.350,6.308,2.134,303.500,62.170,13.890,5.439,easy
1887.000,370.000,59.970,14.920,1829.000,347.700,52.280,9.122,182.100,29.990,6.255,2.128,302.900,61.950,14.040,5.499,easy
1871.000,372.000,60.550,14.790,1819.000,347.600,52.430,9.127,184.300,30.200,6.333,2.102,301.000,62.850,14.210,5.448,easy
1874.000,374.100,60.500,15.010,1824.000,345.500,52.150,9.050,185.400,30.250,6.340,2.140,302.000,62.130,14.130,5.421,easy
1881.000,373.400,60.520,15.050,1825.000,347.200,52.820,9.202,183.600,30.250,6.357,2.134,304.400,62.310,14.130,5.440,easy
1897.000,372.000,61.270,15.130,1831.000,349.500,52.800,9.204,183.500,30.300,6.406,2.138,305.300,62.840,14.240,5.550,easy
1896.000,375.100,61.920,15.090,1841.000,349.300,52.500,9.265,184.300,30.300,6.344,2.122,306.700,63.310,14.230,5.563,easy
1904.000,375.900,61.870,15.410,1845.000,353.400,53.210,9.330,184.500,30.480,6.364,2.150,308.300,64.080,14.550,5.598,easy
1935.000,381.100,62.350,15.350,1841.000,353.500,53.050,9.300,186.900,30.450,6.381,2.152,310.600,63.920,14.630,5.604,easy
1914.000,372.800,61.780,15.140,1837.000,348.400,52.480,9.110,184.900,30.400,6.350,2.134,303.800,62.990,14.090,5.472,easy
1882.000,371.100,61.620,14.910,1838.000,350.400,52.390,9.066,185.500,30.210,6.318,2.122,302.200,61.960,13.960,5.412,easy
1895.000,372.000,61.040,15.060,1829.000,349.700,52.420,9.178,184.900,30.240,6.280,2.106,301.700,62.230,14.140,5.424,easy
1904.000,372.500,60.390,15.030,1827.000,350.100,52.480,9.197,183.700,30.210,6.247,2.102,301.300,62.200,13.980,5.456,easy
1910.000,369.700,61.720,14.970,1831.000,348.700,53.400,9.158,184.700,30.340,6.274,2.102,302.500,62.450,14.060,5.479,easy
1907.000,372.600,61.840,15.090,1831.000,352.300,52.860,9.304,184.400,30.220,6.307,2.117,303.500,63.140,14.090,5.541,easy
1890.000,376.900,61.890,15.380,1845.000,353.200,53.020,9.299,184.500,30.400,6.372,2.129,304.300,63.210,14.350,5.500,easy
1924.000,379.800,62.330,15.210,1834.000,354.300,53.560,9.380,186.500,30.430,6.308,2.126,307.600,63.920,14.490,5.598,easy
1908.000,380.600,62.430,15.500,1844.000,353.900,53.430,9.328,185.200,30.630,6.345,2.140,311.400,64.560,14.820,5.709,easy
1947.000,384.400,62.740,15.300,1841.000,351.600,53.470,9.281,186.300,30.600,6.400,2.149,310.300,63.820,14.370,5.549,easy
1912.000,377.100,61.550,15.180,1826.000,351.700,52.820,9.258,185.700,30.250,6.341,2.097,305.000,62.990,14.320,5.574,easy
1884.000,374.000,61.790,15.190,1832.000,351.300,53.130,9.196,186.100,30.340,6.334,2.110,304.600,62.680,14.250,5.550,easy
1908.000,375.000,61.940,15.010,1821.000,352.700,53.000,9.215,182.800,30.160,6.330,2.119,304.800,63.100,14.280,5.499,easy
1916.000,374.000,61.420,15.220,1839.000,351.700,53.510,9.286,183.500,30.250,6.263,2.088,303.200,63.230,14.380,5.596,easy
1903.000,375.900,61.670,15.220,1846.000,351.400,52.980,9.265,186.400,30.290,6.283,2.107,305.600,63.560,14.410,5.569,easy
1922.000,380.000,62.280,15.280,1848.000,352.400,53.050,9.227,187.300,30.320,6.295,2.146,307.700,63.850,14.500,5.681,easy
1922.000,381.400,62.620,15.440,1842.000,352.300,53.460,9.308,187.100,30.380,6.320,2.127,311.200,64.460,14.640,5.701,easy
1934.000,384.400,63.440,15.580,1854.000,350.500,53.760,9.378,187.800,30.490,6.358,2.123,312.700,65.260,14.950,5.795,easy
1957.000,387.600,63.980,15.830,1862.000,353.500,53.710,9.396,186.500,30.560,6.381,2.143,315.900,66.080,14.920,5.892,easy
1953.000,384.500,63.210,15.560,1845.000,351.100,53.310,9.270,187.500,30.670,6.403,2.131,312.700,64.390,14.600,5.657,easy
1925.000,380.000,62.280,15.400,1847.000,350.100,52.580,9.119,185.400,30.340,6.296,2.113,307.300,63.770,14.500,5.631,easy
1930.000,381.400,61.960,15.260,1835.000,350.600,52.130,9.160,186.100,30.150,6.300,2.085,306.700,63.680,14.630,5.661,easy
1908.000,378.000,62.330,15.450,1852.000,350.300,53.310,9.159,186.500,30.230,6.285,2.065,307.300,63.440,14.540,5.702,easy
1922.000,383.200,62.820,15.300,1831.000,349.800,53.100,9.225,186.900,30.160,6.285,2.084,307.900,63.880,14.620,5.692,easy
1918.000,379.600,61.830,15.380,1833.000,350.700,53.110,9.169,186.200,30.240,6.272,2.118,308.700,63.730,14.660,5.685,easy
1913.000,381.000,62.600,15.480,1838.000,350.600,52.990,9.282,184.800,30.300,6.317,2.115,311.100,64.950,14.770,5.774,easy
1926.000,377.300,63.470,15.730,1851.000,351.500,53.320,9.197,188.200,30.340,6.287,2.098,314.700,65.520,14.880,5.867,easy
1929.000,384.400,63.830,15.840,1845.000,352.800,52.790,9.265,187.500,30.570,6.275,2.110,316.700,65.630,15.130,5.892,easy
1944.000,389.100,63.990,15.660,1848.000,353.200,52.580,9.133,189.800,30.550,6.366,2.123,314.900,65.180,14.830,5.734,easy
1914.000,380.700,62.200,15.520,1826.000,349.600,52.660,9.118,186.900,30.240,6.294,2.065,310.200,64.430,14.530,5.704,easy
1918.000,379.800,62.870,15.460,1832.000,348.900,52.650,9.043,186.000,30.280,6.266,2.073,309.800,64.010,14.720,5.708,easy
1918.000,380.800,63.280,15.520,1823.000,347.100,52.330,9.159,184.200,30.150,6.260,2.083,309.100,64.460,14.600,5.688,easy
1917.000,378.500,62.250,15.500,1820.000,347.100,51.970,9.045,187.400,30.220,6.296,2.068,310.000,64.260,14.680,5.743,easy
1925.000,380.300,62.750,15.760,1828.000,349.400,52.380,9.027,184.800,30.200,6.266,2.087,310.300,64.600,14.710,5.762,easy
1914.000,382.200,63.710,15.720,1831.000,350.800,52.490,9.223,184.500,30.350,6.326,2.088,312.700,64.820,14.770,5.807,easy
1927.000,385.500,63.750,15.780,1846.000,349.400,52.270,9.134,186.200,30.480,6.312,2.073,315.100,65.820,15.140,5.910,easy
1939.000,386.800,64.880,15.900,1851.000,348.600,52.600,9.175,189.600,30.590,6.306,2.102,318.200,66.320,15.200,5.969,easy
1941.000,390.600,64.640,15.980,1830.000,348.900,52.580,9.125,187.500,30.670,6.313,2.083,319.500,66.350,15.140,5.893,easy
1944.000,380.100,63.730,15.700,1826.000,348.800,52.510,9.020,187.000,30.360,6.266,2.063,312.600,64.860,14.840,5.757,easy
1920.000,383.100,63.390,15.660,1829.000,346.100,52.110,9.009,186.900,30.110,6.250,2.057,311.400,64.230,14.700,5.743,easy
1920.000,375.900,62.840,15.650,1823.000,346.100,52.450,9.010,186.900,30.160,6.219,2.053,312.100,65.210,14.880,5.765,easy
1906.000,381.600,63.290,15.730,1815.000,346.800,51.920,8.979,184.800,30.090,6.221,2.060,311.100,64.330,14.680,5.788,easy
1935.000,377.900,62.960,15.710,1815.000,347.800,52.070,8.934,186.700,30.190,6.187,2.062,311.600,64.490,14.720,5.791,easy
1921.000,383.400,63.970,15.990,1831.000,344.600,52.170,9.033,184.200,30.210,6.232,2.044,312.100,65.250,14.780,5.804,easy
1953.000,383.300,64.100,15.880,1832.000,345.800,52.450,8.929,183.900,30.440,6.226,2.071,315.500,65.290,15.000,5.844,easy
1935.000,384.500,65.080,15.880,1833.000,347.800,51.880,8.964,185.600,30.420,6.310,2.083,317.300,65.990,15.150,5.887,easy
1927.000,384.700,64.120,15.830,1826.000,347.600,51.180,8.886,187.500,30.330,6.243,2.050,312.600,64.990,14.710,5.712,easy
1908.000,381.400,62.410,15.550,1824.000,345.600,51.050,8.928,185.900,30.210,6.158,2.022,310.300,64.160,14.550,5.683,easy
1900.000,382.100,63.600,15.510,1824.000,345.100,51.070,8.846,186.300,30.240,6.153,2.049,310.400,64.100,14.670,5.724,easy
1924.000,380.900,62.730,15.640,1804.000,345.400,51.300,8.889,184.400,30.070,6.189,2.048,309.600,64.330,14.710,5.673,easy
1920.000,379.000,63.400,15.670,1831.000,345.700,51.800,8.853,184.100,30.120,6.143,2.044,309.300,64.370,14.740,5.682,easy
1922.000,378.100,63.300,15.640,1830.000,346.400,51.260,8.882,184.500,30.030,6.190,2.038,311.600,64.410,14.770,5.728,easy
1916.000,382.900,64.400,15.650,1812.000,346.400,51.550,8.915,184.900,30.290,6.286,2.066,312.000,64.720,14.880,5.763,easy
1925.000,385.000,64.500,16.030,1820.000,346.300,51.980,8.934,186.400,30.270,6.245,2.070,314.500,65.060,14.880,5.814,easy
1934.000,384.300,63.880,15.820,1827.000,345.800,51.320,8.885,187.000,30.360,6.236,2.074,313.000,65.040,14.710,5.693,easy
1920.000,379.600,63.390,15.510,1827.000,346.300,51.300,8.862,185.600,30.110,6.166,2.046,307.300,63.350,14.430,5.596,easy
1903.000,378.000,62.660,15.470,1816.000,343.800,51.290,8.802,183.600,29.940,6.156,2.048,305.200,63.520,14.370,5.590,easy
1871.000,375.800,62.840,15.390,1807.000,339.500,51.390,8.896,184.400,29.960,6.177,2.039,304.800,63.240,14.490,5.595,easy
1916.000,378.900,62.630,15.580,1823.000,344.100,50.790,8.928,184.000,29.780,6.243,2.071,305.000,62.900,14.290,5.605,easy
1901.000,380.700,62.380,15.640,1816.000,344.100,51.020,8.875,186.400,29.880,6.255,2.044,306.500,63.150,14.410,5.604,easy
1902.000,381.900,63.430,15.530,1810.000,345.100,51.160,8.886,184.600,29.980,6.219,2.084,305.900,63.850,14.610,5.687,easy
1925.000,382.100,63.500,15.790,1830.000,346.900,52.020,8.825,183.400,30.020,6.269,2.073,308.300,63.690,14.720,5.694,easy
1927.000,381.700,63.740,15.840,1815.000,348.700,51.980,8.923,186.100,30.150,6.239,2.114,312.100,64.540,14.840,5.801,easy
1925.000,385.300,64.140,15.720,1828.000,347.800,51.010,8.949,186.900,30.140,6.262,2.083,310.900,64.020,14.580,5.591,easy
1926.000,379.800,62.500,15.400,1830.000,345.600,51.120,8.816,184.300,30.060,6.240,2.067,305.100,63.020,14.270,5.600,easy
1900.000,381.200,62.160,15.400,1833.000,344.400,51.490,8.933,183.200,29.940,6.270,2.059,303.500,62.430,14.270,5.515,easy
1907.000,379.400,62.890,15.270,1819.000,344.300,51.310,8.872,185.100,30.020,6.218,2.093,303.800,62.720,14.370,5.532,easy
1914.000,380.500,62.340,15.450,1830.000,346.200,51.690,8.876,184.700,30.060,6.233,2.077,303.900,63.010,14.300,5.493,easy
1913.000,375.700,62.700,15.480,1823.000,346.800,52.420,8.966,180.400,30.010,6.207,2.095,303.900,63.030,14.390,5.563,easy
1925.000,377.600,63.580,15.660,1832.000,349.600,51.950,9.041,184.300,30.090,6.282,2.096,306.200,63.430,14.410,5.607,easy
1937.000,382.500,64.060,15.670,1827.000,347.200,52.500,8.981,182.700,30.290,6.298,2.115,307.200,63.420,14.540,5.638,easy
1943.000,386.200,64.240,15.850,1829.000,348.700,52.250,9.044,185.400,30.160,6.336,2.117,310.000,64.180,14.710,5.692,easy
1943.000,387.200,63.520,15.740,1838.000,349.500,52.450,8.953,186.300,30.260,6.338,2.114,308.400,63.420,14.390,5.593,easy
1929.000,381.900,63.000,15.320,1837.000,347.100,52.370,9.036,184.900,30.070,6.285,2.087,303.800,62.520,14.250,5.518,easy
1923.000,378.400,62.780,15.550,1841.000,347.300,51.850,9.022,184.600,30.110,6.342,2.111,301.500,62.220,14.280,5.505,easy
1910.000,380.600,62.560,15.460,1825.000,347.600,51.860,9.006,184.200,30.120,6.286,2.089,304.700,62.490,14.250,5.508,easy
1925.000,380.200,63.140,15.530,1840.000,349.200,52.130,9.048,184.300,30.080,6.306,2.111,303.600,62.490,14.260,5.516,easy
1925.000,382.300,63.530,15.540,1832.000,351.200,52.240,9.047,184.800,30.080,6.307,2.116,302.700,62.980,14.410,5.593,easy
1929.000,380.500,63.800,15.650,1843.000,348.700,52.450,9.092,184.500,30.030,6.281,2.111,305.500,63.280,14.520,5.565,easy
1936.000,383.700,63.980,15.780,1849.000,350.900,53.190,9.129,186.200,30.280,6.328,2.136,307.700,64.000,14.520,5.656,easy
1946.000,385.100,64.190,15.960,1842.000,349.000,52.710,9.176,185.400,30.380,6.386,2.129,308.600,64.450,14.630,5.648,easy
1928.000,381.500,63.870,15.540,1847.000,351.100,52.310,9.132,183.900,30.300,6.327,2.105,304.800,62.760,14.230,5.519,easy
1917.000,381.800,62.680,15.510,1847.000,347.200,52.600,9.142,183.400,30.090,6.322,2.120,302.900,62.830,14.250,5.568,easy
1930.000,378.800,62.850,15.530,1834.000,347.800,52.810,9.074,184.600,30.320,6.335,2.123,303.000,62.600,14.330,5.539,easy
1931.000,383.500,62.660,15.470,1812.000,350.000,52.410,9.090,185.800,30.190,6.300,2.123,303.900,62.620,14.310,5.552,easy
1920.000,381.400,63.110,15.560,1849.000,346.600,52.440,9.159,184.900,30.030,6.283,2.115,303.700,62.710,14.360,5.556,easy
1918.000,379.200,63.630,15.600,1844.000,350.700,52.990,9.239,183.700,30.130,6.338,2.149,305.800,63.510,14.410,5.631,easy
1915.000,388.000,64.190,15.690,1845.000,351.000,52.100,9.205,188.000,30.480,6.398,2.138,308.000,63.610,14.480,5.630,easy
1940.000,390.100,64.480,15.850,1845.000,351.100,52.690,9.136,187.800,30.510,6.358,2.148,309.900,64.040,14.680,5.698,easy
1954.000,385.400,64.240,15.840,1843.000,352.500,53.060,9.127,187.900,30.610,6.430,2.158,310.500,64.440,14.720,5.656,easy
1951.000,381.600,63.250,15.570,1832.000,349.300,52.520,9.034,185.400,30.170,6.395,2.143,307.200,63.320,14.400,5.572,easy
1935.000,385.300,63.540,15.460,1826.000,347.200,52.870,9.146,185.900,30.300,6.337,2.132,305.000,63.400,14.300,5.548,easy
1944.000,380.700,63.260,15.510,1843.000,351.900,52.320,9.054,184.100,30.230,6.403,2.146,305.700,63.330,14.290,5.581,easy
1921.000,382.000,62.910,15.370,1828.000,348.600,52.650,9.078,187.800,30.220,6.382,2.122,305.600,63.310,14.340,5.582,easy
1939.000,384.300,64.010,15.560,1833.000,348.400,53.270,9.099,184.700,30.340,6.393,2.135,305.700,63.560,14.500,5.634,easy
1926.000,381.800,63.360,15.560,1840.000,350.000,51.820,9.064,188.100,30.380,6.447,2.156,310.400,64.260,14.620,5.649,easy
1930.000,387.600,63.470,15.820,1835.000,348.500,52.970,9.192,185.600,30.460,6.436,2.148,310.300,64.230,14.820,5.720,easy
1962.000,387.000,64.040,15.890,1847.000,350.600,52.840,9.229,185.900,30.440,6.394,2.152,314.300,64.900,14.820,5.745,easy
1962.000,385.400,63.910,15.780,1846.000,351.300,52.770,9.201,188.200,30.780,6.453,2.209,317.000,65.590,14.890,5.819,easy
1963.000,390.600,64.790,15.840,1860.000,351.000,53.160,9.121,187.900,30.980,6.523,2.180,319.400,66.040,15.160,5.879,easy
1978.000,392.200,65.260,15.980,1855.000,351.400,52.780,9.116,188.200,30.920,6.563,2.211,321.300,66.230,15.100,5.817,easy
1956.000,384.700,63.820,15.700,1833.000,349.900,52.460,9.082,189.500,30.980,6.482,2.144,315.900,65.390,14.650,5.715,easy
1947.000,383.600,63.560,15.530,1838.000,348.100,52.590,9.072,189.500,30.940,6.487,2.161,312.400,65.090,14.850,5.685,easy
1928.000,386.600,63.270,15.450,1845.000,349.500,52.290,9.089,188.800,30.640,6.418,2.164,311.700,64.320,14.660,5.685,easy
1944.000,384.800,63.610,15.470,1844.000,348.200,52.600,9.164,187.300,30.700,6.455,2.155,312.900,64.190,14.640,5.690,easy
1920.000,380.800,63.530,15.690,1825.000,348.100,52.080,9.041,186.300,30.600,6.472,2.169,312.000,64.860,14.690,5.718,easy
1934.000,381.800,63.570,15.580,1822.000,350.500,52.510,9.154,189.000,30.760,6.437,2.187,315.000,64.890,14.920,5.747,easy
1934.000,382.100,63.710,15.780,1842.000,352.200,53.400,9.114,188.200,30.940,6.447,2.183,316.400,65.340,14.910,5.757,easy
1940.000,385.300,63.830,15.930,1841.000,349.600,53.270,9.210,186.500,30.850,6.462,2.176,318.900,65.890,14.950,5.812,easy
1945.000,389.900,64.540,15.880,1854.000,354.200,53.360,9.180,187.700,30.850,6.484,2.154,319.900,66.380,15.170,5.873,easy
1939.000,391.500,64.630,15.770,1842.000,349.600,52.670,9.131,187.700,31.060,6.555,2.179,319.500,65.860,14.940,5.795,easy
1932.000,385.600,62.980,15.720,1834.000,350.300,51.880,9.071,188.700,31.060,6.464,2.164,315.700,65.410,14.890,5.733,easy
1921.000,378.400,63.100,15.500,1832.000,345.600,52.450,9.056,189.600,30.910,6.454,2.163,315.400,65.110,14.740,5.671,easy
1917.000,380.600,63.300,15.500,1828.000,348.200,52.580,9.176,187.500,30.770,6.422,2.171,315.600,65.310,14.830,5.716,easy
1921.000,378.700,62.730,15.410,1826.000,347.500,52.760,9.054,187.400,30.870,6.410,2.172,315.500,64.570,14.790,5.696,easy
1901.000,379.700,62.560,15.870,1827.000,348.400,53.130,9.088,189.400,30.770,6.457,2.170,314.400,65.520,14.800,5.726,easy
1927.000,379.000,62.890,15.820,1837.000,348.300,53.480,9.134,189.000,30.710,6.463,2.147,318.300,65.750,14.870,5.828,easy
1927.000,383.400,64.540,15.780,1836.000,347.800,52.450,9.072,189.600,30.890,6.436,2.183,318.900,66.270,15.210,5.896,easy
1933.000,384.300,64.510,15.730,1829.000,350.400,53.050,9.121,188.000,30.870,6.538,2.160,320.100,66.800,15.230,5.922,easy
1928.000,387.600,64.870,15.880,1835.000,350.200,52.260,9.099,192.100,31.240,6.514,2.169,320.800,66.920,15.150,5.808,easy
1928.000,379.000,63.170,15.600,1813.000,345.400,51.940,9.086,188.000,30.890,6.452,2.153,317.500,65.570,14.950,5.812,easy
1921.000,385.000,62.770,15.640,1826.000,345.200,52.540,9.054,188.600,30.950,6.439,2.131,315.900,65.430,14.910,5.817,easy
1913.000,383.000,63.340,15.570,1832.000,346.500,52.420,9.097,188.300,30.730,6.420,2.129,317.700,65.540,14.910,5.834,easy
1909.000,378.200,63.520,15.620,1831.000,347.000,51.870,9.058,185.900,30.670,6.415,2.129,315.900,65.340,14.960,5.747,easy
1921.000,380.500,63.530,15.650,1827.000,347.600,51.990,9.129,187.900,30.720,6.395,2.139,316.700,65.490,14.950,5.792,easy
1944.000,381.200,62.970,15.740,1824.000,350.500,52.900,9.122,187.300,30.720,6.389,2.157,319.000,65.890,14.970,5.852,easy
1932.000,386.300,64.090,15.890,1821.000,348.500,52.510,9.084,189.100,31.010,6.457,2.148,319.700,66.490,15.120,5.913,easy
1940.000,387.800,64.290,15.930,1840.000,351.500,52.790,9.074,188.900,30.920,6.446,2.146,322.600,67.060,15.370,5.936,easy
1930.000,388.600,64.270,15.930,1823.000,349.200,52.130,9.094,188.400,31.190,6.439,2.171,322.400,66.990,15.200,5.850,easy
1922.000,382.400,64.050,15.590,1827.000,349.400,51.700,8.984,190.300,30.760,6.438,2.132,317.100,66.100,15.030,5.821,easy
1927.000,378.600,62.780,15.510,1819.000,342.900,52.340,8.981,188.500,30.550,6.390,2.122,315.100,65.050,14.870,5.792,easy
1909.000,378.900,62.500,15.400,1824.000,347.200,51.630,8.944,185.700,30.430,6.360,2.114,315.400,65.370,14.940,5.774,easy
1921.000,378.000,62.410,15.420,1824.000,345.100,51.240,8.965,186.800,30.470,6.404,2.092,314.700,65.110,14.880,5.766,easy
1898.000,377.800,61.590,15.080,1831.000,343.700,51.100,8.761,187.200,30.510,6.385,2.095,313.900,64.720,14.830,5.757,easy
1901.000,380.400,61.290,15.230,1816.000,344.200,50.250,8.683,186.200,30.380,6.337,2.122,316.500,65.320,15.040,5.798,easy
1902.000,382.800,61.330,15.230,1805.000,342.500,50.770,8.732,187.600,30.600,6.391,2.119,318.600,65.830,15.100,5.872,easy
1919.000,380.200,62.450,15.420,1822.000,345.700,51.320,8.812,185.600,30.860,6.383,2.158,320.200,66.500,15.160,5.924,easy
1961.000,385.300,62.250,15.590,1824.000,345.900,52.200,8.896,188.400,30.830,6.361,2.113,316.500,66.100,14.930,5.744,easy
1915.000,383.000,62.950,15.560,1833.000,347.500,52.280,9.028,186.900,30.590,6.335,2.085,312.300,65.290,14.780,5.704,easy
1906.000,380.700,63.380,15.510,1821.000,346.300,52.620,9.014,185.500,30.370,6.299,2.105,310.600,64.460,14.700,5.704,easy
1920.000,380.200,63.470,15.460,1825.000,351.000,52.310,8.978,186.900,30.210,6.279,2.066,310.700,64.030,14.710,5.744,easy
1924.000,379.400,63.250,15.530,1844.000,346.600,52.320,9.017,186.800,30.490,6.331,2.082,309.700,64.090,14.690,5.714,easy
1924.000,381.300,63.700,15.660,1843.000,351.000,52.450,9.118,187.000,30.430,6.332,2.088,311.800,64.250,14.790,5.758,easy
1930.000,380.900,63.660,15.790,1836.000,347.400,53.490,9.113,186.400,30.240,6.309,2.091,312.400,64.750,14.950,5.812,easy
1941.000,386.100,64.660,15.730,1837.000,348.000,52.990,9.183,185.400,30.460,6.380,2.101,314.900,65.400,15.050,5.798,easy
1953.000,387.800,64.720,15.930,1830.000,348.500,52.840,9.123,187.700,30.630,6.395,2.093,317.400,65.540,15.030,5.773,easy
1955.000,386.600,63.460,15.700,1829.000,348.300,53.030,9.119,186.800,30.230,6.299,2.095,311.800,64.540,14.750,5.700,easy
1923.000,380.700,62.790,15.620,1822.000,347.900,52.800,9.007,185.600,30.370,6.231,2.058,309.700,64.060,14.590,5.631,easy
1930.000,382.400,63.200,15.780,1844.000,349.000,53.000,9.062,183.900,30.070,6.260,2.068,308.700,64.090,14.650,5.626,easy
1929.000,382.400,63.640,15.610,1824.000,351.700,52.440,9.068,186.300,30.290,6.310,2.080,308.900,63.890,14.610,5.695,easy
1926.000,385.600,64.200,15.680,1840.000,349.700,52.640,9.002,184.100,30.240,6.316,2.088,309.600,64.340,14.570,5.689,easy
1939.000,385.200,64.110,15.820,1842.000,351.500,53.000,9.175,187.700,30.340,6.304,2.090,311.900,64.600,14.740,5.700,easy
1937.000,388.300,65.140,15.950,1846.000,350.600,53.050,9.191,186.600,30.350,6.306,2.078,313.100,65.020,14.960,5.787,easy
1958.000,383.100,64.950,16.000,1844.000,351.100,53.510,9.063,185.900,30.530,6.370,2.082,315.000,65.550,15.030,5.777,easy
1954.000,390.100,63.880,15.940,1849.000,350.300,53.000,9.184,187.000,30.450,6.337,2.092,311.000,64.720,14.560,5.677,easy
1928.000,384.600,63.960,15.810,1829.000,348.400,52.330,9.105,185.700,30.230,6.359,2.087,309.000,64.380,14.610,5.700,easy
1931.000,385.100,64.140,15.600,1837.000,347.800,53.010,9.056,186.100,30.270,6.282,2.086,310.000,64.220,14.670,5.655,easy
1938.000,385.600,64.170,15.860,1846.000,351.200,53.190,9.214,185.700,30.240,6.283,2.087,308.700,63.960,14.600,5.687,easy
1938.000,383.200,63.140,15.790,1835.000,349.800,53.040,9.214,186.100,30.300,6.266,2.080,309.500,64.210,14.610,5.767,easy
1932.000,386.100,64.720,15.890,1841.000,349.200,53.340,9.215,184.900,30.310,6.284,2.071,311.400,64.600,14.780,5.780,easy
1946.000,389.400,65.170,16.020,1862.000,350.800,53.180,9.168,189.600,30.400,6.341,2.093,312.600,65.080,15.020,5.795,easy
1950.000,388.000,64.810,16.050,1835.000,351.300,53.510,9.170,185.300,30.510,6.368,2.135,316.500,65.810,15.110,5.834,easy
1977.000,392.800,65.340,16.090,1847.000,352.600,53.190,9.272,186.800,30.660,6.364,2.129,318.400,65.900,15.160,5.878,easy
1984.000,389.300,64.140,15.820,1840.000,352.000,53.130,9.101,184.900,30.630,6.358,2.105,313.400,64.840,14.880,5.727,easy
1944.000,387.200,64.420,15.630,1848.000,350.300,51.890,9.115,186.600,30.380,6.341,2.064,312.200,64.630,14.750,5.682,easy
1950.000,384.700,63.770,15.580,1842.000,348.100,52.590,9.066,187.300,30.450,6.303,2.118,311.800,64.240,14.710,5.651,easy
1952.000,384.300,63.530,15.430,1839.000,348.800,52.150,9.048,185.800,30.460,6.316,2.131,312.200,64.100,14.800,5.689,easy
1931.000,384.600,63.380,15.370,1826.000,348.100,52.750,8.986,185.300,30.460,6.349,2.106,312.500,64.870,14.770,5.749,easy
1956.000,387.400,63.200,15.490,1856.000,348.700,51.910,8.853,184.500,30.430,6.377,2.114,314.200,65.240,15.000,5.774,easy
1937.000,386.800,61.430,15.230,1818.000,345.600,50.590,8.523,186.200,30.600,6.380,2.138,317.300,65.700,15.010,5.819,easy
1931.000,384.700,60.780,14.560,1837.000,344.300,50.180,8.429,187.500,30.680,6.345,2.166,320.200,66.430,15.280,5.886,easy
1949.000,386.700,61.090,14.980,1839.000,348.900,51.930,8.800,188.900,30.870,6.504,2.130,321.200,66.870,15.450,5.970,easy
1980.000,389.900,64.270,15.490,1856.000,351.100,52.250,9.012,189.300,30.840,6.486,2.147,319.300,66.150,15.010,5.869,easy
1953.000,386.700,64.030,15.580,1842.000,352.300,52.830,9.035,186.300,30.690,6.353,2.112,318.000,65.740,14.870,5.797,easy
1940.000,389.400,64.200,15.630,1839.000,350.300,52.760,9.229,188.000,30.850,6.416,2.135,315.600,65.600,15.020,5.742,easy
1969.000,386.600,63.960,15.670,1844.000,350.700,52.940,9.260,187.700,30.660,6.383,2.115,316.200,65.560,14.990,5.773,easy
1974.000,386.900,64.370,15.590,1844.000,351.700,53.330,9.175,188.300,30.750,6.454,2.108,316.700,65.660,14.970,5.812,easy
1953.000,390.700,64.750,15.610,1833.000,351.700,53.320,9.284,189.300,30.720,6.434,2.166,318.300,66.070,15.200,5.823,easy
1970.000,391.300,65.120,15.800,1843.000,354.000,53.720,9.381,187.700,30.710,6.457,2.169,319.900,66.310,15.190,5.946,easy
1971.000,393.300,65.610,15.860,1846.000,355.000,53.710,9.326,187.800,30.910,6.467,2.166,322.200,67.330,15.300,5.943,easy
1984.000,395.100,66.310,16.110,1850.000,351.500,53.590,9.336,188.400,31.010,6.445,2.174,326.100,67.280,15.550,6.013,easy
1982.000,392.300,65.400,15.890,1854.000,353.500,53.420,9.298,189.600,31.260,6.480,2.155,324.100,67.200,15.350,5.963,easy
1973.000,390.400,64.460,15.870,1851.000,353.400,53.580,9.299,187.600,30.870,6.472,2.142,321.800,66.320,15.080,5.855,easy
1958.000,388.900,64.750,15.750,1844.000,352.600,53.500,9.295,190.400,30.840,6.467,2.165,319.800,66.440,15.240,5.839,easy
1954.000,387.500,64.480,15.860,1832.000,351.200,52.870,9.259,188.100,30.880,6.494,2.173,322.500,66.250,15.130,5.860,easy
1958.000,387.500,64.670,15.720,1846.000,352.500,53.930,9.266,189.200,31.010,6.501,2.138,321.600,66.510,15.210,5.901,easy
1967.000,385.400,64.130,15.890,1845.000,350.100,53.320,9.183,191.100,31.040,6.492,2.145,321.600,66.510,15.250,5.937,easy
1960.000,387.500,65.430,16.080,1849.000,354.100,53.810,9.285,188.100,31.040,6.510,2.176,324.600,67.510,15.380,5.933,easy
1972.000,392.200,64.430,16.060,1854.000,355.800,53.480,9.350,189.500,31.210,6.479,2.159,326.300,67.670,15.540,6.001,easy
1984.000,389.900,65.890,15.990,1848.000,353.500,54.190,9.299,193.200,31.050,6.547,2.193,329.300,67.740,15.680,5.995,easy
1976.000,392.400,65.420,16.140,1839.000,352.500,53.850,9.205,191.700,31.240,6.568,2.173,327.500,67.640,15.520,5.918,easy
1942.000,387.800,64.240,15.850,1843.000,352.200,53.440,9.191,188.800,30.880,6.458,2.171,323.100,66.610,15.250,5.907,easy
1938.000,387.300,64.300,15.690,1834.000,351.600,53.050,9.187,190.500,30.890,6.513,2.145,323.000,67.050,15.350,5.932,easy
1941.000,388.700,64.910,15.880,1839.000,353.000,53.320,9.317,189.600,31.150,6.520,2.174,324.100,67.250,15.380,5.956,easy
1956.000,387.400,64.460,15.910,1836.000,353.100,53.210,9.301,190.200,31.070,6.465,2.148,324.400,66.800,15.270,5.931,easy
1958.000,391.700,64.540,15.920,1830.000,347.300,53.340,9.328,189.300,31.170,6.497,2.178,324.500,66.970,15.270,5.960,easy
1953.000,388.000,65.370,15.940,1840.000,351.200,53.670,9.265,189.200,30.970,6.555,2.151,327.800,67.750,15.520,6.008,easy
1957.000,389.600,66.100,16.050,1857.000,350.800,53.620,9.253,192.400,31.120,6.550,2.152,328.700,68.770,15.740,6.058,easy
1969.000,393.100,65.310,16.100,1825.000,349.800,54.090,9.314,189.300,31.220,6.549,2.166,332.000,68.910,15.850,6.090,easy
1991.000,394.700,66.410,16.360,1845.000,351.800,52.970,9.239,193.100,31.520,6.601,2.195,330.300,69.070,15.640,5.979,easy
1943.000,390.400,64.420,15.990,1831.000,348.700,53.620,9.158,191.100,30.980,6.586,2.156,325.400,67.620,15.390,5.946,easy
1934.000,386.700,64.580,15.820,1822.000,347.800,53.250,9.121,192.000,30.870,6.427,2.177,323.000,66.920,15.430,5.901,easy
1930.000,387.200,64.420,15.730,1841.000,347.600,52.770,9.229,189.900,31.030,6.449,2.130,324.400,66.780,15.300,5.870,easy
1934.000,388.900,64.330,15.880,1836.000,346.900,52.790,9.061,188.200,31.050,6.494,2.150,322.500,66.890,15.340,5.894,easy
1944.000,386.900,64.040,15.720,1837.000,348.600,53.150,9.200,187.600,31.060,6.480,2.134,324.200,66.820,15.370,5.935,easy
1949.000,384.600,65.010,15.930,1831.000,349.100,53.430,9.157,189.900,30.920,6.478,2.145,324.800,67.260,15.440,6.031,easy
1958.000,388.300,65.660,16.100,1845.000,350.800,53.810,9.232,189.700,30.950,6.499,2.148,325.700,68.010,15.640,5.969,easy
1962.000,390.900,65.910,16.230,1833.000,351.000,53.620,9.253,190.500,31.160,6.471,2.164,327.900,68.040,15.620,6.069,easy
1964.000,396.800,65.440,16.220,1840.000,352.500,53.580,9.282,191.000,31.240,6.550,2.176,330.700,69.100,15.820,6.122,easy
2013.000,398.000,65.200,16.240,1836.000,351.000,52.870,9.218,190.900,31.050,6.490,2.140,330.700,68.700,15.520,5.999,easy
1943.000,391.900,64.870,15.950,1837.000,348.800,53.080,9.117,190.000,31.130,6.466,2.149,326.200,67.710,15.320,5.953,easy
1955.000,383.100,65.160,15.810,1827.000,350.000,53.080,9.095,191.200,30.870,6.417,2.153,323.100,66.930,15.180,5.867,easy
1942.000,388.500,64.540,15.900,1821.000,348.200,52.980,9.250,189.100,30.920,6.383,2.120,323.300,66.860,15.320,5.842,easy
1945.000,384.800,64.550,15.950,1842.000,347.500,53.040,9.135,188.000,30.810,6.427,2.133,321.400,66.450,15.250,5.910,easy
1948.000,387.600,64.560,16.110,1848.000,350.900,52.900,9.142,189.800,30.750,6.486,2.154,322.000,66.760,15.370,5.880,easy
1950.000,391.100,65.050,16.030,1845.000,352.800,53.440,9.171,188.200,30.880,6.509,2.146,323.800,67.230,15.410,5.959,easy
1966.000,393.700,65.800,16.150,1827.000,350.300,53.340,9.124,188.800,31.040,6.460,2.163,325.100,67.880,15.530,6.031,easy
1966.000,391.700,66.010,16.220,1840.000,352.900,53.920,9.238,190.300,30.860,6.473,2.146,327.000,68.630,15.690,5.999,easy
1987.000,396.400,66.730,16.230,1852.000,351.200,53.720,9.224,189.600,31.070,6.496,2.152,327.200,67.600,15.430,5.983,easy
1960.000,386.300,64.420,15.930,1839.000,348.000,53.270,9.140,188.700,30.840,6.408,2.103,321.500,66.760,15.230,5.873,easy
1949.000,388.300,64.620,15.990,1838.000,349.600,52.730,9.125,186.300,30.740,6.440,2.107,319.400,66.440,15.090,5.868,easy
