A-DC1,A-DC2,A-DC3,A-DC4,A-DC5,A-DC6,A-DC7,A-DC8,B-DC1,B-DC2,B-DC3,B-DC4,B-DC5,B-DC6,B-DC7,B-DC8,condition
3071.000,657.600,155.500,44.310,2583.000,541.600,109.000,28.200,237.600,57.810,16.000,5.826,345.300,100.400,29.290,11.520,baseline
3060.000,661.200,155.400,44.900,2575.000,542.000,109.100,28.260,237.800,58.130,16.080,5.841,345.300,100.500,29.270,11.520,baseline
3065.000,660.300,155.800,44.990,2581.000,545.100,109.900,28.290,237.500,58.100,16.090,5.835,345.800,100.600,29.300,11.510,baseline
3048.000,664.500,156.300,44.760,2589.000,543.900,109.800,28.520,237.200,58.090,16.050,5.824,345.400,101.300,29.250,11.510,baseline
3091.000,659.400,156.300,44.920,2584.000,544.700,109.400,28.480,235.900,58.130,16.110,5.847,346.400,101.000,29.440,11.630,baseline
3059.000,663.700,156.900,45.320,2578.000,546.700,109.600,28.360,236.900,58.320,16.120,5.838,347.400,101.300,29.500,11.670,baseline
3087.000,667.800,156.700,45.520,2578.000,546.000,109.700,28.220,236.900,58.500,16.120,5.857,348.800,101.800,29.500,11.620,baseline
3092.000,667.300,156.800,44.930,2578.000,543.300,109.700,28.200,237.000,58.430,16.160,5.820,346.400,100.900,29.270,11.520,baseline
3080.000,657.400,155.700,44.450,2574.000,543.900,109.100,28.210,237.600,58.150,16.110,5.812,345.800,100.400,29.140,11.460,baseline
3080.000,662.900,154.300,44.600,2597.000,542.100,109.000,28.170,234.200,58.660,16.120,5.831,345.600,100.600,29.040,11.480,baseline
3068.000,661.300,154.500,44.500,2573.000,542.500,109.000,28.200,236.000,58.520,16.150,5.869,346.100,100.900,29.150,11.440,baseline
3062.000,654.600,154.500,44.530,2574.000,542.500,109.200,28.380,236.100,58.520,16.190,5.848,346.200,100.400,29.160,11.450,baseline
3062.000,657.200,154.800,44.560,2585.000,545.400,109.000,28.280,234.300,58.530,16.180,5.831,346.600,101.100,29.210,11.530,baseline
3083.000,660.500,155.100,44.800,2588.000,544.500,109.300,28.370,234.400,58.840,16.150,5.852,347.400,101.200,29.350,11.540,baseline
3095.000,662.600,156.100,45.090,2582.000,543.700,108.900,28.410,235.700,58.800,16.180,5.859,348.000,101.100,29.470,11.590,baseline
3091.000,667.000,156.000,45.140,2596.000,545.800,109.600,28.290,236.900,58.940,16.160,5.882,348.300,101.300,29.450,11.590,baseline
3096.000,664.900,156.300,45.340,2588.000,544.200,109.500,28.330,237.300,58.990,16.230,5.872,349.600,101.800,29.530,11.650,baseline
3087.000,667.500,156.700,45.270,2591.000,545.800,108.900,28.300,237.100,58.770,16.240,5.875,348.200,102.000,29.180,11.480,baseline
3083.000,660.400,155.200,44.750,2577.000,549.000,109.300,28.220,236.500,58.660,16.070,5.835,347.000,100.700,29.250,11.490,baseline
3058.000,659.800,155.100,44.640,2584.000,545.600,109.500,28.360,236.700,58.780,16.170,5.840,346.800,101.000,29.130,11.470,baseline
3105.000,660.900,156.300,45.060,2591.000,545.100,109.500,28.330,235.800,58.940,16.130,5.891,347.600,100.900,29.180,11.490,baseline
3061.000,659.000,155.800,44.950,2584.000,545.300,109.900,28.480,237.400,58.780,16.180,5.874,346.400,100.800,29.190,11.510,baseline
3057.000,658.600,156.300,44.810,2594.000,548.500,109.500,28.410,236.400,58.770,16.200,5.873,347.000,100.900,29.300,11.540,baseline
3079.000,664.800,156.000,45.170,2575.000,546.500,110.300,28.380,237.100,58.720,16.240,5.892,346.800,101.400,29.190,11.560,baseline
3070.000,664.600,155.900,45.210,2583.000,543.700,110.000,28.400,236.200,58.810,16.160,5.895,347.800,101.100,29.310,11.560,baseline
3094.000,662.700,156.800,45.260,2577.000,544.000,110.100,28.480,237.800,58.730,16.230,5.872,348.400,101.500,29.560,11.630,baseline
3087.000,663.800,156.600,45.100,2580.000,547.900,109.400,28.530,237.400,58.600,16.240,5.864,350.800,101.200,29.580,11.630,baseline
3097.000,656.600,157.100,45.470,2584.000,541.700,109.500,28.410,235.700,58.900,16.260,5.908,350.400,102.100,29.580,11.690,baseline
3078.000,663.300,155.800,45.100,2577.000,543.200,109.400,28.400,237.600,58.890,16.230,5.856,347.400,101.100,29.340,11.430,baseline
3076.000,657.700,154.900,44.780,2580.000,544.600,109.700,28.160,237.500,58.640,16.080,5.838,347.500,100.600,29.220,11.450,baseline
3079.000,659.600,154.900,44.630,2580.000,546.500,109.400,28.270,237.500,58.740,16.150,5.837,347.200,100.800,29.180,11.500,baseline
3089.000,655.500,155.300,44.850,2595.000,542.600,109.600,28.320,235.900,58.770,16.200,5.848,347.600,101.300,29.170,11.460,baseline
3063.000,657.300,154.600,45.070,2574.000,545.200,109.400,28.330,236.100,58.860,16.160,5.852,347.500,101.100,29.170,11.460,baseline
3076.000,660.300,156.000,44.970,2604.000,544.900,110.100,28.420,236.800,58.610,16.200,5.846,348.400,101.200,29.240,11.530,baseline
3075.000,658.000,155.800,44.890,2588.000,548.800,110.100,28.470,235.800,58.970,16.190,5.890,348.200,101.300,29.410,11.570,baseline
3071.000,661.500,156.500,44.880,2580.000,546.100,110.000,28.700,236.700,58.850,16.230,5.896,349.400,101.700,29.400,11.600,baseline
3100.000,664.500,156.100,45.250,2590.000,548.900,109.500,28.310,236.100,59.160,16.190,5.884,349.000,101.800,29.500,11.590,baseline
3092.000,666.700,157.600,45.480,2582.000,546.800,109.800,28.530,236.500,58.980,16.280,5.884,349.800,102.000,29.520,11.650,baseline
3095.000,666.100,157.400,45.680,2583.000,547.200,110.500,28.540,236.900,58.930,16.270,5.911,350.800,102.400,29.690,11.710,baseline
3101.000,670.500,157.500,45.580,2583.000,546.600,110.300,28.430,237.900,59.070,16.250,5.907,352.200,102.500,29.550,11.670,baseline
3099.000,663.200,157.300,45.160,2589.000,545.700,110.400,28.420,237.100,59.040,16.210,5.882,349.300,101.400,29.180,11.520,baseline
3084.000,665.700,155.600,44.990,2578.000,545.800,109.300,28.370,236.000,58.850,16.130,5.858,349.200,101.400,29.220,11.510,baseline
3078.000,660.400,155.600,44.680,2578.000,546.400,109.200,28.340,236.600,58.930,16.190,5.812,348.100,101.400,29.340,11.440,baseline
3070.000,661.300,156.600,44.720,2583.000,546.500,109.500,28.410,236.000,58.860,16.180,5.875,347.400,101.000,29.180,11.490,baseline
3074.000,663.000,156.400,44.980,2583.000,547.400,109.900,28.480,236.700,58.780,16.140,5.861,348.300,101.600,29.260,11.500,baseline
3070.000,660.000,156.300,45.240,2576.000,545.600,109.600,28.430,236.300,58.740,16.230,5.844,349.600,102.100,29.340,11.570,baseline
3092.000,664.200,156.400,45.020,2584.000,545.100,110.200,28.460,236.400,58.900,16.210,5.868,349.200,101.900,29.470,11.550,baseline
3090.000,660.600,156.900,45.430,2591.000,544.300,110.200,28.580,237.200,58.890,16.240,5.874,350.900,102.100,29.630,11.660,baseline
3083.000,664.000,157.000,45.630,2576.000,547.100,109.800,28.680,236.800,58.770,16.230,5.865,351.500,102.500,29.580,11.650,baseline
3072.000,664.900,157.700,45.670,2604.000,546.800,109.700,28.450,235.500,58.990,16.250,5.870,352.300,102.400,29.740,11.690,baseline
3099.000,671.500,157.700,45.650,2602.000,547.500,110.000,28.480,235.900,59.030,16.270,5.877,352.900,102.800,29.710,11.720,baseline
3106.000,670.600,158.000,46.060,2595.000,544.500,110.200,28.420,236.600,58.990,16.260,5.896,354.200,102.700,29.930,11.740,baseline
3120.000,672.100,158.100,45.600,2593.000,548.300,109.900,28.330,238.300,58.950,16.280,5.858,351.500,102.100,29.430,11.680,baseline
3101.000,664.800,156.300,44.820,2595.000,545.100,109.400,28.280,236.700,58.870,16.120,5.839,350.900,101.800,29.500,11.590,baseline
3084.000,666.500,157.400,45.110,2588.000,545.900,109.400,28.250,235.700,58.740,16.190,5.860,351.200,101.700,29.450,11.570,baseline
3100.000,662.600,157.200,45.090,2578.000,546.200,110.000,28.380,236.600,58.970,16.210,5.854,351.200,101.800,29.450,11.570,baseline
3101.000,658.500,156.800,45.190,2578.000,546.400,109.100,28.450,236.800,58.840,16.140,5.851,350.300,102.400,29.350,11.610,baseline
3072.000,666.700,156.900,45.240,2601.000,547.100,109.100,28.410,237.800,58.750,16.170,5.841,351.700,102.100,29.660,11.620,baseline
3087.000,664.000,157.900,45.260,2592.000,545.400,109.300,28.450,237.600,58.840,16.230,5.861,351.200,102.700,29.660,11.620,baseline
3102.000,663.500,157.900,45.470,2573.000,545.900,109.900,28.420,238.600,58.920,16.120,5.871,352.900,102.600,29.710,11.690,baseline
3097.000,665.400,158.100,45.850,2587.000,547.200,110.400,28.260,235.000,58.770,16.230,5.859,352.300,102.700,29.670,11.730,baseline
3098.000,668.200,158.600,45.620,2594.000,547.100,110.500,28.460,236.200,58.850,16.200,5.866,353.700,102.700,29.880,11.770,baseline
3119.000,666.800,158.700,45.790,2597.000,547.900,109.800,28.320,238.000,58.980,16.190,5.867,352.800,103.300,29.960,11.800,baseline
3110.000,669.000,157.900,45.520,2588.000,544.500,109.900,28.190,235.300,58.610,16.160,5.830,351.300,101.800,29.430,11.570,baseline
3097.000,660.400,156.600,45.070,2578.000,548.000,109.400,28.260,235.300,58.640,16.130,5.819,351.100,101.900,29.420,11.580,baseline
3091.000,664.100,156.800,45.120,2575.000,545.200,109.700,28.230,235.700,58.630,16.040,5.837,350.100,102.000,29.430,11.550,baseline
3084.000,659.600,157.400,45.040,2589.000,546.200,109.200,28.260,236.500,58.420,16.140,5.843,350.500,101.900,29.510,11.600,baseline
3085.000,665.700,157.200,45.140,2582.000,543.600,109.600,28.250,237.900,58.410,16.080,5.818,350.600,101.800,29.570,11.550,baseline
3083.000,664.900,157.000,45.090,2591.000,542.400,109.200,28.200,234.900,58.580,16.110,5.809,351.800,102.200,29.400,11.560,baseline
3090.000,668.300,157.700,45.170,2578.000,541.400,109.500,28.270,236.000,58.430,16.070,5.816,350.900,102.300,29.540,11.630,baseline
3095.000,664.400,157.200,45.340,2587.000,545.700,109.600,28.350,234.900,58.470,16.060,5.825,350.800,102.300,29.510,11.670,baseline
3109.000,666.700,157.900,45.540,2579.000,548.100,109.700,28.380,236.200,58.590,16.090,5.825,351.600,102.600,29.660,11.710,baseline
3094.000,667.900,157.500,45.600,2586.000,544.100,109.200,28.380,235.500,58.450,16.070,5.813,352.000,102.700,29.770,11.710,baseline
3102.000,673.200,160.200,46.220,2587.000,550.600,111.000,28.690,234.500,58.150,16.020,5.790,350.000,102.000,29.710,11.710,baseline
3143.000,677.700,162.200,46.570,2598.000,554.300,111.700,28.860,235.100,57.380,16.040,5.772,347.000,101.400,29.970,11.850,baseline
3151.000,674.800,160.200,45.660,2582.000,554.700,111.100,28.500,233.700,56.720,16.030,5.805,341.600,100.200,29.700,11.780,baseline
3107.000,672.300,157.800,45.510,2606.000,549.500,110.400,28.380,236.100,56.350,16.030,5.804,340.000,99.770,29.630,11.710,baseline
3073.000,668.100,157.000,45.150,2571.000,549.400,110.100,28.360,233.900,55.940,15.970,5.776,338.600,99.320,29.610,11.680,baseline
3095.000,664.700,157.500,44.900,2568.000,547.900,110.300,28.310,233.300,56.010,15.930,5.783,336.900,99.520,29.570,11.620,baseline
3091.000,662.000,157.500,45.210,2577.000,545.400,110.700,28.470,233.800,55.540,15.930,5.766,335.600,99.340,29.510,11.650,baseline
3092.000,668.700,158.500,45.310,2578.000,544.800,110.300,28.460,231.200,55.560,15.870,5.775,335.700,98.880,29.490,11.730,baseline
3090.000,668.200,157.900,45.340,2569.000,547.400,111.100,28.570,233.000,55.520,15.880,5.797,335.500,99.320,29.560,11.720,baseline
3098.000,671.300,158.100,45.700,2592.000,548.600,110.500,28.540,232.000,55.410,15.900,5.759,335.400,99.130,29.560,11.740,baseline
3103.000,670.600,159.000,45.700,2576.000,549.300,110.500,28.520,231.900,55.200,15.870,5.752,334.700,99.130,29.630,11.740,baseline
3092.000,674.600,158.000,45.770,2584.000,549.300,110.400,28.440,231.300,55.060,15.840,5.745,335.800,98.850,29.640,11.710,baseline
3090.000,675.800,158.400,45.730,2576.000,549.000,111.400,28.480,231.400,55.050,15.840,5.690,335.100,99.000,29.740,11.740,baseline
3099.000,672.200,159.400,45.980,2596.000,548.200,110.200,28.510,233.300,55.170,15.760,5.719,336.300,99.010,29.640,11.740,baseline
3119.000,674.700,159.400,45.800,2588.000,549.400,110.200,28.290,230.100,55.420,15.760,5.689,335.100,98.530,29.360,11.570,baseline
3080.000,667.600,157.300,45.090,2572.000,546.900,109.300,28.380,228.100,55.110,15.650,5.683,332.400,97.960,29.110,11.480,baseline
3068.000,664.700,157.400,44.840,2575.000,544.200,109.900,28.320,230.700,54.910,15.650,5.643,331.800,97.400,28.980,11.400,baseline
3065.000,665.500,156.000,44.870,2571.000,547.700,110.600,28.300,230.600,54.660,15.630,5.648,330.400,97.370,28.940,11.400,baseline
3084.000,662.500,156.500,44.760,2562.000,546.900,110.200,28.390,227.800,54.610,15.600,5.642,330.500,97.170,28.760,11.390,baseline
3062.000,660.900,156.000,44.840,2557.000,545.400,110.000,28.400,227.600,54.840,15.620,5.634,331.100,96.780,28.850,11.350,baseline
3043.000,664.300,156.000,44.910,2565.000,545.900,110.100,28.390,228.600,54.730,15.540,5.625,330.700,96.520,28.790,11.330,baseline
3044.000,666.500,155.700,45.100,2559.000,545.500,110.500,28.530,228.500,54.940,15.600,5.616,330.000,96.960,28.840,11.380,baseline
3052.000,665.300,156.800,45.160,2580.000,547.300,109.900,28.290,228.900,54.860,15.570,5.631,331.900,96.960,28.850,11.360,baseline
3069.000,664.600,157.400,45.380,2556.000,546.000,110.100,28.570,227.900,54.960,15.620,5.636,330.500,97.180,28.790,11.420,baseline
3076.000,666.200,157.100,45.500,2583.000,546.400,110.600,28.400,230.100,54.910,15.580,5.647,331.600,97.190,28.740,11.360,baseline
3048.000,663.100,155.700,44.780,2575.000,545.000,110.100,28.280,228.000,54.970,15.560,5.584,329.100,96.500,28.560,11.230,baseline
3035.000,653.900,154.300,44.440,2565.000,545.100,110.000,28.300,226.600,54.770,15.550,5.564,328.700,96.300,28.360,11.180,baseline
3060.000,656.400,154.300,44.370,2543.000,542.100,110.000,28.480,230.500,54.800,15.520,5.580,328.100,95.870,28.240,11.140,baseline
3041.000,660.600,153.600,44.310,2562.000,542.800,109.400,28.400,227.900,54.870,15.510,5.602,328.000,95.670,28.240,11.100,baseline
3020.000,655.300,155.400,44.510,2562.000,545.800,109.400,28.520,226.200,54.850,15.480,5.589,326.400,95.500,28.130,11.090,baseline
3028.000,655.600,153.900,44.230,2562.000,545.100,109.300,28.440,228.500,55.000,15.480,5.609,327.500,95.550,28.370,11.140,baseline
3020.000,656.900,154.500,44.480,2552.000,544.500,109.600,28.480,228.400,54.940,15.540,5.590,327.200,95.740,28.250,11.170,baseline
3023.000,656.100,154.600,44.550,2561.000,545.400,110.300,28.420,227.900,55.000,15.520,5.609,328.300,96.190,28.260,11.150,baseline
3042.000,654.700,155.100,44.680,2568.000,540.600,110.100,28.590,229.600,55.160,15.500,5.622,329.200,96.290,28.340,11.180,baseline
3033.000,661.400,156.200,45.000,2567.000,544.200,110.000,28.580,229.300,55.480,15.550,5.644,329.900,96.720,28.420,11.250,baseline
3042.000,657.500,156.000,45.050,2566.000,546.400,110.400,28.600,229.300,55.410,15.640,5.654,330.900,96.930,28.470,11.280,baseline
3041.000,659.900,156.800,44.730,2572.000,546.400,110.200,28.470,229.700,55.730,15.600,5.653,330.600,96.730,28.270,11.150,baseline
3037.000,655.500,153.500,43.940,2559.000,544.200,109.700,28.360,229.200,55.550,15.540,5.629,329.000,95.970,28.210,11.070,baseline
3015.000,648.700,153.500,43.860,2562.000,543.100,109.300,28.460,231.100,55.400,15.580,5.622,328.900,95.900,27.980,11.020,baseline
3001.000,654.500,152.700,44.040,2549.000,543.200,110.400,28.600,231.100,55.620,15.640,5.642,328.200,95.870,27.940,11.060,baseline
3013.000,645.700,153.100,43.660,2558.000,543.200,109.800,28.500,229.300,55.780,15.580,5.634,328.600,95.200,27.890,10.980,baseline
3016.000,648.000,153.000,43.790,2546.000,543.000,109.900,28.520,232.000,55.690,15.640,5.626,329.000,95.610,27.900,11.000,baseline
3002.000,645.600,153.300,43.880,2554.000,544.700,110.200,28.560,230.300,55.830,15.690,5.660,329.400,95.790,27.920,11.030,baseline
3010.000,647.000,152.900,44.250,2558.000,541.300,110.300,28.590,232.000,56.110,15.630,5.691,329.000,95.880,28.100,11.140,baseline
2978.000,646.700,154.200,44.120,2559.000,546.200,110.200,28.550,229.900,56.250,15.710,5.688,331.100,96.680,28.140,11.110,baseline
3009.000,649.500,153.800,44.290,2557.000,542.600,110.900,28.730,231.000,56.420,15.680,5.700,331.600,96.770,28.300,11.160,baseline
3002.000,650.000,154.100,44.250,2567.000,546.100,111.300,28.780,231.900,56.650,15.830,5.725,333.300,97.310,28.350,11.180,baseline
3016.000,654.200,153.600,44.350,2564.000,547.500,110.900,28.820,232.100,56.670,15.830,5.729,334.700,97.220,28.430,11.220,baseline
3014.000,650.600,153.700,44.500,2575.000,549.300,111.000,28.730,234.500,57.020,15.870,5.719,336.000,97.780,28.570,11.280,baseline
3018.000,647.400,153.700,43.920,2571.000,544.900,110.800,28.610,231.700,56.970,15.870,5.731,334.500,97.120,28.290,11.110,baseline
3010.000,646.300,152.200,43.880,2576.000,545.100,110.200,28.790,233.700,57.020,15.840,5.725,333.300,96.980,28.210,11.100,baseline
3003.000,651.600,152.400,43.520,2552.000,542.600,110.300,28.720,232.200,57.160,15.850,5.715,334.000,96.980,28.090,11.030,baseline
3002.000,647.800,151.900,43.510,2572.000,545.700,110.100,28.760,232.600,57.330,15.930,5.737,335.100,96.970,28.160,11.070,baseline
2980.000,642.500,152.200,43.460,2573.000,544.500,109.800,28.790,234.000,57.230,15.870,5.748,335.200,96.900,28.190,11.040,baseline
2966.000,644.400,151.400,43.710,2573.000,542.000,111.700,28.780,232.400,57.310,15.950,5.765,335.600,97.220,28.230,11.050,baseline
2981.000,643.400,151.600,43.630,2568.000,547.300,110.800,28.820,236.700,57.540,15.970,5.794,337.300,97.930,28.370,11.120,baseline
3000.000,649.900,152.300,43.930,2578.000,546.300,110.400,28.890,233.000,57.710,15.990,5.799,336.800,97.920,28.520,11.160,baseline
3003.000,644.600,152.100,43.600,2576.000,544.200,110.300,28.960,234.500,57.610,16.030,5.795,337.700,97.920,28.530,11.210,baseline
2991.000,648.000,153.100,43.890,2582.000,546.800,111.200,29.000,235.300,57.910,16.030,5.819,338.800,98.260,28.550,11.240,baseline
2990.000,650.500,153.600,44.140,2591.000,550.300,111.000,28.940,235.300,58.210,16.130,5.827,340.300,98.760,28.680,11.240,baseline
3018.000,652.300,153.300,44.240,2595.000,552.600,110.700,29.010,235.800,58.100,16.140,5.833,340.100,99.200,28.720,11.330,baseline
3022.000,658.000,154.900,44.270,2567.000,551.300,110.900,28.960,236.600,58.310,16.180,5.846,342.400,99.330,28.850,11.310,baseline
3018.000,652.500,153.300,43.550,2575.000,546.900,111.000,28.820,235.300,58.170,16.160,5.824,340.600,98.600,28.570,11.220,baseline
3003.000,649.700,152.500,43.860,2580.000,549.800,110.900,28.810,235.000,58.210,16.160,5.825,340.600,98.590,28.530,11.220,baseline
3000.000,651.200,152.500,43.860,2595.000,551.100,111.600,28.780,236.400,58.130,16.150,5.827,340.200,98.500,28.430,11.200,baseline
2988.000,643.600,152.000,43.640,2588.000,547.800,111.100,29.090,233.600,58.170,16.140,5.845,340.300,98.830,28.380,11.190,baseline
3010.000,644.900,152.000,43.630,2586.000,548.000,111.500,29.090,236.400,58.210,16.220,5.833,340.200,98.710,28.440,11.220,baseline
2997.000,646.300,153.300,43.830,2590.000,549.000,111.300,29.100,237.800,58.320,16.200,5.854,341.300,98.880,28.630,11.250,baseline
3016.000,651.500,154.000,43.750,2594.000,550.900,111.700,29.110,236.400,58.560,16.160,5.860,341.600,98.830,28.780,11.310,baseline
3035.000,647.000,152.800,44.090,2607.000,547.700,111.400,29.140,237.000,58.450,16.210,5.879,342.200,99.170,28.800,11.330,baseline
3028.000,648.600,154.000,44.120,2610.000,548.900,111.400,29.070,237.500,58.400,16.250,5.870,343.100,99.370,28.870,11.390,baseline
3033.000,652.000,154.400,44.390,2600.000,550.900,112.200,29.070,236.700,58.730,16.290,5.881,344.600,100.100,28.960,11.380,baseline
3028.000,652.000,153.000,44.190,2598.000,551.100,111.200,29.020,238.100,59.010,16.340,5.890,346.700,100.700,29.060,11.470,baseline
3028.000,649.300,154.000,43.770,2607.000,548.900,111.000,28.750,236.800,59.260,16.400,5.923,345.200,100.200,28.890,11.280,baseline
3013.000,647.100,152.100,43.520,2599.000,550.200,111.300,28.990,238.100,58.880,16.330,5.918,344.900,99.650,28.780,11.290,baseline
3015.000,646.100,152.400,43.690,2602.000,552.000,111.200,28.850,236.200,58.950,16.330,5.889,344.300,99.590,28.780,11.310,baseline
3026.000,649.400,153.200,43.520,2608.000,548.200,110.800,28.980,236.600,59.160,16.340,5.908,344.800,100.200,28.770,11.350,baseline
3034.000,646.900,152.700,43.750,2612.000,548.000,111.200,29.020,237.700,59.090,16.290,5.900,345.600,99.930,28.880,11.300,baseline
3008.000,647.700,152.900,43.800,2596.000,551.000,111.500,29.040,239.200,59.110,16.330,5.915,345.500,100.200,28.880,11.320,baseline
3033.000,650.600,153.600,44.000,2603.000,550.400,110.600,29.050,237.600,59.280,16.350,5.915,345.700,100.300,29.000,11.350,baseline
3028.000,648.200,153.800,43.920,2613.000,551.200,111.000,28.980,235.800,59.220,16.390,5.940,346.500,100.600,29.040,11.420,baseline
3046.000,649.900,154.000,44.340,2606.000,551.400,110.800,29.010,237.000,59.470,16.320,5.949,346.500,100.900,29.000,11.410,baseline
3048.000,651.800,154.500,44.240,2603.000,552.100,111.700,29.120,237.200,59.380,16.380,5.966,346.600,100.900,29.200,11.420,baseline
3043.000,656.400,155.100,44.300,2621.000,548.400,111.000,29.060,238.200,59.370,16.420,5.932,348.400,101.400,29.330,11.560,baseline
3041.000,656.500,154.100,44.590,2618.000,550.400,111.900,28.960,236.300,59.620,16.420,5.953,349.000,100.900,29.450,11.560,baseline
3081.000,656.000,154.700,44.630,2616.000,551.100,111.400,28.890,237.700,59.380,16.370,5.947,349.100,101.100,29.030,11.390,baseline
3051.000,654.700,153.300,43.840,2619.000,552.200,111.600,28.990,236.800,59.100,16.290,5.909,347.200,100.600,28.940,11.320,baseline
3040.000,653.100,153.300,43.730,2619.000,553.400,111.800,28.970,237.300,59.060,16.330,5.918,347.000,100.300,28.840,11.340,baseline
3054.000,651.100,153.000,43.840,2610.000,547.700,111.100,28.970,236.300,59.310,16.340,5.891,346.200,100.300,28.830,11.340,baseline
3057.000,653.000,153.900,43.740,2605.000,553.400,111.300,29.020,236.100,59.050,16.290,5.925,346.900,100.200,28.900,11.300,baseline
3040.000,654.200,153.100,44.110,2613.000,551.200,111.000,28.910,236.300,58.950,16.320,5.922,346.400,100.100,29.010,11.330,baseline
3045.000,656.100,153.800,43.960,2621.000,550.900,111.200,29.140,236.600,59.010,16.310,5.928,346.500,100.400,28.940,11.330,baseline
3054.000,655.500,153.900,44.300,2621.000,551.100,111.300,28.980,236.800,58.980,16.280,5.910,346.600,100.500,29.100,11.330,baseline
3059.000,655.800,154.000,44.610,2615.000,552.300,111.000,29.010,235.900,59.040,16.340,5.904,347.200,100.900,29.090,11.380,baseline
3044.000,659.200,155.500,44.330,2620.000,551.900,111.500,29.180,237.000,59.030,16.310,5.902,348.100,100.700,29.100,11.410,baseline
3053.000,656.200,154.900,44.650,2620.000,551.900,111.700,29.100,236.200,58.980,16.280,5.896,348.000,100.800,29.240,11.500,baseline
3062.000,662.300,155.900,44.430,2625.000,553.400,111.300,29.070,235.000,58.910,16.210,5.897,348.500,101.000,29.260,11.460,baseline
3078.000,659.300,156.000,45.090,2632.000,552.300,111.700,28.990,237.500,59.130,16.270,5.906,348.700,101.600,29.320,11.520,baseline
3084.000,663.400,157.000,44.860,2650.000,553.600,111.200,28.840,236.300,59.060,16.270,5.899,348.600,101.000,29.010,11.370,baseline
3071.000,659.400,154.100,44.230,2633.000,552.000,110.900,28.660,236.000,58.760,16.140,5.827,347.000,100.400,28.860,11.310,baseline
3051.000,653.700,154.800,44.100,2620.000,550.400,110.700,28.890,236.500,58.760,16.100,5.875,345.500,100.200,28.850,11.280,baseline
3056.000,652.400,153.900,44.340,2609.000,550.800,110.700,28.830,234.800,58.550,16.120,5.889,345.700,99.970,28.880,11.280,baseline
3079.000,657.500,154.100,44.100,2628.000,551.800,110.900,28.790,234.700,58.630,16.080,5.824,343.700,99.980,28.700,11.260,baseline
3059.000,655.100,155.500,44.250,2616.000,549.800,110.800,28.930,234.800,58.500,16.120,5.841,344.500,100.000,28.860,11.290,baseline
3078.000,655.400,154.800,44.320,2603.000,550.300,110.800,28.980,236.300,58.390,16.090,5.842,345.200,100.100,28.860,11.350,baseline
3072.000,658.200,154.300,44.430,2617.000,549.400,110.900,28.770,236.100,58.490,16.090,5.811,345.500,99.990,28.860,11.310,baseline
3080.000,659.700,155.300,44.720,2624.000,549.100,111.300,28.750,236.600,58.450,16.060,5.822,345.300,100.100,28.870,11.270,baseline
3097.000,658.800,156.000,44.700,2597.000,551.700,111.100,28.810,236.300,58.480,16.070,5.805,346.100,100.100,29.020,11.380,baseline
3069.000,655.000,155.600,45.020,2612.000,553.600,111.000,28.820,235.400,58.290,16.070,5.825,346.400,100.600,28.950,11.400,baseline
3069.000,662.900,156.600,44.920,2629.000,550.700,110.800,28.880,236.100,58.480,16.120,5.818,347.000,100.400,29.030,11.390,baseline
3100.000,661.400,155.300,44.430,2620.000,552.800,110.100,28.610,236.800,58.440,16.040,5.772,344.200,99.640,28.620,11.220,baseline
3065.000,658.100,154.300,44.360,2618.000,551.500,110.400,28.800,234.500,58.100,16.030,5.769,343.300,99.440,28.630,11.220,baseline
3057.000,656.900,153.900,44.160,2610.000,551.200,109.900,28.670,234.200,57.880,15.890,5.778,342.600,99.500,28.580,11.230,baseline
3065.000,658.100,154.700,44.270,2618.000,548.500,110.300,28.700,234.500,57.950,15.970,5.758,342.400,99.060,28.570,11.140,baseline
3072.000,656.600,154.000,44.260,2616.000,550.000,111.300,28.610,234.600,58.000,15.920,5.763,342.300,99.040,28.570,11.160,baseline
3055.000,655.900,155.200,44.330,2596.000,547.700,110.000,28.660,234.000,57.900,15.960,5.768,342.800,99.500,28.590,11.230,baseline
3073.000,660.400,155.700,44.340,2611.000,548.600,110.300,28.680,234.100,58.100,15.940,5.759,342.900,99.360,28.740,11.230,baseline
3078.000,658.100,155.200,44.640,2601.000,550.600,110.100,28.500,234.900,58.040,15.930,5.777,343.100,99.790,28.780,11.250,baseline
3085.000,660.500,156.000,44.880,2612.000,549.200,109.900,28.490,232.500,58.140,15.980,5.739,344.000,99.410,28.740,11.330,baseline
3083.000,660.500,156.800,45.160,2609.000,548.100,110.200,28.750,233.300,58.050,15.930,5.759,344.600,100.100,28.860,11.320,baseline
3087.000,662.700,156.900,45.100,2611.000,551.300,110.000,28.510,235.300,58.110,15.940,5.768,345.100,100.400,28.940,11.420,baseline
3108.000,667.000,156.400,45.190,2608.000,551.700,109.800,28.440,234.000,58.170,16.010,5.755,345.900,100.500,29.040,11.420,baseline
3101.000,660.600,156.000,44.960,2610.000,548.400,110.000,28.500,234.100,57.920,15.890,5.754,343.200,99.510,28.540,11.210,baseline
3061.000,656.200,154.600,44.430,2601.000,545.300,109.600,28.410,231.900,57.680,15.850,5.732,343.600,99.140,28.410,11.190,baseline
3079.000,654.500,153.300,44.360,2619.000,547.400,109.500,28.350,233.900,57.720,15.860,5.707,340.500,98.310,28.430,11.080,baseline
3064.000,654.000,154.800,44.390,2616.000,545.900,109.800,28.370,234.000,57.500,15.800,5.707,341.000,98.750,28.300,11.160,baseline
3068.000,654.600,154.700,44.380,2601.000,547.200,109.300,28.420,232.900,57.810,15.840,5.727,340.100,98.360,28.390,11.110,baseline
3052.000,656.000,154.700,44.200,2615.000,547.600,109.300,28.430,233.000,57.600,15.780,5.703,340.300,98.600,28.430,11.120,baseline
3065.000,653.700,153.400,44.500,2584.000,546.100,109.800,28.360,231.900,57.700,15.790,5.718,341.100,98.600,28.430,11.130,baseline
3078.000,654.000,154.700,44.340,2601.000,546.500,109.500,28.320,232.600,57.790,15.880,5.744,340.900,98.910,28.580,11.160,baseline
3055.000,657.600,155.000,44.820,2604.000,547.700,109.700,28.420,231.500,57.590,15.810,5.709,341.600,98.790,28.640,11.210,baseline
3071.000,657.700,155.700,44.590,2604.000,547.600,109.600,28.420,231.700,57.680,15.890,5.747,342.600,99.270,28.560,11.230,baseline
3082.000,664.300,155.200,44.730,2591.000,545.500,109.500,28.330,232.400,57.750,15.880,5.743,342.800,99.500,28.770,11.250,baseline
3077.000,660.800,156.100,45.010,2612.000,546.000,109.600,28.380,233.000,57.870,15.840,5.727,342.800,99.280,28.770,11.330,baseline
3088.000,662.900,157.100,44.960,2610.000,545.000,108.700,28.530,232.900,58.190,15.850,5.762,344.900,99.720,28.800,11.320,baseline
3087.000,662.700,155.000,44.500,2603.000,543.500,109.000,28.170,232.600,57.690,15.810,5.741,343.400,98.900,28.510,11.140,baseline
3074.000,657.900,154.800,44.460,2604.000,545.000,109.200,28.020,230.700,57.860,15.790,5.718,341.600,98.680,28.380,11.120,baseline
3086.000,657.900,154.900,43.970,2602.000,547.500,109.600,28.100,232.700,57.800,15.800,5.716,340.900,98.010,28.370,11.140,baseline
3052.000,659.300,154.000,44.220,2585.000,546.700,109.100,28.370,233.000,57.650,15.760,5.712,340.000,98.310,28.270,11.060,baseline
3042.000,651.000,154.000,44.120,2595.000,543.900,109.600,28.250,230.500,57.500,15.770,5.719,340.500,98.370,28.330,11.140,baseline
3056.000,653.900,155.200,44.370,2589.000,545.000,110.200,28.400,232.200,57.460,15.730,5.706,340.000,98.330,28.450,11.150,baseline
3055.000,655.500,154.100,44.560,2581.000,546.200,109.100,28.460,232.900,57.320,15.810,5.726,340.500,98.230,28.330,11.170,baseline
3053.000,652.200,154.700,44.620,2594.000,546.600,109.800,28.470,232.000,57.180,15.810,5.710,339.700,98.300,28.460,11.210,baseline
3079.000,659.200,155.600,44.690,2589.000,546.400,110.400,28.520,234.100,57.200,15.770,5.722,339.400,97.940,28.480,11.210,baseline
3057.000,661.200,156.300,44.990,2591.000,548.600,110.300,28.360,230.800,57.170,15.790,5.703,340.200,98.330,28.420,11.260,baseline
3063.000,662.000,156.100,45.090,2601.000,546.500,110.600,28.540,230.200,56.870,15.820,5.711,339.800,98.290,28.640,11.260,baseline
3074.000,666.300,156.600,45.310,2598.000,545.100,110.400,28.470,232.000,56.950,15.790,5.703,340.200,98.790,28.760,11.270,baseline
3094.000,667.700,157.000,44.990,2597.000,548.000,109.600,28.270,232.500,56.910,15.760,5.721,339.100,97.870,28.480,11.090,baseline
3063.000,654.800,154.700,44.450,2605.000,546.800,108.900,28.130,230.300,56.870,15.640,5.661,338.200,97.890,28.330,11.100,baseline
3071.000,655.000,155.000,44.230,2596.000,547.700,109.700,28.350,230.700,56.870,15.660,5.650,337.800,97.620,28.380,11.080,baseline
3068.000,656.300,155.500,44.460,2575.000,547.100,110.500,28.360,230.400,57.010,15.720,5.667,336.700,97.930,28.210,11.110,baseline
3071.000,657.800,154.300,44.390,2583.000,541.300,108.700,28.320,230.900,56.870,15.690,5.688,337.700,97.420,28.240,11.110,baseline
3070.000,656.700,154.700,44.410,2600.000,547.700,109.800,28.270,231.100,56.850,15.770,5.687,337.700,97.530,28.340,11.120,baseline
3072.000,659.400,156.000,44.900,2587.000,548.300,110.000,28.400,233.400,56.870,15.760,5.699,338.200,97.570,28.430,11.170,baseline
3069.000,658.100,156.200,45.050,2592.000,547.700,110.800,28.450,231.600,56.950,15.730,5.707,338.100,98.030,28.450,11.210,baseline
3095.000,661.800,156.900,44.890,2579.000,547.300,109.900,28.410,231.500,56.980,15.740,5.709,339.200,98.330,28.500,11.290,baseline
3082.000,661.600,156.400,45.080,2590.000,543.700,109.600,28.480,231.600,57.200,15.770,5.744,339.400,98.700,28.660,11.270,baseline
3086.000,661.600,156.900,45.100,2583.000,546.400,110.400,28.490,234.100,57.220,15.850,5.717,340.800,98.610,28.710,11.330,baseline
3097.000,665.300,157.500,45.440,2600.000,550.500,110.500,28.670,232.500,57.140,15.830,5.725,340.700,99.870,28.800,11.380,baseline
3097.000,667.200,156.600,44.710,2595.000,547.400,109.900,28.300,231.700,57.140,15.800,5.699,339.100,98.210,28.470,11.160,baseline
3051.000,661.200,155.900,44.440,2586.000,548.100,108.700,28.370,231.600,57.150,15.800,5.678,338.900,98.450,28.410,11.190,baseline
3049.000,658.300,154.900,44.320,2589.000,547.100,109.600,28.300,232.800,57.190,15.700,5.670,338.200,98.600,28.500,11.170,baseline
3087.000,656.300,154.700,44.650,2593.000,546.400,109.700,28.370,231.800,57.180,15.790,5.708,339.400,98.240,28.410,11.170,baseline
3046.000,660.700,153.900,44.590,2595.000,547.800,110.300,28.500,233.300,57.430,15.890,5.717,340.600,98.370,28.400,11.170,baseline
3055.000,658.100,154.700,44.710,2594.000,547.700,109.600,28.530,232.800,57.440,15.800,5.701,341.000,98.810,28.530,11.260,baseline
3053.000,657.500,155.500,44.590,2592.000,546.400,109.500,28.350,233.500,57.560,15.830,5.737,341.500,98.880,28.730,11.260,baseline
3085.000,660.300,155.700,44.710,2591.000,547.400,110.400,28.490,232.300,57.660,15.870,5.734,342.300,99.330,28.700,11.250,baseline
3068.000,660.600,155.800,44.860,2581.000,546.200,110.900,28.640,233.200,57.750,15.910,5.757,342.700,99.730,28.870,11.270,baseline
3085.000,660.400,155.500,44.930,2595.000,547.600,110.100,28.520,232.300,57.710,15.910,5.759,343.500,99.190,28.820,11.360,baseline
3084.000,664.700,156.500,45.050,2592.000,548.700,109.100,28.530,233.800,58.080,15.960,5.761,345.200,99.890,28.980,11.400,baseline
3096.000,662.500,157.100,45.320,2606.000,548.300,110.100,28.420,233.800,58.000,16.000,5.796,344.700,100.200,29.030,11.390,baseline
3097.000,665.900,157.600,45.470,2613.000,548.200,109.900,28.420,233.500,58.080,15.990,5.759,345.200,100.200,28.890,11.370,baseline
3079.000,661.900,154.600,44.550,2602.000,547.400,109.600,28.280,232.700,57.860,15.880,5.766,343.100,99.230,28.640,11.260,baseline
3083.000,657.700,154.400,44.450,2591.000,547.000,109.500,28.280,233.900,57.970,15.910,5.741,343.100,99.270,28.630,11.240,baseline
3071.000,658.100,153.700,44.430,2586.000,549.500,109.400,28.290,233.700,57.970,15.870,5.744,343.300,99.080,28.720,11.200,baseline
3071.000,659.000,155.400,44.330,2599.000,546.800,109.600,28.360,234.200,57.900,15.950,5.752,343.600,99.130,28.570,11.230,baseline
3055.000,653.300,153.900,44.370,2581.000,545.200,109.700,28.450,232.200,57.900,15.900,5.739,345.400,99.750,28.750,11.300,baseline
3076.000,657.800,154.300,44.490,2600.000,544.300,109.800,28.570,232.700,57.860,15.950,5.787,343.800,99.660,28.760,11.360,baseline
3084.000,666.700,154.400,44.530,2588.000,546.300,110.300,28.450,234.000,58.130,16.000,5.789,343.600,99.470,28.880,11.330,baseline
3085.000,659.300,156.000,44.740,2595.000,547.800,110.200,28.440,234.400,58.150,16.010,5.775,345.100,100.200,28.860,11.370,baseline
3062.000,662.100,155.200,44.870,2594.000,548.700,110.200,28.480,234.200,58.190,15.970,5.782,345.100,100.000,29.070,11.390,baseline
3066.000,661.000,156.400,45.120,2592.000,547.200,110.900,28.410,234.600,58.280,15.990,5.805,346.800,100.600,28.960,11.410,baseline
3084.000,659.500,156.400,45.450,2597.000,549.800,110.100,28.580,235.400,58.320,16.010,5.803,346.700,100.800,29.120,11.460,baseline
3100.000,667.900,156.200,45.360,2603.000,549.300,110.100,28.490,234.100,58.420,16.060,5.805,347.900,101.100,29.220,11.440,baseline
3085.000,663.200,155.800,44.790,2600.000,545.800,109.800,28.490,233.900,58.190,15.930,5.767,345.500,100.000,28.780,11.370,baseline
3086.000,659.600,154.400,44.400,2597.000,548.300,109.600,28.400,233.600,58.120,16.020,5.781,345.800,100.200,28.920,11.290,baseline
3088.000,658.700,154.200,44.230,2588.000,549.000,110.300,28.520,232.300,58.140,16.010,5.761,345.000,99.700,28.830,11.270,baseline
3085.000,657.400,155.400,44.290,2591.000,545.200,110.600,28.460,232.500,58.270,16.000,5.764,345.000,99.790,28.770,11.280,baseline
3073.000,659.100,154.700,44.490,2611.000,545.500,110.100,28.520,234.500,58.130,15.970,5.780,344.500,99.800,28.860,11.340,baseline
3060.000,661.100,154.900,44.440,2575.000,547.000,109.900,28.480,233.000,58.250,15.960,5.780,345.700,100.000,28.850,11.360,baseline
3098.000,657.900,156.500,44.680,2592.000,547.800,110.300,28.630,233.000,58.220,16.010,5.790,345.700,100.100,29.020,11.380,baseline
3061.000,659.500,155.800,44.850,2590.000,547.000,109.400,28.410,233.500,57.990,15.980,5.796,345.700,100.200,29.060,11.380,baseline
3083.000,659.500,157.500,44.860,2579.000,549.600,110.600,28.590,236.100,58.240,16.020,5.792,346.400,100.300,29.090,11.470,baseline
3082.000,665.100,156.300,45.150,2594.000,548.600,110.300,28.640,235.200,58.210,16.030,5.831,347.200,100.600,29.100,11.450,baseline
3089.000,663.800,157.700,45.370,2598.000,547.000,110.300,28.540,235.600,58.310,16.020,5.798,347.100,100.600,29.210,11.500,baseline
3088.000,665.000,156.700,44.790,2596.000,548.200,110.100,28.500,232.800,57.970,16.010,5.769,346.100,99.700,28.810,11.340,baseline
3058.000,659.300,155.400,44.390,2590.000,547.200,110.200,28.250,233.700,58.160,15.970,5.758,345.700,100.100,28.850,11.320,baseline
3074.000,658.800,154.600,44.200,2589.000,546.800,109.900,28.530,234.700,58.020,15.980,5.758,345.100,99.470,28.820,11.270,baseline
3071.000,655.500,154.400,44.530,2584.000,546.500,110.000,28.540,232.800,58.140,15.970,5.756,344.400,99.840,28.720,11.250,baseline
3051.000,656.800,154.000,44.350,2594.000,546.000,110.400,28.500,233.400,57.940,15.920,5.754,344.200,99.910,28.690,11.260,baseline
3059.000,655.100,154.900,44.400,2597.000,549.200,110.100,28.460,232.600,57.960,15.980,5.774,344.900,99.550,28.700,11.280,baseline
3055.000,658.800,154.900,44.570,2583.000,546.000,111.000,28.610,232.700,57.990,15.950,5.770,344.700,100.000,28.900,11.340,baseline
3087.000,656.800,155.700,44.710,2594.000,542.900,111.100,28.570,232.500,57.980,15.970,5.778,345.000,100.200,28.910,11.350,baseline
3041.000,655.300,155.500,44.760,2577.000,547.900,109.700,28.640,233.600,58.040,15.930,5.768,344.900,100.400,28.990,11.410,baseline
3068.000,657.500,155.900,44.860,2590.000,545.800,110.600,28.650,232.500,58.110,15.980,5.799,345.800,100.500,28.900,11.430,baseline
3082.000,658.400,156.000,44.900,2590.000,548.100,110.800,28.690,231.900,58.040,15.980,5.797,346.000,100.800,29.110,11.470,baseline
3065.000,663.300,156.500,44.890,2599.000,548.500,110.200,28.620,233.400,57.950,16.010,5.785,346.900,100.800,29.120,11.490,baseline
3099.000,665.600,156.900,45.290,2584.000,547.400,110.200,28.430,232.300,58.000,16.040,5.791,346.200,100.200,28.830,11.310,baseline
3068.000,653.900,154.800,44.140,2596.000,546.100,109.700,28.340,233.200,57.800,15.930,5.741,344.500,99.520,28.790,11.280,baseline
3076.000,652.400,153.800,44.260,2583.000,544.300,109.900,28.550,233.300,57.770,15.880,5.728,343.400,99.420,28.650,11.250,baseline
3048.000,654.500,154.100,44.120,2586.000,545.800,110.000,28.550,232.000,57.550,15.870,5.748,343.300,99.260,28.570,11.210,baseline
3032.000,656.900,153.900,43.970,2590.000,550.000,110.700,28.620,230.700,57.680,15.840,5.743,342.400,99.340,28.550,11.170,baseline
3055.000,656.700,153.800,44.390,2567.000,543.700,110.400,28.630,230.700,57.560,15.880,5.738,342.100,99.190,28.690,11.260,baseline
3063.000,658.500,153.600,44.410,2586.000,544.700,109.900,28.670,230.500,57.740,15.870,5.744,342.200,99.150,28.660,11.240,baseline
3045.000,653.000,154.500,44.370,2593.000,551.100,110.000,28.650,232.300,57.620,15.840,5.752,343.700,99.600,28.620,11.250,baseline
3058.000,656.900,155.100,44.480,2594.000,546.000,110.000,28.770,232.200,57.510,15.880,5.753,344.200,99.500,28.770,11.270,baseline
3041.000,653.100,154.900,44.730,2581.000,548.000,110.300,28.620,232.200,57.740,15.920,5.748,343.400,99.580,28.790,11.360,baseline
3069.000,658.200,154.100,44.750,2591.000,547.200,111.100,28.610,231.900,57.690,15.900,5.767,344.200,99.780,28.940,11.340,baseline
3081.000,657.200,154.500,44.900,2582.000,547.300,110.300,28.570,230.900,57.820,15.910,5.769,345.700,100.200,28.980,11.360,baseline
3075.000,661.300,155.200,44.800,2583.000,547.000,110.400,28.660,232.100,57.790,15.840,5.790,345.300,100.500,29.100,11.390,baseline
3063.000,660.900,156.500,44.600,2591.000,544.300,110.900,28.540,233.800,57.650,15.840,5.754,343.600,99.390,28.650,11.220,baseline
3061.000,654.400,153.300,44.040,2585.000,544.500,109.700,28.550,230.200,57.580,15.830,5.717,342.700,99.260,28.430,11.180,baseline
3055.000,655.100,154.300,44.190,2572.000,542.600,110.200,28.550,231.100,57.490,15.800,5.718,342.400,99.090,28.510,11.230,baseline
3060.000,650.600,153.500,44.180,2583.000,544.500,110.700,28.530,230.100,57.380,15.840,5.737,341.300,98.540,28.530,11.140,baseline
3064.000,660.400,153.100,43.990,2586.000,546.600,110.200,28.600,230.400,57.340,15.770,5.736,341.300,98.940,28.390,11.130,baseline
3044.000,652.300,153.400,44.210,2594.000,543.300,110.500,28.600,229.600,57.310,15.800,5.705,342.000,98.820,28.440,11.160,baseline
3024.000,659.600,153.700,44.290,2582.000,543.400,111.800,28.630,231.800,57.410,15.840,5.746,342.100,99.130,28.560,11.170,baseline
3061.000,656.600,155.300,44.640,2577.000,547.900,110.400,28.550,230.500,57.520,15.800,5.729,343.000,99.140,28.660,11.250,baseline
3056.000,656.000,155.100,44.620,2585.000,545.700,110.300,28.750,230.800,57.320,15.800,5.712,342.700,99.140,28.710,11.230,baseline
3063.000,659.800,154.000,44.720,2590.000,545.500,109.900,28.790,232.300,57.500,15.810,5.740,343.000,99.470,28.690,11.300,baseline
3057.000,661.300,156.600,44.820,2586.000,548.400,110.500,28.540,231.900,57.490,15.850,5.749,343.300,99.940,28.710,11.360,baseline
3080.000,658.400,155.600,44.850,2584.000,547.000,110.400,28.570,231.600,57.420,15.780,5.735,342.500,99.130,28.560,11.200,baseline
3066.000,650.400,153.200,44.040,2585.000,545.900,109.700,28.490,229.600,57.060,15.700,5.719,339.500,98.910,28.370,11.150,baseline
3062.000,650.000,152.800,43.840,2568.000,548.800,110.200,28.620,229.500,57.020,15.690,5.705,340.400,98.760,28.430,11.070,baseline
3041.000,652.200,154.200,44.100,2578.000,543.900,110.800,28.590,231.800,57.210,15.790,5.722,341.100,98.280,28.320,11.170,baseline
3055.000,654.500,154.000,44.230,2585.000,549.400,109.800,28.570,232.300,57.200,15.740,5.677,341.500,98.540,28.450,11.090,baseline
3048.000,652.900,153.500,44.360,2596.000,545.700,110.300,28.720,230.300,57.170,15.730,5.685,340.000,98.490,28.440,11.150,baseline
3046.000,654.000,153.900,44.590,2595.000,546.000,109.900,28.580,228.500,57.010,15.680,5.694,340.300,98.470,28.340,11.160,baseline
3060.000,654.800,155.300,44.550,2590.000,544.600,109.700,28.660,229.400,57.180,15.810,5.708,340.900,98.650,28.450,11.230,baseline
3047.000,658.300,154.800,44.530,2599.000,546.100,110.700,28.590,228.900,57.180,15.770,5.711,341.500,98.680,28.600,11.180,baseline
3071.000,661.100,154.000,44.650,2584.000,548.200,110.300,28.650,230.500,57.060,15.760,5.703,342.500,98.950,28.600,11.240,baseline
3062.000,662.100,154.700,44.740,2590.000,547.200,110.400,28.850,233.000,57.110,15.740,5.713,342.600,99.640,28.810,11.260,baseline
3076.000,659.200,155.900,44.720,2582.000,549.800,110.500,28.640,229.800,57.100,15.740,5.725,343.200,99.500,28.790,11.330,baseline
3080.000,658.900,155.000,44.560,2596.000,548.100,110.100,28.530,231.800,57.300,15.780,5.696,342.600,98.790,28.500,11.090,baseline
3055.000,651.200,154.100,43.900,2583.000,545.500,110.100,28.410,230.200,57.070,15.660,5.687,339.300,98.250,28.250,11.080,baseline
3046.000,650.700,153.500,44.080,2585.000,547.400,110.300,28.630,230.200,56.960,15.670,5.650,340.500,98.300,28.220,11.060,baseline
3061.000,653.400,153.800,44.300,2579.000,546.800,111.200,28.660,231.400,56.910,15.600,5.678,338.700,97.620,28.010,11.040,baseline
3051.000,658.000,153.600,43.870,2589.000,545.400,111.000,28.710,230.100,56.270,15.600,5.671,337.200,97.210,27.990,11.000,baseline
3042.000,656.700,153.400,44.340,2581.000,547.600,110.800,28.740,229.100,56.310,15.540,5.684,337.200,97.170,28.210,11.020,baseline
3049.000,655.900,154.900,44.500,2577.000,549.200,111.100,28.780,230.100,56.120,15.550,5.638,336.600,97.460,28.170,11.050,baseline
3055.000,653.600,154.300,44.560,2588.000,548.400,110.800,28.700,228.900,56.140,15.520,5.668,335.800,96.910,28.170,11.050,baseline
3039.000,661.900,154.800,44.890,2585.000,546.500,110.800,28.870,229.100,56.130,15.580,5.662,336.300,97.440,28.150,11.110,baseline
3048.000,655.300,155.800,45.090,2588.000,552.600,111.300,28.880,228.900,56.090,15.550,5.654,337.600,97.430,28.250,11.130,baseline
3073.000,661.500,157.000,45.100,2589.000,550.800,111.500,28.840,229.900,56.090,15.560,5.661,336.300,97.710,28.270,11.120,baseline
3067.000,661.600,155.500,45.050,2599.000,552.500,111.700,28.810,229.200,56.050,15.490,5.654,338.300,97.730,28.390,11.130,baseline
3081.000,664.300,156.700,45.210,2608.000,554.200,111.100,28.890,230.900,56.140,15.580,5.672,338.100,97.830,28.460,11.170,baseline
3075.000,660.700,155.400,44.410,2580.000,550.700,110.800,28.750,230.000,55.760,15.460,5.616,335.600,97.000,28.060,10.990,baseline
3041.000,657.700,153.300,44.570,2587.000,551.800,111.400,28.680,229.700,55.820,15.430,5.600,334.400,96.850,27.910,10.990,baseline
3051.000,655.200,154.500,44.210,2596.000,550.100,111.200,28.770,229.300,55.760,15.470,5.591,334.300,96.600,27.900,10.980,baseline
3045.000,660.100,154.100,44.280,2584.000,553.400,111.000,28.780,228.400,55.840,15.480,5.587,335.400,96.940,27.970,10.950,baseline
3019.000,659.400,154.000,44.430,2593.000,550.000,111.300,28.810,228.900,56.060,15.510,5.662,335.500,96.860,28.070,10.950,baseline
3058.000,654.300,153.800,44.560,2587.000,548.900,111.800,28.690,228.200,56.190,15.510,5.650,335.300,96.920,27.940,11.000,baseline
3061.000,659.500,154.700,44.550,2601.000,551.500,111.600,28.890,229.500,56.100,15.510,5.597,336.600,96.860,28.090,10.990,baseline
3055.000,657.400,155.700,44.440,2578.000,554.500,111.400,28.880,229.800,56.210,15.530,5.641,335.800,97.190,28.030,11.100,baseline
3025.000,661.500,155.600,44.520,2594.000,550.900,111.500,28.890,231.200,56.100,15.530,5.657,334.900,97.150,28.190,11.090,baseline
3069.000,662.100,156.800,45.120,2578.000,549.800,111.900,28.920,230.500,56.120,15.580,5.650,336.500,97.370,28.310,11.070,baseline
3052.000,661.500,155.800,45.000,2595.000,552.200,111.300,28.880,229.000,56.250,15.510,5.653,336.700,98.080,28.320,11.140,baseline
3060.000,666.600,156.600,45.290,2609.000,551.100,111.900,28.850,231.000,56.110,15.610,5.660,336.600,97.230,28.100,10.960,baseline
3058.000,660.900,154.500,44.360,2612.000,553.800,111.600,28.920,228.200,56.070,15.470,5.645,335.000,96.840,27.960,10.990,baseline
3059.000,654.500,154.900,44.650,2595.000,552.200,111.000,28.830,229.000,55.930,15.520,5.643,334.400,96.910,27.900,10.920,baseline
3061.000,658.000,153.800,44.370,2588.000,552.100,111.200,28.900,229.900,56.090,15.510,5.636,335.400,97.050,27.930,10.930,baseline
3040.000,657.500,154.700,44.190,2598.000,554.400,111.100,28.890,227.700,55.960,15.500,5.635,335.700,96.660,27.960,10.990,baseline
3063.000,655.900,154.400,44.510,2593.000,549.400,111.800,28.840,229.300,56.270,15.590,5.643,334.900,97.160,28.020,10.970,baseline
3068.000,657.300,154.300,44.280,2592.000,551.400,110.800,28.930,230.400,56.200,15.580,5.657,336.600,97.390,28.030,11.010,baseline
3062.000,659.000,155.500,44.650,2605.000,551.100,111.800,29.000,230.300,56.520,15.580,5.640,336.500,97.100,28.050,11.060,baseline
3067.000,657.200,156.000,44.420,2595.000,552.700,111.500,28.890,229.900,56.350,15.630,5.656,337.300,97.100,28.190,11.080,baseline
3042.000,659.500,156.400,44.920,2605.000,552.300,112.100,29.060,229.500,56.460,15.610,5.640,337.300,97.980,28.280,11.090,baseline
3072.000,663.400,155.700,44.890,2607.000,551.800,112.500,28.870,231.600,56.490,15.630,5.703,338.200,97.710,28.220,11.140,baseline
3086.000,666.400,156.400,44.750,2602.000,555.300,111.800,28.920,230.000,56.640,15.650,5.693,338.500,98.360,28.530,11.180,baseline
3083.000,661.900,156.400,44.280,2598.000,552.300,111.800,28.960,230.200,56.560,15.710,5.649,338.100,97.780,28.100,10.990,baseline
3061.000,656.400,153.900,44.290,2600.000,552.500,111.800,28.750,229.700,56.480,15.540,5.643,337.500,97.540,28.030,10.980,baseline
3038.000,656.100,154.100,44.200,2602.000,553.100,111.700,28.980,230.100,56.560,15.630,5.668,338.000,97.800,28.180,11.010,easy
3055.000,658.400,153.900,44.350,2599.000,553.400,111.000,28.970,228.400,56.820,15.720,5.682,338.300,97.850,28.290,11.050,easy
3040.000,658.400,154.200,44.460,2597.000,552.000,111.700,29.070,230.400,56.720,15.730,5.697,338.000,97.810,28.200,11.100,easy
3058.000,660.500,154.300,44.920,2610.000,552.000,113.000,29.120,229.900,56.570,15.750,5.698,339.500,98.240,28.290,11.150,easy
3071.000,664.100,154.200,44.640,2612.000,552.900,112.200,29.150,231.500,56.910,15.700,5.715,339.500,98.460,28.340,11.170,easy
3073.000,658.000,156.200,44.840,2604.000,555.100,111.800,28.980,229.900,57.120,15.750,5.726,340.000,98.530,28.300,11.080,easy
3061.000,661.100,153.600,43.800,2598.000,554.500,111.600,28.690,232.000,57.040,15.680,5.681,337.700,97.560,28.070,11.000,easy
3058.000,656.500,153.300,43.890,2612.000,552.400,110.800,28.960,228.800,57.010,15.730,5.678,337.700,97.740,27.990,10.950,easy
3044.000,647.600,152.800,43.820,2588.000,553.500,111.700,28.870,231.100,56.880,15.690,5.665,337.900,97.520,28.150,10.960,easy
3026.000,654.600,152.300,43.790,2605.000,551.900,111.800,28.840,230.500,56.880,15.650,5.663,337.800,97.520,28.070,10.970,easy
3040.000,651.100,153.000,43.920,2603.000,551.700,111.300,29.020,230.000,57.010,15.670,5.688,338.600,97.510,28.010,10.950,easy
3034.000,651.000,152.500,44.150,2609.000,551.900,111.800,28.850,228.900,56.930,15.720,5.687,338.400,97.660,28.130,10.970,easy
3050.000,653.400,154.400,44.130,2613.000,555.700,111.600,29.000,229.300,56.980,15.650,5.704,338.700,97.570,28.080,11.050,easy
3071.000,655.800,154.200,44.220,2602.000,552.500,111.800,29.100,228.300,57.000,15.700,5.679,338.900,98.040,28.180,11.110,easy
3044.000,662.900,154.600,44.180,2605.000,552.100,112.300,29.090,233.200,56.980,15.810,5.719,339.200,98.090,28.220,11.140,easy
3051.000,656.500,154.300,44.500,2604.000,554.400,112.200,29.150,232.000,57.070,15.790,5.714,339.400,98.000,28.360,11.050,easy
3059.000,656.700,154.100,44.360,2611.000,555.000,112.800,29.230,229.700,56.870,15.750,5.712,339.600,98.700,28.470,11.140,easy
3070.000,659.000,154.800,44.650,2602.000,556.000,112.300,29.120,229.700,57.060,15.780,5.724,340.500,98.160,28.360,11.110,easy
3057.000,656.700,154.000,43.870,2598.000,555.300,111.800,28.960,230.700,56.880,15.740,5.681,338.300,97.670,28.010,10.950,easy
3031.000,655.800,152.800,43.970,2607.000,551.000,112.400,28.940,230.600,57.000,15.750,5.688,337.700,97.450,28.160,11.030,easy
3033.000,650.800,153.000,43.790,2605.000,549.500,112.400,28.970,229.600,56.880,15.680,5.675,337.300,97.560,28.060,11.000,easy
3049.000,656.200,152.400,43.710,2612.000,553.800,112.100,29.220,229.700,57.070,15.730,5.733,338.400,97.770,28.140,11.030,easy
3040.000,656.800,152.900,43.970,2617.000,553.900,111.900,29.060,231.700,56.960,15.690,5.690,338.100,97.620,28.180,11.010,easy
3035.000,653.400,153.600,44.300,2607.000,554.100,112.400,29.310,229.800,57.020,15.750,5.700,338.300,97.170,28.270,11.050,easy
3041.000,652.500,153.600,44.080,2605.000,552.900,112.200,29.300,228.900,56.960,15.750,5.713,338.700,97.820,28.280,11.050,easy
3034.000,653.600,153.800,44.420,2594.000,554.200,112.300,29.200,230.200,56.890,15.730,5.701,339.100,98.320,28.260,11.140,easy
3068.000,660.500,154.700,44.340,2616.000,555.000,112.500,29.210,232.200,56.870,15.790,5.732,338.700,97.750,28.290,11.150,easy
3060.000,660.500,155.000,44.460,2615.000,558.100,112.800,29.330,230.400,56.830,15.770,5.707,338.600,98.500,28.350,11.170,easy
3052.000,661.500,156.700,44.850,2612.000,552.900,112.100,29.170,233.600,57.110,15.750,5.711,340.700,98.690,28.460,11.190,easy
3081.000,656.300,154.800,44.390,2616.000,554.900,112.000,28.980,229.600,56.880,15.760,5.691,339.300,97.520,28.070,11.080,easy
3045.000,653.900,153.800,44.070,2597.000,554.200,111.800,29.040,229.500,56.830,15.730,5.698,337.700,97.290,28.220,10.980,easy
3044.000,651.900,152.500,43.810,2597.000,554.300,112.200,29.100,227.500,56.820,15.620,5.668,337.100,96.940,28.070,11.010,easy
3034.000,651.600,153.100,43.870,2608.000,551.900,111.800,29.180,229.200,56.870,15.700,5.670,336.300,97.040,28.010,11.040,easy
3027.000,653.400,153.400,44.000,2605.000,553.700,111.900,29.210,230.300,56.730,15.670,5.689,335.900,97.170,27.950,11.020,easy
3046.000,653.100,153.800,44.100,2612.000,554.200,112.400,29.210,230.500,56.880,15.670,5.697,336.700,97.190,28.170,11.090,easy
3048.000,650.500,154.500,44.460,2600.000,554.900,112.700,29.400,229.900,56.750,15.750,5.749,336.600,97.030,28.440,11.210,easy
3048.000,658.800,154.700,44.480,2607.000,555.100,113.100,29.400,228.900,56.330,15.910,5.754,332.600,97.020,28.610,11.280,easy
3075.000,657.500,155.600,45.130,2615.000,559.100,112.700,29.400,228.900,55.710,15.870,5.727,330.300,96.790,28.630,11.310,easy
3035.000,664.300,156.400,44.830,2609.000,558.200,113.400,29.580,228.800,55.510,15.920,5.744,330.500,96.430,28.760,11.320,easy
3053.000,661.500,156.000,44.760,2613.000,555.500,112.900,29.320,229.300,55.290,15.870,5.741,330.800,96.770,28.800,11.470,easy
3063.000,662.000,155.400,45.040,2598.000,558.700,113.500,29.470,229.300,55.200,15.850,5.775,330.200,97.200,28.920,11.460,easy
3073.000,662.700,156.700,44.740,2611.000,558.700,112.300,29.100,229.900,55.270,15.840,5.710,329.100,96.740,28.790,11.260,easy
3053.000,659.300,155.100,44.320,2597.000,555.300,113.000,29.170,227.400,54.920,15.820,5.713,327.100,96.070,28.570,11.280,easy
3051.000,661.000,154.300,44.500,2608.000,557.800,113.200,29.240,228.600,54.960,15.740,5.725,326.700,95.780,28.400,11.260,easy
3049.000,659.200,156.300,44.640,2611.000,557.400,113.400,29.350,228.500,54.980,15.770,5.719,327.200,96.270,28.520,11.220,easy
3042.000,662.500,155.300,44.770,2617.000,560.000,113.300,29.360,227.300,55.010,15.800,5.709,326.700,96.060,28.600,11.250,easy
3061.000,660.900,155.200,45.120,2616.000,558.600,112.700,29.480,227.600,54.980,15.760,5.735,326.800,95.940,28.590,11.190,easy
3058.000,663.000,155.900,45.040,2603.000,559.600,113.100,29.420,228.900,55.040,15.740,5.710,327.000,96.210,28.540,11.230,easy
3079.000,659.800,156.800,44.920,2607.000,560.200,113.400,29.540,229.300,54.730,15.610,5.639,327.500,96.040,28.130,11.040,easy
3063.000,658.000,155.800,45.140,2606.000,555.200,112.700,29.240,230.600,56.280,15.750,5.721,336.800,97.940,28.400,11.250,easy
3058.000,669.700,156.800,45.170,2599.000,560.500,113.100,29.460,234.900,56.690,15.760,5.725,336.000,98.220,28.530,11.280,easy
3074.000,666.200,156.400,45.460,2609.000,558.400,113.200,29.550,233.600,56.530,15.800,5.707,337.200,97.880,28.630,11.250,easy
3072.000,660.200,156.500,45.340,2610.000,557.800,112.800,29.440,233.300,56.380,15.730,5.698,333.800,97.130,28.320,11.130,easy
3048.000,660.000,155.200,45.170,2612.000,560.100,113.100,29.400,232.200,56.500,15.760,5.704,335.700,96.980,28.260,11.050,easy
3060.000,661.100,155.900,45.090,2594.000,557.600,113.300,29.250,232.700,56.410,15.680,5.709,334.300,97.140,28.280,11.110,easy
3049.000,660.900,154.500,44.600,2592.000,557.800,112.200,29.270,233.400,56.310,15.750,5.684,334.600,97.130,28.070,11.090,easy
3050.000,660.200,154.700,44.640,2612.000,557.500,112.700,29.500,232.300,56.540,15.660,5.692,334.100,97.010,28.160,11.040,easy
3067.000,661.500,155.300,44.940,2613.000,558.600,113.500,29.330,229.700,56.560,15.690,5.711,334.600,97.100,28.200,11.110,easy
3069.000,660.500,155.500,45.150,2624.000,559.000,113.000,29.370,231.900,56.600,15.720,5.704,334.700,97.000,28.390,11.120,easy
3054.000,662.900,155.700,45.500,2594.000,556.700,112.700,29.480,232.300,56.700,15.720,5.728,336.000,97.710,28.440,11.150,easy
3079.000,663.900,155.800,45.240,2607.000,556.700,112.900,29.530,232.300,56.660,15.770,5.705,337.100,97.840,28.450,11.150,easy
3088.000,663.700,156.300,45.490,2605.000,560.800,113.000,29.260,232.100,56.720,15.780,5.727,338.000,98.350,28.450,11.140,easy
3058.000,661.800,156.100,45.080,2603.000,557.200,112.900,29.320,232.900,56.900,15.840,5.684,335.300,97.200,28.150,11.070,easy
3042.000,653.000,155.100,44.560,2605.000,555.100,112.000,29.120,230.100,56.980,15.740,5.709,336.000,97.250,28.080,11.010,easy
3061.000,654.900,153.500,44.290,2604.000,558.700,111.600,29.050,231.500,56.860,15.730,5.703,335.900,97.340,28.100,10.970,easy
3054.000,657.200,154.100,44.380,2603.000,554.800,110.900,29.090,230.800,57.030,15.770,5.676,336.400,97.370,28.090,10.970,easy
3063.000,653.900,153.100,44.320,2592.000,554.900,112.500,28.990,232.400,57.230,15.800,5.726,337.800,97.470,28.000,11.030,easy
3069.000,654.800,153.200,44.460,2603.000,551.600,111.200,28.970,233.000,57.510,15.820,5.721,339.100,98.370,28.180,11.040,easy
3058.000,656.500,154.300,44.510,2595.000,554.800,111.300,29.180,231.600,57.580,15.950,5.760,338.300,98.230,28.260,11.150,easy
3045.000,657.300,154.200,44.200,2599.000,556.700,111.500,29.030,235.000,57.740,15.950,5.731,340.100,98.140,28.290,11.180,easy
3050.000,661.300,154.300,44.820,2614.000,552.100,111.700,29.150,232.900,57.860,16.020,5.763,340.400,98.550,28.520,11.170,easy
3080.000,661.700,154.700,45.140,2604.000,557.400,112.000,29.070,233.300,57.910,16.030,5.771,339.800,98.910,28.540,11.200,easy
3062.000,660.200,156.300,45.050,2598.000,557.600,112.200,29.270,233.400,58.070,16.080,5.803,341.700,99.430,28.820,11.250,easy
3079.000,664.600,155.300,45.230,2622.000,558.500,112.700,29.060,234.600,58.210,16.120,5.813,342.000,99.060,28.730,11.310,easy
3073.000,660.000,155.100,44.690,2605.000,559.300,112.300,29.050,233.500,58.070,16.120,5.785,340.500,98.830,28.450,11.110,easy
3039.000,659.000,154.200,44.410,2602.000,556.400,112.000,29.020,231.800,58.100,15.940,5.769,340.600,98.380,28.460,11.110,easy
3061.000,652.300,154.400,44.490,2635.000,556.400,111.400,29.070,233.300,57.940,16.050,5.784,339.800,98.360,28.360,11.100,easy
3068.000,655.800,154.600,44.530,2610.000,556.600,111.500,29.100,233.600,58.140,16.020,5.796,340.300,98.360,28.490,11.110,easy
3067.000,659.200,153.900,44.270,2606.000,558.700,111.900,29.070,232.400,58.020,16.090,5.803,340.400,98.530,28.400,11.140,easy
3080.000,657.700,154.500,44.680,2631.000,553.900,112.800,29.160,233.300,58.060,16.080,5.796,341.200,98.780,28.620,11.220,easy
3074.000,656.100,155.500,44.790,2612.000,561.000,112.500,29.180,236.100,58.200,16.120,5.812,342.800,99.080,28.680,11.230,easy
3077.000,660.300,155.200,44.820,2619.000,559.100,112.300,29.270,234.000,58.310,16.070,5.837,344.100,99.450,28.700,11.290,easy
3083.000,659.400,156.000,45.240,2616.000,558.600,112.400,29.250,234.600,58.210,16.180,5.823,343.900,99.380,28.950,11.320,easy
3107.000,659.800,156.000,45.210,2619.000,561.000,113.000,29.320,235.600,58.380,16.180,5.852,344.100,99.780,28.920,11.340,easy
3105.000,667.900,157.200,45.620,2624.000,560.900,112.400,29.210,232.500,58.550,16.150,5.856,345.100,100.000,29.040,11.350,easy
3100.000,665.500,156.300,44.870,2625.000,558.900,112.500,29.170,234.600,58.430,16.110,5.845,342.700,99.660,28.750,11.290,easy
3081.000,664.700,156.400,45.040,2616.000,559.100,113.400,29.440,234.600,58.180,16.180,5.842,341.700,98.810,28.890,11.330,easy
3112.000,669.000,156.500,45.330,2608.000,566.700,113.600,29.540,233.900,57.360,16.060,5.820,334.700,98.230,28.950,11.340,easy
3093.000,668.000,157.000,45.220,2619.000,563.600,114.600,29.730,233.600,56.760,16.090,5.860,334.800,98.470,29.140,11.440,easy
3091.000,668.800,157.600,45.750,2607.000,567.300,113.500,29.680,234.600,56.740,16.230,5.887,334.900,98.940,29.190,11.520,easy
3088.000,673.700,158.000,45.760,2633.000,560.700,114.200,29.610,235.700,56.660,16.200,5.867,335.700,99.300,29.270,11.510,easy
3103.000,671.400,156.800,45.740,2632.000,567.700,113.800,29.680,233.500,56.690,16.030,5.809,337.000,98.680,29.140,11.410,easy
3116.000,676.100,157.700,45.780,2639.000,567.200,114.000,29.470,236.300,57.340,16.130,5.830,343.000,100.400,29.270,11.440,easy
3115.000,674.300,158.000,45.880,2626.000,565.800,113.800,29.660,237.000,58.180,16.160,5.866,345.500,100.500,29.270,11.550,easy
3110.000,679.400,159.800,46.130,2651.000,566.600,114.500,29.710,236.600,58.290,16.190,5.857,345.700,100.800,29.260,11.490,easy
3122.000,673.500,158.100,45.720,2646.000,563.000,114.200,29.470,235.500,58.050,16.140,5.872,344.000,99.830,29.080,11.360,easy
3109.000,673.100,157.500,45.430,2632.000,560.900,114.200,29.470,235.700,58.410,16.170,5.827,344.600,100.100,28.860,11.310,easy
3122.000,673.900,157.100,45.150,2637.000,563.400,114.000,29.640,236.300,58.270,16.030,5.830,343.600,100.000,28.900,11.270,easy
3107.000,672.000,157.700,45.740,2634.000,568.700,113.900,29.550,235.800,58.160,16.040,5.850,343.900,99.750,28.750,11.280,easy
3105.000,672.700,158.000,45.290,2647.000,568.500,114.400,29.600,233.400,57.900,16.040,5.798,343.000,99.880,28.890,11.290,easy
3124.000,672.100,157.200,45.580,2648.000,567.100,114.600,29.710,234.300,58.030,15.980,5.846,345.000,99.600,28.910,11.300,easy
3115.000,674.800,158.800,45.810,2647.000,567.900,113.900,29.740,236.100,58.090,16.090,5.835,344.500,100.200,28.950,11.360,easy
3123.000,678.400,158.900,46.070,2634.000,566.500,115.000,29.780,236.000,58.340,16.130,5.830,345.300,100.200,29.120,11.410,easy
3130.000,681.000,159.400,46.170,2654.000,564.100,114.100,29.610,235.600,58.210,16.070,5.813,346.400,100.600,29.240,11.410,easy
3125.000,679.600,160.400,46.630,2644.000,567.900,114.900,29.800,235.900,58.250,16.120,5.828,346.400,100.600,29.210,11.530,easy
3150.000,682.100,160.900,46.680,2663.000,569.400,114.000,29.790,236.300,58.230,16.090,5.835,347.600,100.600,29.460,11.550,easy
3168.000,685.700,160.900,46.250,2657.000,566.300,114.300,29.640,235.500,58.130,16.120,5.831,347.400,100.700,29.090,11.400,easy
3140.000,678.100,157.900,45.740,2637.000,569.900,114.500,29.540,233.200,57.990,16.050,5.794,344.700,100.400,28.930,11.340,easy
3119.000,672.500,158.100,45.770,2640.000,567.400,114.000,29.720,234.000,57.950,15.990,5.776,345.100,100.100,28.780,11.280,easy
3130.000,674.100,158.400,45.730,2635.000,567.000,113.900,29.660,234.100,57.980,16.000,5.796,344.500,99.940,28.930,11.280,easy
3110.000,673.900,159.000,45.500,2647.000,564.500,114.400,29.510,235.300,57.910,15.970,5.772,344.100,99.760,29.000,11.300,easy
3124.000,674.500,158.700,45.680,2632.000,566.800,114.300,29.600,233.000,57.970,16.030,5.810,344.300,99.950,28.890,11.330,easy
3130.000,671.500,158.200,45.690,2635.000,562.400,114.100,29.470,234.400,58.020,16.120,5.805,345.400,100.200,28.990,11.340,easy
3132.000,674.200,158.400,45.930,2632.000,563.300,114.200,29.540,234.300,58.010,16.120,5.826,345.500,100.400,29.000,11.420,easy
3124.000,676.000,160.300,46.220,2625.000,565.100,114.100,29.590,235.900,58.330,16.090,5.836,346.900,100.600,29.190,11.420,easy
3133.000,674.800,160.000,46.110,2654.000,565.300,113.600,29.580,234.700,58.060,16.130,5.814,347.100,100.600,29.200,11.450,easy
3141.000,679.300,159.900,46.620,2653.000,565.400,114.300,29.630,235.900,58.240,16.110,5.787,347.700,101.200,29.350,11.560,easy
3143.000,685.300,161.000,46.710,2655.000,564.200,113.800,29.650,235.700,58.050,16.090,5.791,348.900,101.300,29.520,11.560,easy
3176.000,687.600,160.800,46.450,2653.000,564.800,114.200,29.530,234.400,58.040,16.140,5.817,347.400,101.300,29.150,11.450,easy
3152.000,676.000,158.700,45.720,2640.000,564.600,113.300,29.540,234.700,57.950,16.040,5.784,345.200,100.000,28.960,11.350,easy
3116.000,676.200,158.600,45.860,2643.000,566.400,113.900,29.380,234.100,57.920,15.980,5.802,345.500,99.920,28.960,11.290,easy
3134.000,675.000,159.100,45.640,2652.000,565.300,113.500,29.470,234.900,57.740,15.970,5.803,345.400,99.700,28.960,11.270,easy
3127.000,674.000,158.700,45.680,2637.000,565.800,113.800,29.550,233.000,57.760,16.010,5.784,343.800,99.930,28.880,11.320,easy
3145.000,677.800,159.000,45.830,2635.000,564.100,113.900,29.650,234.000,57.730,15.920,5.765,344.500,100.100,28.880,11.290,easy
3136.000,680.700,159.000,46.130,2642.000,562.600,114.100,29.680,234.600,57.610,16.000,5.781,345.100,99.890,29.000,11.350,easy
3149.000,680.000,160.000,46.270,2631.000,562.900,114.000,29.620,234.300,57.580,16.010,5.781,345.500,99.810,29.050,11.320,easy
3145.000,680.600,161.000,46.400,2641.000,566.800,114.300,29.480,233.200,57.870,15.960,5.773,345.700,100.300,29.060,11.440,easy
3157.000,684.700,162.000,46.800,2642.000,564.600,114.000,29.710,234.100,57.780,15.960,5.807,346.000,100.700,29.140,11.430,easy
3162.000,683.300,161.300,46.780,2638.000,567.300,113.900,29.530,235.800,57.770,16.010,5.785,346.200,100.300,29.090,11.410,easy
3160.000,682.800,160.000,46.180,2631.000,566.100,113.800,29.640,234.700,57.470,15.900,5.749,342.000,100.000,28.710,11.250,easy
3130.000,682.400,159.500,46.280,2635.000,564.900,114.100,29.510,234.400,57.500,15.840,5.734,342.900,99.470,28.820,11.240,easy
3154.000,679.400,159.200,45.920,2645.000,565.700,113.400,29.510,230.300,57.230,15.780,5.729,341.300,98.960,28.640,11.210,easy
3125.000,680.600,158.500,46.140,2626.000,565.300,113.700,29.340,231.000,57.180,15.850,5.696,341.500,98.980,28.540,11.180,easy
3129.000,675.000,159.400,45.990,2632.000,562.100,113.400,29.350,230.900,57.050,15.780,5.687,340.700,98.850,28.610,11.200,easy
3122.000,681.300,160.000,45.880,2626.000,557.900,113.100,29.500,228.700,57.020,15.750,5.713,339.800,99.350,28.650,11.210,easy
3125.000,678.800,159.000,46.110,2637.000,562.900,113.000,29.430,232.700,57.230,15.710,5.714,342.100,99.250,28.750,11.270,easy
3137.000,680.100,160.500,46.280,2625.000,559.300,112.900,29.550,231.600,57.250,15.800,5.717,342.200,99.500,28.960,11.350,easy
3149.000,681.600,161.600,46.690,2621.000,563.900,112.800,29.420,232.600,57.370,15.820,5.701,343.800,99.400,28.970,11.360,easy
3135.000,688.300,161.000,46.840,2611.000,562.700,113.500,29.390,232.500,57.400,15.870,5.737,343.400,100.200,28.930,11.410,easy
3160.000,685.100,160.400,46.750,2617.000,562.900,112.700,29.330,231.400,57.470,15.970,5.740,345.300,99.870,29.070,11.380,easy
3129.000,680.200,158.800,45.820,2617.000,559.700,113.100,29.330,232.400,57.350,15.760,5.704,341.400,98.760,28.590,11.180,easy
3129.000,678.700,158.200,45.730,2608.000,563.300,113.300,29.270,231.900,57.400,15.760,5.701,340.900,98.980,28.560,11.190,easy
3115.000,669.300,158.600,45.670,2633.000,561.400,112.800,29.140,232.000,57.040,15.720,5.664,340.700,98.610,28.520,11.130,easy
3108.000,673.800,157.900,45.670,2615.000,559.200,112.300,29.120,231.100,57.360,15.700,5.703,339.500,98.090,28.480,11.120,easy
3124.000,672.300,158.600,45.880,2619.000,562.800,113.000,29.270,231.300,56.870,15.670,5.695,338.700,98.070,28.400,11.150,easy
3109.000,667.700,158.300,45.840,2604.000,557.400,112.900,29.360,233.400,57.000,15.680,5.672,339.800,98.370,28.510,11.150,easy
3099.000,678.300,159.200,45.710,2609.000,557.800,112.600,29.240,231.800,57.120,15.680,5.701,341.300,98.380,28.450,11.240,easy
3110.000,676.300,159.300,46.060,2608.000,558.700,113.300,29.030,231.500,57.120,15.710,5.691,340.400,98.980,28.780,11.210,easy
3127.000,677.700,159.300,45.980,2616.000,554.700,112.900,29.120,231.600,57.350,15.750,5.689,341.700,99.240,28.630,11.310,easy
3137.000,673.400,160.400,46.330,2599.000,558.100,112.500,29.100,231.400,57.420,15.810,5.667,342.300,99.430,28.840,11.370,easy
3153.000,677.900,160.000,46.580,2620.000,558.300,112.600,29.160,230.800,57.270,15.800,5.692,342.300,100.000,29.010,11.420,easy
3150.000,682.400,159.600,45.900,2606.000,556.800,112.000,28.960,231.000,57.370,15.850,5.694,341.200,99.010,28.620,11.200,easy
3123.000,668.600,157.500,45.680,2596.000,558.600,112.200,29.070,230.400,57.190,15.780,5.677,341.000,98.640,28.510,11.140,easy
3126.000,672.700,158.100,45.660,2600.000,556.000,111.800,29.000,231.400,57.160,15.700,5.678,340.800,98.350,28.420,11.120,easy
3126.000,674.400,158.100,45.680,2606.000,555.300,112.500,29.200,231.200,57.180,15.720,5.674,340.100,98.750,28.340,11.130,easy
3097.000,672.800,157.900,45.760,2594.000,559.000,112.100,28.980,230.600,57.130,15.690,5.679,340.200,98.460,28.460,11.110,easy
3118.000,669.300,158.200,45.750,2605.000,555.100,112.400,29.050,231.300,57.130,15.670,5.694,340.600,98.380,28.520,11.180,easy
3139.000,674.500,159.200,46.040,2593.000,552.900,112.100,29.170,232.300,57.250,15.770,5.704,340.800,98.860,28.580,11.190,easy
3106.000,673.600,159.000,46.080,2594.000,554.800,112.100,29.110,231.600,57.120,15.700,5.681,341.600,98.770,28.750,11.260,easy
3132.000,676.800,160.000,46.330,2611.000,555.900,111.700,29.120,232.600,57.320,15.750,5.683,342.800,99.230,28.840,11.290,easy
3121.000,675.400,161.100,46.350,2596.000,557.000,111.500,29.200,231.500,57.420,15.700,5.715,343.100,99.770,28.980,11.370,easy
3117.000,682.100,158.800,46.280,2589.000,555.300,111.700,29.010,232.900,57.460,15.760,5.733,342.700,99.070,28.490,11.160,easy
3105.000,668.900,158.600,45.730,2586.000,556.100,112.000,29.000,230.600,57.400,15.710,5.692,340.800,98.660,28.370,11.120,easy
3085.000,671.600,157.800,45.520,2586.000,555.900,111.300,28.720,231.800,57.210,15.690,5.696,340.700,98.570,28.510,11.060,easy
3114.000,672.100,156.900,45.770,2592.000,552.700,111.700,28.750,230.000,57.230,15.690,5.662,339.600,98.350,28.380,11.130,easy
3088.000,663.200,156.400,45.270,2585.000,556.300,111.800,28.810,231.100,57.290,15.650,5.706,340.500,98.770,28.330,11.130,easy
3109.000,667.200,156.800,45.340,2593.000,552.400,111.000,28.920,231.900,57.110,15.770,5.697,340.700,98.650,28.410,11.140,easy
3093.000,665.100,157.900,45.710,2599.000,552.500,112.300,29.000,230.900,57.300,15.760,5.689,341.900,98.880,28.550,11.170,easy
3111.000,672.400,157.800,45.840,2577.000,553.800,111.900,28.940,230.800,57.470,15.810,5.690,342.200,99.350,28.650,11.180,easy
3095.000,674.600,158.700,46.090,2587.000,554.700,111.600,29.130,232.300,57.460,15.780,5.720,344.200,99.740,28.860,11.260,easy
3121.000,675.100,159.700,46.680,2584.000,554.100,111.700,29.190,233.300,57.610,15.780,5.719,344.300,99.610,28.800,11.330,easy
3130.000,675.000,159.400,45.950,2602.000,555.100,111.200,28.810,232.800,57.620,15.810,5.709,342.800,99.230,28.490,11.180,easy
3113.000,669.800,157.500,45.600,2591.000,551.300,112.100,28.860,232.900,57.480,15.700,5.715,341.600,98.840,28.420,11.160,easy
3084.000,668.700,157.200,45.450,2590.000,551.600,111.700,28.750,233.200,57.440,15.770,5.698,340.700,98.890,28.400,11.130,easy
3086.000,668.700,157.300,45.310,2584.000,550.700,112.100,28.690,230.300,57.330,15.700,5.682,342.600,98.680,28.320,11.160,easy
3091.000,670.400,157.100,45.450,2581.000,555.500,111.100,28.860,231.600,57.470,15.720,5.714,341.800,98.580,28.460,11.150,easy
3095.000,669.800,156.800,45.240,2584.000,553.600,110.800,28.750,232.200,57.320,15.780,5.717,341.500,98.640,28.460,11.200,easy
3105.000,673.200,157.100,45.540,2596.000,552.600,111.300,28.990,233.600,57.430,15.860,5.737,343.200,99.460,28.700,11.240,easy
3108.000,667.300,158.200,46.030,2584.000,553.100,111.000,28.860,233.200,57.580,15.780,5.707,343.700,99.430,28.630,11.310,easy
3113.000,670.200,158.900,46.000,2587.000,550.600,111.600,28.920,233.100,57.690,15.830,5.759,344.700,99.670,28.860,11.320,easy
3118.000,675.800,159.200,46.110,2598.000,554.400,111.800,28.890,233.200,57.740,15.870,5.741,345.300,99.590,28.840,11.280,easy
3081.000,667.000,157.100,45.300,2580.000,554.900,111.800,28.860,232.900,57.550,15.770,5.737,342.300,99.010,28.460,11.140,easy
3087.000,669.000,157.300,45.250,2580.000,551.600,111.300,28.790,232.700,57.610,15.780,5.754,342.700,99.340,28.590,11.170,easy
3088.000,668.000,156.300,45.310,2581.000,551.800,111.200,28.830,232.700,57.580,15.760,5.706,342.900,99.070,28.560,11.180,easy
3100.000,665.500,157.100,45.320,2585.000,551.300,111.200,28.830,230.800,57.440,15.790,5.717,342.400,99.050,28.490,11.200,easy
3098.000,670.200,157.000,45.330,2580.000,550.600,110.900,28.810,231.100,57.380,15.820,5.733,341.800,99.010,28.610,11.170,easy
3088.000,668.900,157.500,45.390,2578.000,548.100,111.500,28.860,231.800,57.440,15.890,5.740,342.800,99.220,28.660,11.230,easy
3084.000,668.500,156.700,45.290,2596.000,553.100,111.800,28.920,232.900,57.400,15.820,5.742,343.200,99.420,28.790,11.310,easy
3097.000,667.600,157.300,45.890,2584.000,552.300,111.700,29.030,232.600,57.500,15.840,5.748,344.100,99.690,28.920,11.320,easy
3093.000,666.300,158.600,45.810,2587.000,552.300,112.300,28.920,231.400,57.700,15.930,5.745,345.100,100.200,28.930,11.420,easy
3104.000,674.400,158.700,45.920,2597.000,550.500,111.700,28.810,233.200,57.660,15.860,5.754,343.900,99.700,28.880,11.300,easy
3108.000,665.900,157.500,45.370,2580.000,551.500,111.300,28.860,233.200,57.550,15.770,5.741,343.600,99.430,28.640,11.180,easy
3078.000,667.200,156.900,45.120,2590.000,550.300,111.500,28.830,231.500,57.540,15.780,5.755,344.100,99.340,28.630,11.270,easy
3086.000,666.900,156.800,45.240,2583.000,551.000,111.400,28.700,234.500,57.640,15.840,5.721,343.900,99.560,28.820,11.230,easy
3092.000,666.300,156.700,45.270,2589.000,551.900,111.400,28.870,232.300,57.380,15.790,5.722,343.500,99.180,28.810,11.240,easy
3080.000,665.000,156.800,44.980,2586.000,553.900,111.600,28.870,231.700,57.480,15.810,5.733,342.400,99.640,28.780,11.310,easy
3092.000,664.800,157.100,45.150,2591.000,550.500,111.900,28.920,232.500,57.460,15.820,5.714,343.200,99.900,28.790,11.320,easy
3095.000,671.100,157.100,45.590,2593.000,551.100,112.200,29.070,233.200,57.510,15.840,5.738,344.500,100.000,28.920,11.350,easy
3101.000,672.700,157.700,45.600,2591.000,554.900,112.200,29.100,233.000,57.270,15.860,5.740,344.900,100.000,28.980,11.380,easy
3122.000,668.800,158.400,45.790,2596.000,553.900,112.000,29.060,232.200,57.440,15.780,5.722,344.900,100.200,28.970,11.440,easy
3105.000,669.300,157.500,45.410,2590.000,553.400,111.400,28.910,231.900,57.130,15.790,5.719,341.800,99.700,28.800,11.290,easy
3075.000,666.600,156.400,45.560,2596.000,550.400,111.500,28.980,230.100,57.170,15.760,5.726,342.200,99.100,28.690,11.240,easy
3096.000,664.300,155.400,45.130,2583.000,551.200,111.300,28.910,230.900,57.350,15.790,5.703,343.000,99.720,28.730,11.270,easy
3083.000,665.600,156.000,45.020,2579.000,551.600,111.700,28.920,231.500,57.230,15.780,5.718,343.000,99.230,28.790,11.300,easy
3079.000,668.100,156.100,45.270,2576.000,554.300,111.000,28.770,229.900,57.270,15.760,5.706,343.200,99.770,28.860,11.310,easy
3067.000,667.600,156.400,45.270,2575.000,550.500,111.600,28.810,231.100,57.380,15.800,5.725,344.200,99.910,28.930,11.330,easy
3082.000,667.200,158.000,45.380,2591.000,551.000,110.800,28.750,230.700,57.430,15.840,5.710,344.600,100.500,29.000,11.370,easy
3083.000,669.800,158.100,45.480,2591.000,550.300,111.400,28.990,233.200,57.610,15.900,5.714,345.300,100.300,29.030,11.440,easy
3111.000,672.000,158.300,45.760,2597.000,552.200,110.700,29.050,231.800,57.630,15.830,5.734,346.100,101.100,29.240,11.540,easy
3116.000,675.300,159.000,46.010,2582.000,554.500,112.600,28.930,232.400,57.470,15.860,5.763,346.400,100.800,29.180,11.430,easy
3096.000,669.900,156.700,45.230,2584.000,552.400,111.800,28.910,233.200,57.460,15.790,5.708,344.700,99.800,28.850,11.320,easy
3106.000,667.000,158.000,45.200,2589.000,551.100,111.700,29.000,230.600,57.180,15.700,5.693,343.500,99.690,28.830,11.300,easy
3103.000,670.300,156.900,45.230,2576.000,554.100,111.900,28.770,230.900,57.400,15.700,5.716,343.400,100.200,28.790,11.340,easy
3086.000,667.400,156.700,45.070,2582.000,551.200,112.100,28.920,232.700,57.490,15.740,5.703,343.200,100.100,28.700,11.310,easy
3105.000,668.900,157.000,45.260,2596.000,554.300,112.100,29.030,231.300,57.300,15.770,5.696,343.300,99.770,28.960,11.330,easy
3099.000,668.500,157.400,45.190,2592.000,552.400,111.300,28.990,231.400,57.290,15.780,5.698,344.900,99.940,29.140,11.370,easy
3112.000,673.400,157.000,45.430,2583.000,555.000,111.800,29.010,233.200,57.400,15.780,5.701,344.900,100.300,29.020,11.370,easy
3110.000,670.500,157.300,45.790,2599.000,553.300,112.300,29.070,230.600,57.320,15.700,5.706,345.100,100.300,28.960,11.440,easy
3085.000,673.700,158.300,45.870,2588.000,555.000,111.500,29.210,232.100,57.310,15.740,5.687,345.300,100.500,29.250,11.500,easy
3122.000,675.300,159.800,46.340,2594.000,553.800,111.600,29.080,229.900,57.430,15.820,5.708,345.600,100.400,29.290,11.510,easy
3104.000,670.300,156.700,45.420,2591.000,554.100,110.700,28.940,232.400,57.310,15.690,5.682,344.200,99.680,28.900,11.320,easy
3087.000,670.100,157.700,45.300,2596.000,552.100,111.500,28.890,232.600,56.990,15.720,5.656,343.500,99.640,28.800,11.350,easy
3084.000,669.300,157.200,45.110,2583.000,553.900,111.900,29.120,230.000,57.290,15.660,5.679,342.700,99.590,28.820,11.290,easy
3108.000,671.400,156.600,45.130,2580.000,557.000,111.700,28.980,230.600,57.330,15.660,5.682,342.700,99.630,28.780,11.290,easy
3082.000,670.000,157.000,45.380,2578.000,554.200,112.600,28.890,231.000,56.930,15.640,5.662,342.500,99.280,28.670,11.340,easy
3094.000,669.100,157.800,45.260,2582.000,552.000,112.700,28.910,230.400,56.960,15.640,5.660,342.800,99.940,28.870,11.360,easy
3095.000,667.400,158.000,45.850,2575.000,554.300,111.800,28.980,230.600,57.170,15.650,5.669,342.600,99.880,28.930,11.320,easy
3100.000,667.000,158.000,45.670,2590.000,553.600,111.200,28.810,229.900,57.070,15.640,5.671,343.400,100.200,28.870,11.380,easy
3119.000,667.700,158.000,45.740,2594.000,555.200,112.300,28.990,231.100,57.060,15.660,5.690,345.100,100.400,29.110,11.460,easy
3104.000,673.100,159.000,46.210,2592.000,553.400,111.800,29.190,232.000,57.000,15.660,5.678,345.000,100.500,29.170,11.460,easy
3117.000,673.000,159.600,46.280,2589.000,552.600,112.100,29.140,233.700,57.110,15.750,5.697,345.100,100.700,29.230,11.420,easy
3118.000,671.700,158.400,45.720,2601.000,556.100,112.000,28.870,231.300,57.000,15.680,5.675,342.800,99.380,28.840,11.300,easy
3109.000,668.400,157.500,45.300,2606.000,552.300,111.500,29.020,227.700,56.690,15.630,5.653,342.300,99.170,28.830,11.320,easy
3098.000,667.900,157.400,45.390,2581.000,554.100,111.700,28.970,230.500,56.960,15.590,5.634,342.300,99.280,28.700,11.260,easy
3095.000,671.900,156.000,45.260,2585.000,554.200,111.600,28.910,229.100,57.030,15.570,5.641,342.400,99.290,28.690,11.270,easy
3106.000,670.200,157.900,45.290,2586.000,554.000,111.100,28.910,230.800,56.900,15.540,5.636,342.300,99.030,28.820,11.290,easy
3102.000,668.000,157.100,45.310,2589.000,552.900,112.000,28.810,232.000,56.930,15.530,5.632,342.000,99.600,28.820,11.270,easy
3104.000,671.400,158.500,45.770,2591.000,554.000,111.300,29.040,229.600,56.830,15.620,5.639,342.100,99.720,28.780,11.350,easy
3145.000,671.300,158.500,46.060,2602.000,555.200,111.500,29.010,230.600,56.860,15.630,5.652,342.000,99.230,29.000,11.360,easy
3106.000,674.300,159.400,46.060,2580.000,557.300,112.100,28.910,229.200,56.940,15.650,5.618,341.900,100.000,29.010,11.330,easy
3121.000,670.200,159.900,46.400,2586.000,556.800,112.800,29.100,230.100,56.700,15.570,5.647,342.800,100.000,29.040,11.380,easy
3135.000,671.900,159.100,45.990,2589.000,551.600,111.600,28.910,230.400,56.770,15.540,5.621,340.800,99.230,28.720,11.250,easy
3101.000,668.800,158.000,45.740,2592.000,554.900,111.900,28.790,228.700,56.460,15.530,5.587,340.300,98.670,28.580,11.310,easy
3094.000,664.700,158.000,45.310,2580.000,552.500,111.100,28.670,229.800,56.350,15.460,5.607,339.300,98.750,28.540,11.230,easy
3097.000,668.800,157.400,45.530,2590.000,554.700,110.600,28.740,227.800,56.220,15.520,5.585,338.800,98.660,28.620,11.250,easy
3082.000,667.600,156.200,45.390,2577.000,554.500,111.300,28.810,228.200,56.580,15.450,5.625,339.200,98.860,28.550,11.220,easy
3089.000,666.200,157.400,45.260,2573.000,552.400,111.000,28.840,228.900,56.480,15.480,5.588,339.600,98.880,28.760,11.190,easy
3087.000,666.900,158.200,45.670,2593.000,552.200,111.100,28.840,229.800,56.510,15.560,5.623,339.700,99.080,28.710,11.290,easy
3097.000,669.600,158.600,45.740,2561.000,552.700,110.700,28.750,229.900,56.610,15.590,5.596,341.000,99.310,28.830,11.280,easy
3093.000,670.500,157.800,45.720,2587.000,553.600,110.500,28.780,231.200,56.510,15.610,5.612,340.900,99.810,28.990,11.330,easy
3111.000,671.900,158.300,45.860,2579.000,551.500,111.200,28.850,229.000,56.680,15.620,5.619,342.700,99.920,29.010,11.410,easy
3120.000,673.500,158.600,45.920,2579.000,551.900,111.600,28.780,230.500,56.660,15.540,5.602,341.900,99.090,28.810,11.290,easy
3098.000,669.500,156.400,45.270,2569.000,551.900,110.900,28.770,228.400,56.550,15.500,5.617,340.100,98.720,28.640,11.220,easy
3090.000,668.100,156.400,45.340,2572.000,552.900,111.400,28.780,228.400,56.450,15.470,5.584,340.600,98.570,28.510,11.170,easy
3097.000,666.200,156.500,45.070,2570.000,553.000,110.800,28.580,227.200,56.320,15.450,5.601,339.200,98.770,28.340,11.150,easy
3071.000,670.300,155.700,45.050,2586.000,552.100,110.900,28.790,227.600,56.350,15.440,5.574,339.100,98.050,28.350,11.170,easy
3084.000,664.900,157.000,44.930,2563.000,553.600,111.900,28.800,229.000,56.520,15.430,5.580,339.200,98.210,28.430,11.150,easy
3070.000,666.200,156.800,45.340,2578.000,551.600,111.100,28.870,228.000,56.380,15.370,5.592,338.700,98.720,28.520,11.180,easy
3092.000,667.800,157.000,45.280,2581.000,554.100,110.900,28.860,228.000,56.390,15.440,5.572,340.300,98.330,28.610,11.250,easy
3095.000,669.100,157.800,45.740,2580.000,553.900,111.300,28.750,227.400,56.300,15.440,5.580,338.700,98.760,28.530,11.270,easy
3079.000,668.200,159.000,45.610,2592.000,552.300,111.600,28.850,230.600,56.280,15.420,5.631,338.500,98.740,28.780,11.280,easy
3100.000,670.100,158.200,46.230,2586.000,555.700,111.200,28.750,228.400,56.230,15.520,5.588,339.600,98.900,28.630,11.320,easy
3092.000,667.700,158.500,45.770,2590.000,550.800,110.900,28.740,228.100,56.450,15.470,5.592,341.200,98.800,28.420,11.200,easy
3085.000,666.400,156.300,45.050,2571.000,549.600,110.700,28.570,228.400,56.090,15.390,5.570,337.100,98.540,28.260,11.100,easy
3058.000,662.400,155.600,44.710,2579.000,549.600,110.900,28.620,228.100,56.310,15.420,5.550,338.500,98.040,28.380,11.080,easy
3042.000,661.000,154.700,44.500,2561.000,549.300,110.200,28.330,228.300,56.220,15.400,5.572,337.700,98.140,28.260,11.110,easy
3065.000,652.100,155.600,44.780,2579.000,547.100,111.300,28.450,227.500,56.180,15.500,5.550,337.700,97.580,28.270,11.090,easy
3043.000,662.900,154.900,44.530,2566.000,552.300,110.000,28.580,228.400,56.230,15.420,5.590,337.500,98.290,28.300,11.120,easy
3081.000,664.900,155.500,45.240,2577.000,549.600,110.700,28.560,228.600,56.180,15.450,5.591,337.200,98.200,28.330,11.080,easy
3055.000,662.600,155.500,44.890,2582.000,549.700,110.700,28.700,228.500,56.300,15.450,5.577,338.200,98.220,28.510,11.160,easy
3061.000,663.700,156.700,45.040,2572.000,550.500,111.700,28.760,228.600,56.370,15.430,5.579,338.500,98.240,28.440,11.190,easy
3079.000,666.500,156.400,45.300,2581.000,553.500,112.200,28.680,228.800,56.400,15.440,5.575,339.400,98.440,28.410,11.250,easy
3053.000,669.400,157.100,45.190,2578.000,554.700,111.200,28.870,228.300,56.590,15.500,5.594,340.600,98.520,28.510,11.230,easy
3076.000,666.700,157.900,45.240,2578.000,551.800,110.600,28.750,228.200,56.450,15.480,5.605,338.500,98.000,28.400,11.130,easy
3085.000,660.300,155.600,44.660,2578.000,551.000,111.200,28.790,226.600,56.280,15.390,5.563,337.500,97.540,28.370,11.070,easy
3056.000,662.200,155.300,44.690,2576.000,550.000,110.600,28.640,226.800,56.070,15.310,5.571,336.900,97.480,28.260,11.040,easy
3058.000,656.600,155.900,44.800,2572.000,549.000,111.200,28.660,227.100,56.020,15.460,5.568,336.600,97.510,28.160,11.090,easy
3029.000,656.000,155.800,44.920,2580.000,550.000,110.300,28.660,227.800,56.150,15.400,5.562,338.000,97.480,28.270,11.000,easy
3057.000,659.000,154.800,44.560,2557.000,550.100,110.700,28.490,228.500,56.160,15.490,5.599,337.300,97.990,28.260,11.080,easy
3045.000,659.800,154.900,44.600,2575.000,547.300,110.200,28.570,227.200,56.310,15.530,5.598,338.200,97.880,28.290,11.110,easy
3052.000,656.000,153.700,44.740,2577.000,548.900,110.600,28.770,225.900,56.280,15.620,5.592,337.800,98.180,28.310,11.160,easy
3061.000,656.900,155.500,44.880,2575.000,549.300,110.400,28.720,228.200,56.360,15.500,5.619,339.000,98.290,28.470,11.160,easy
3062.000,661.000,156.800,44.990,2560.000,550.900,111.100,28.820,228.700,56.510,15.510,5.625,340.900,98.430,28.680,11.210,easy
3071.000,663.800,157.900,45.290,2596.000,554.300,111.400,28.760,228.800,56.570,15.550,5.647,341.500,98.840,28.530,11.200,easy
3086.000,662.400,157.000,44.730,2579.000,553.200,111.300,28.800,228.400,56.400,15.500,5.608,338.600,98.230,28.290,11.140,easy
3040.000,660.900,155.100,44.570,2562.000,552.600,111.500,28.860,228.900,56.420,15.510,5.596,337.900,97.710,28.090,11.080,easy
3056.000,659.500,155.200,44.540,2583.000,551.300,111.200,28.850,227.500,56.290,15.470,5.615,338.000,97.570,28.190,11.060,easy
3058.000,660.100,155.000,44.700,2580.000,554.800,111.100,28.770,227.600,56.380,15.430,5.622,337.500,97.470,28.150,11.010,easy
3032.000,655.200,155.400,44.460,2571.000,551.900,111.300,28.940,228.600,56.280,15.460,5.592,337.000,97.350,28.200,11.010,easy
3056.000,655.100,155.500,44.690,2572.000,552.500,111.300,28.770,227.500,56.300,15.460,5.605,336.900,97.780,28.220,11.070,easy
3032.000,659.000,155.200,44.560,2586.000,552.400,111.000,28.880,227.000,56.210,15.540,5.627,338.000,97.850,28.280,11.090,easy
3054.000,659.000,155.500,45.170,2574.000,555.700,111.700,29.070,227.900,56.350,15.510,5.610,337.700,98.010,28.360,11.120,easy
3047.000,657.400,155.000,44.880,2574.000,553.900,111.600,29.080,228.300,56.230,15.550,5.619,338.400,98.060,28.410,11.160,easy
3059.000,661.500,155.500,45.320,2580.000,552.400,111.700,29.070,227.500,56.360,15.500,5.636,339.100,98.190,28.480,11.240,easy
3060.000,664.300,158.100,45.460,2578.000,554.400,112.300,28.970,228.500,56.390,15.560,5.663,339.100,98.710,28.580,11.270,easy
3065.000,666.400,157.900,45.510,2579.000,552.800,111.300,29.080,229.700,56.490,15.680,5.681,341.100,98.810,28.520,11.240,easy
3080.000,659.700,155.100,44.610,2571.000,553.500,111.700,28.640,228.100,56.450,15.600,5.643,338.800,98.110,28.330,11.110,easy
3055.000,654.100,154.600,44.620,2569.000,550.000,111.400,28.780,226.300,56.480,15.630,5.623,338.200,97.810,28.230,11.060,easy
3040.000,655.400,153.200,44.360,2577.000,550.100,111.200,28.770,228.800,56.360,15.540,5.602,338.800,97.730,28.260,11.060,easy
3037.000,657.400,154.300,44.680,2605.000,553.600,111.700,28.980,228.500,56.500,15.610,5.638,339.400,97.500,28.170,11.080,easy
3055.000,655.600,155.100,44.570,2576.000,553.000,111.300,29.020,228.100,56.590,15.530,5.644,338.300,97.900,28.190,11.090,easy
3069.000,660.200,155.000,44.600,2591.000,557.000,112.100,29.220,228.000,56.530,15.570,5.664,338.100,97.960,28.170,11.120,easy
3056.000,658.600,154.500,44.920,2602.000,555.600,111.400,29.040,229.900,56.570,15.510,5.631,339.700,98.320,28.370,11.170,easy
3049.000,660.600,155.800,44.800,2585.000,554.800,111.600,29.110,229.900,56.470,15.600,5.661,339.700,98.410,28.400,11.130,easy
3070.000,658.000,156.400,45.060,2606.000,556.300,112.500,29.260,228.300,56.760,15.570,5.645,340.800,98.980,28.460,11.230,easy
3073.000,665.400,156.900,45.240,2595.000,557.600,112.300,29.180,228.100,56.660,15.630,5.661,341.300,98.730,28.640,11.220,easy
3091.000,668.700,157.400,45.460,2609.000,555.500,112.900,29.280,229.000,56.590,15.670,5.646,341.400,99.070,28.650,11.260,easy
3081.000,667.600,157.700,45.220,2585.000,559.200,112.700,29.380,229.700,56.580,15.570,5.651,340.500,98.850,28.650,11.290,easy
3081.000,667.400,157.300,45.410,2600.000,559.500,112.200,29.210,228.600,56.220,15.550,5.653,339.400,98.380,28.370,11.180,easy
3055.000,664.200,155.800,44.940,2591.000,557.000,113.300,29.180,229.300,56.190,15.510,5.611,339.600,97.980,28.350,11.150,easy
3066.000,660.000,156.200,44.730,2598.000,558.000,113.000,29.070,228.400,56.390,15.470,5.612,338.300,97.820,28.260,11.090,easy
3060.000,663.800,155.700,45.080,2605.000,558.500,112.500,29.150,228.200,56.280,15.530,5.606,337.500,97.930,28.180,11.080,easy
3077.000,660.600,155.500,44.910,2593.000,559.700,112.500,29.150,227.800,56.240,15.500,5.619,337.600,98.000,28.230,11.070,easy
3056.000,661.700,155.500,44.840,2599.000,555.000,112.000,29.070,228.000,56.310,15.560,5.641,338.600,98.260,28.370,11.110,easy
3063.000,662.600,156.300,44.790,2583.000,554.600,112.000,28.980,229.000,56.410,15.560,5.650,339.200,97.840,28.560,11.120,easy
3060.000,661.900,156.300,44.700,2608.000,555.100,112.300,29.270,226.900,56.490,15.630,5.656,339.100,98.670,28.390,11.180,easy
3060.000,666.700,156.200,45.090,2609.000,557.600,112.400,29.340,226.300,56.630,15.680,5.658,339.200,98.740,28.650,11.240,easy
3069.000,665.200,157.800,45.260,2601.000,559.500,112.500,29.290,228.000,56.780,15.610,5.639,340.900,98.980,28.700,11.260,easy
3085.000,666.300,158.000,45.660,2608.000,559.700,113.000,29.300,226.400,56.740,15.690,5.668,340.700,98.780,28.420,11.190,easy
3083.000,665.400,155.900,44.900,2620.000,558.400,112.600,29.220,229.500,56.440,15.620,5.634,339.700,98.250,28.370,11.120,easy
3062.000,663.400,157.100,44.780,2619.000,559.100,112.300,29.220,227.900,56.540,15.580,5.656,338.200,97.770,28.260,11.110,easy
3055.000,660.800,156.900,44.810,2617.000,558.900,112.800,29.370,228.100,56.330,15.510,5.635,338.300,98.140,28.240,11.070,easy
3071.000,660.400,156.400,45.120,2598.000,560.900,112.600,29.510,227.900,56.310,15.530,5.625,337.700,97.930,28.180,11.080,easy
3054.000,664.700,156.200,44.950,2607.000,559.000,112.200,29.300,228.400,56.320,15.530,5.629,338.200,98.040,28.210,11.070,easy
3064.000,669.000,156.100,45.200,2598.000,560.300,112.600,29.350,227.600,56.400,15.510,5.635,337.600,97.670,28.250,11.110,easy
3095.000,660.000,157.000,45.270,2606.000,560.900,112.400,29.350,228.900,56.220,15.560,5.633,338.600,98.050,28.310,11.130,easy
3081.000,664.600,157.000,45.540,2612.000,558.600,112.500,29.320,227.200,56.320,15.610,5.650,337.800,97.960,28.430,11.220,easy
3086.000,667.100,156.400,45.480,2601.000,560.500,112.400,29.370,227.500,56.370,15.580,5.652,338.600,98.250,28.470,11.180,easy
3080.000,667.200,158.100,45.930,2595.000,554.900,112.700,29.280,229.100,56.550,15.570,5.670,339.200,98.800,28.500,11.220,easy
3093.000,668.900,157.800,45.840,2614.000,556.900,112.500,29.170,226.700,56.410,15.640,5.662,341.200,98.780,28.700,11.210,easy
3086.000,666.000,156.500,44.960,2604.000,559.200,111.900,29.010,228.100,56.510,15.620,5.631,338.900,98.090,28.310,11.100,easy
3066.000,668.000,156.000,44.940,2602.000,558.000,112.600,29.150,227.300,56.500,15.610,5.645,337.700,98.260,28.140,11.070,easy
3064.000,662.700,156.100,44.960,2621.000,557.500,112.300,29.110,227.600,56.450,15.620,5.635,338.000,97.400,28.200,11.040,easy
3066.000,662.000,156.300,44.910,2614.000,558.200,113.400,29.090,227.200,56.180,15.560,5.661,337.600,97.540,28.140,11.070,easy
3063.000,662.900,155.800,44.940,2616.000,562.100,112.400,29.290,227.900,56.370,15.550,5.622,337.100,97.280,28.040,10.990,easy
3062.000,661.900,156.700,45.130,2597.000,560.100,112.500,29.430,227.700,56.190,15.570,5.621,335.900,97.480,28.180,11.020,easy
3088.000,664.600,156.600,45.490,2614.000,559.800,113.000,29.190,228.300,56.150,15.500,5.689,335.800,97.230,28.170,11.060,easy
3075.000,666.500,157.400,45.470,2612.000,559.600,113.300,29.420,227.500,56.320,15.590,5.638,336.100,97.810,28.230,11.080,easy
3085.000,667.700,157.000,45.270,2618.000,557.800,112.400,29.370,227.600,56.290,15.600,5.643,338.200,98.070,28.310,11.110,easy
3078.000,663.800,157.400,45.310,2611.000,553.800,112.000,29.050,228.200,56.350,15.630,5.641,338.200,98.070,28.440,11.150,easy
3082.000,667.700,156.400,45.280,2599.000,559.300,112.600,29.180,228.300,56.590,15.660,5.661,339.100,98.670,28.450,11.200,easy
3097.000,669.500,158.700,45.670,2605.000,559.900,112.900,29.400,227.800,56.720,15.640,5.664,339.900,98.450,28.460,11.180,easy
3091.000,662.300,156.400,45.060,2620.000,560.000,112.500,29.210,228.700,56.420,15.530,5.640,338.100,97.760,28.200,11.010,easy
3070.000,662.200,157.400,45.040,2626.000,559.100,112.300,29.200,227.500,56.430,15.620,5.627,337.100,97.590,28.050,11.050,easy
3083.000,660.200,156.100,45.020,2617.000,562.600,112.700,29.240,227.500,56.330,15.470,5.604,335.800,97.010,28.110,10.950,easy
3079.000,663.700,155.800,45.150,2615.000,560.900,113.000,29.180,228.400,56.440,15.500,5.638,336.100,97.110,27.950,10.970,easy
3069.000,664.700,156.000,45.000,2622.000,554.900,112.800,29.390,229.500,56.320,15.590,5.655,335.500,97.090,28.070,10.990,easy
3088.000,662.400,156.300,45.400,2608.000,561.700,112.800,29.350,227.600,56.240,15.520,5.653,335.900,97.120,28.170,10.980,easy
3085.000,662.600,158.400,45.360,2602.000,558.200,113.300,29.400,228.300,56.320,15.550,5.657,336.500,97.240,28.110,11.090,easy
3114.000,664.100,157.500,45.190,2598.000,561.600,112.300,29.370,227.600,56.470,15.590,5.649,336.500,97.340,28.270,11.060,easy
3084.000,669.800,158.300,45.710,2612.000,559.700,113.100,29.440,227.700,56.480,15.590,5.662,337.800,97.460,28.270,11.110,easy
3075.000,670.000,157.900,45.840,2606.000,557.400,113.000,29.390,229.600,56.400,15.570,5.630,337.600,97.740,28.410,11.120,easy
3078.000,665.200,157.000,45.400,2610.000,560.400,113.100,29.340,227.700,56.300,15.580,5.644,335.000,96.960,28.120,10.950,easy
3079.000,662.000,155.600,44.890,2620.000,557.300,112.600,29.350,227.100,56.060,15.520,5.607,335.500,97.040,27.950,10.960,easy
3073.000,658.500,155.900,44.900,2622.000,556.900,111.900,29.270,225.400,56.150,15.490,5.635,335.000,96.530,27.930,11.010,easy
3054.000,662.900,155.200,44.950,2615.000,556.700,112.300,29.240,226.400,56.130,15.500,5.640,334.200,96.870,27.920,10.960,easy
3045.000,661.600,156.600,45.030,2601.000,557.700,112.600,29.250,227.100,56.270,15.510,5.650,334.300,96.800,28.070,11.000,easy
3072.000,664.000,155.900,45.180,2595.000,557.000,112.900,29.370,228.300,56.430,15.570,5.653,334.900,97.020,27.990,10.980,easy
3066.000,663.800,156.400,45.370,2611.000,558.700,112.100,29.330,226.900,56.320,15.520,5.674,335.800,97.490,28.050,11.050,easy
3068.000,664.500,157.100,45.340,2597.000,559.600,112.900,29.360,228.500,56.370,15.590,5.656,335.200,97.780,28.150,11.040,easy
3069.000,662.100,157.600,45.480,2583.000,556.800,112.500,29.280,228.800,56.510,15.590,5.657,336.800,97.810,28.280,11.100,easy
3068.000,661.800,156.600,45.440,2620.000,562.100,112.800,29.440,228.800,56.510,15.660,5.686,335.000,97.090,28.000,11.000,bogus
3078.000,660.600,156.300,45.080,2602.000,559.900,113.200,29.330,227.200,56.560,15.610,5.675,336.300,97.210,28.050,11.010,bogus
3054.000,663.500,156.500,45.070,2609.000,557.400,112.800,29.360,227.400,56.590,15.620,5.681,335.600,97.120,28.040,11.040,bogus
3072.000,663.800,157.200,45.150,2624.000,556.700,112.800,29.370,228.400,56.740,15.670,5.688,336.700,97.570,28.140,11.020,bogus
3091.000,668.400,157.200,45.660,2600.000,559.300,113.700,29.470,228.900,56.750,15.750,5.709,336.400,97.770,28.210,11.120,bogus
3085.000,661.600,156.300,45.470,2601.000,558.700,112.300,29.040,228.900,56.800,15.650,5.645,335.700,97.580,28.070,11.030,easy
3083.000,665.200,156.200,45.260,2602.000,558.000,113.100,29.050,230.500,56.690,15.650,5.658,336.500,97.580,28.080,11.100,easy
3087.000,666.200,156.900,45.530,2610.000,560.600,112.200,29.020,228.000,56.850,15.630,5.650,337.700,97.790,28.300,11.090,easy
3097.000,665.900,158.900,45.740,2612.000,559.700,112.500,29.250,228.300,56.830,15.610,5.637,338.800,98.020,28.250,11.150,easy
3101.000,670.000,158.000,45.890,2623.000,556.600,112.500,29.160,228.200,56.960,15.650,5.674,338.300,98.800,28.400,11.210,easy
3104.000,668.700,157.700,45.300,2609.000,554.900,112.100,28.770,231.100,56.960,15.690,5.674,337.600,97.620,28.260,10.960,easy
3081.000,659.500,154.800,44.830,2585.000,554.000,111.000,28.840,230.300,56.900,15.610,5.642,337.000,97.140,27.970,10.960,easy
3070.000,656.300,154.800,44.590,2605.000,554.600,110.700,28.670,226.800,56.780,15.710,5.629,336.600,97.130,27.940,10.940,easy
3054.000,658.700,154.900,44.710,2611.000,555.200,111.400,28.670,230.300,57.000,15.600,5.635,336.500,97.460,27.840,10.940,easy
3062.000,658.800,154.200,44.630,2605.000,553.700,111.200,28.660,228.500,56.910,15.630,5.636,335.800,97.390,27.800,10.970,easy
3064.000,661.900,154.700,44.760,2601.000,553.900,111.200,28.830,228.600,56.800,15.590,5.624,336.400,97.320,27.910,10.960,easy
3068.000,658.500,155.200,44.910,2609.000,554.500,111.800,28.730,228.400,56.820,15.660,5.663,336.600,97.290,28.000,11.000,easy
3065.000,657.700,156.200,44.960,2621.000,555.100,111.900,28.660,228.700,56.600,15.620,5.645,336.500,97.860,28.100,11.000,easy
3064.000,662.000,155.400,44.930,2599.000,553.100,111.100,28.800,229.300,56.950,15.630,5.663,336.200,97.510,28.070,11.060,easy
3042.000,659.400,156.800,45.310,2610.000,557.400,111.600,28.760,230.600,56.730,15.650,5.661,337.500,97.730,28.180,11.130,easy
3072.000,666.100,155.900,45.260,2610.000,555.100,111.100,28.880,228.800,56.970,15.670,5.678,338.400,97.950,28.140,11.200,easy
3080.000,664.100,156.700,45.570,2612.000,554.500,112.200,28.910,230.100,56.950,15.650,5.644,338.300,98.260,28.230,11.150,easy
3089.000,663.500,157.000,45.460,2591.000,557.600,111.500,28.780,230.500,57.260,15.600,5.636,337.400,97.420,28.070,11.030,easy
3071.000,650.600,155.000,44.980,2589.000,553.500,111.400,28.570,228.600,56.770,15.570,5.602,336.200,96.930,27.880,10.960,easy
3058.000,656.100,153.900,44.490,2575.000,551.900,111.000,28.710,230.100,56.850,15.530,5.647,335.100,96.850,27.770,10.950,easy
3066.000,653.000,154.500,44.400,2595.000,553.800,110.000,28.550,229.200,56.660,15.570,5.607,334.500,96.640,27.780,10.940,easy
3049.000,653.700,154.200,44.380,2593.000,550.700,111.400,28.570,229.700,56.690,15.530,5.628,333.800,96.790,27.820,10.930,easy
3045.000,654.200,154.200,44.520,2588.000,551.600,111.100,28.500,227.900,56.710,15.570,5.599,335.000,96.790,27.750,10.970,easy
3050.000,654.800,154.100,44.470,2582.000,551.000,110.200,28.590,229.200,56.830,15.570,5.610,335.500,96.930,27.850,10.950,easy
3060.000,655.400,155.100,44.780,2580.000,549.500,110.200,28.550,228.400,56.860,15.570,5.619,335.800,97.430,27.950,11.000,easy
3058.000,649.800,155.300,44.770,2586.000,549.400,111.000,28.610,228.100,56.780,15.530,5.591,336.600,97.450,27.980,11.020,easy
3053.000,657.100,155.600,45.000,2583.000,550.400,111.100,28.570,229.800,56.740,15.660,5.625,337.100,98.130,28.020,11.010,easy
3056.000,661.700,156.500,45.180,2580.000,551.100,110.300,28.650,229.100,56.890,15.630,5.628,336.600,98.250,28.050,11.120,easy
3075.000,662.500,156.600,45.310,2588.000,554.100,111.400,28.760,229.500,56.940,15.630,5.631,338.000,98.470,28.150,11.140,easy
3090.000,663.300,156.000,45.230,2590.000,551.300,110.600,28.530,228.800,56.800,15.630,5.631,337.000,97.340,27.980,10.960,easy
3055.000,655.300,154.000,44.490,2590.000,548.900,110.700,28.550,226.300,56.780,15.580,5.590,336.000,97.030,27.730,10.960,easy
3041.000,654.200,155.000,44.500,2581.000,552.700,110.400,28.430,227.400,56.630,15.590,5.587,334.300,97.040,27.820,10.940,easy
3028.000,652.300,154.000,44.590,2585.000,549.200,109.700,28.450,229.200,56.560,15.560,5.609,334.000,96.930,27.730,10.890,easy
3039.000,654.900,153.400,44.300,2582.000,549.700,110.700,28.560,228.100,56.500,15.500,5.606,334.100,96.750,27.700,10.850,easy
3061.000,653.500,153.500,44.420,2573.000,550.900,110.400,28.430,228.300,56.450,15.570,5.569,334.600,97.290,27.760,10.950,easy
3047.000,654.500,153.500,44.580,2568.000,551.700,110.600,28.510,228.000,56.400,15.530,5.581,335.300,96.990,27.830,10.970,easy
3052.000,655.900,154.300,44.540,2587.000,548.900,110.100,28.480,229.100,56.510,15.520,5.599,335.100,97.470,27.870,11.020,easy
3039.000,654.900,155.400,44.650,2575.000,548.900,110.300,28.490,227.200,56.430,15.540,5.604,335.500,97.270,27.920,11.010,easy
3047.000,653.900,156.200,44.890,2572.000,547.500,110.400,28.500,227.000,56.710,15.490,5.610,336.900,97.940,28.100,11.000,easy
3047.000,655.300,155.200,44.280,2574.000,548.100,110.000,28.440,227.600,56.660,15.540,5.590,334.900,96.750,27.600,10.890,easy
3002.000,648.700,152.900,44.110,2574.000,548.600,110.000,28.370,226.800,56.370,15.450,5.601,334.100,96.360,27.600,10.850,easy
3030.000,644.500,151.900,43.840,2582.000,546.300,109.200,28.240,229.000,56.360,15.490,5.579,332.700,96.390,27.580,10.820,easy
3016.000,643.700,152.400,43.570,2561.000,544.600,109.400,28.190,228.000,56.200,15.410,5.582,332.900,96.190,27.510,10.810,easy
2993.000,650.000,152.300,43.870,2550.000,544.100,109.400,28.230,225.300,56.090,15.460,5.581,332.600,96.310,27.520,10.780,easy
3014.000,645.100,152.800,43.770,2559.000,545.400,109.100,28.220,227.200,56.270,15.470,5.566,332.600,96.350,27.450,10.820,easy
3023.000,648.700,152.300,43.840,2555.000,543.300,109.800,28.230,228.100,56.180,15.440,5.604,332.700,96.340,27.580,10.820,easy
3001.000,649.300,153.000,44.100,2560.000,548.900,109.600,28.320,226.500,56.170,15.440,5.553,333.500,96.120,27.650,10.880,easy
3029.000,650.200,153.100,44.450,2560.000,545.900,109.600,28.410,227.500,56.230,15.450,5.586,333.600,96.630,27.660,10.940,easy
3027.000,646.200,153.400,44.410,2566.000,547.700,109.900,28.330,227.500,56.190,15.540,5.602,335.300,96.740,27.810,11.010,easy
3042.000,654.800,153.900,44.660,2574.000,544.500,110.600,28.570,226.600,56.440,15.550,5.593,335.600,97.360,27.800,10.950,easy
3035.000,652.300,153.900,43.860,2562.000,545.200,110.000,28.420,227.500,56.270,15.500,5.572,333.000,96.410,27.400,10.820,easy
3014.000,638.900,152.200,43.700,2547.000,542.700,108.700,28.230,226.700,55.900,15.460,5.569,330.700,95.940,27.350,10.690,easy
3001.000,639.900,150.700,43.300,2553.000,541.800,109.100,28.160,225.500,55.950,15.430,5.538,329.800,95.560,27.320,10.710,easy
2972.000,638.500,150.800,43.130,2545.000,542.600,109.500,28.210,226.500,55.990,15.380,5.539,329.000,95.470,27.020,10.680,easy
2988.000,634.300,149.500,43.000,2531.000,542.600,108.900,28.080,225.300,55.720,15.320,5.546,328.900,94.910,27.110,10.630,easy
2979.000,640.400,150.600,43.030,2532.000,539.700,108.800,28.140,226.100,56.070,15.400,5.552,328.000,95.480,27.230,10.680,easy
2988.000,639.000,150.400,43.090,2531.000,542.900,109.000,28.070,225.200,55.840,15.350,5.542,329.500,95.020,27.150,10.720,easy
2970.000,643.700,150.700,42.940,2543.000,541.300,109.200,28.210,225.300,55.780,15.350,5.574,329.700,95.280,27.130,10.710,easy
2998.000,634.900,150.500,43.430,2546.000,542.000,108.800,28.230,224.600,55.840,15.350,5.585,330.300,95.140,27.370,10.760,easy
2982.000,641.300,152.300,43.340,2549.000,542.300,109.600,28.300,225.800,55.910,15.430,5.568,330.400,95.740,27.390,10.800,easy
3001.000,643.700,151.500,43.790,2534.000,543.000,109.800,28.280,224.800,55.950,15.380,5.562,332.100,95.870,27.310,10.810,easy
2991.000,642.900,152.400,43.880,2549.000,543.300,109.500,28.180,226.700,55.880,15.430,5.595,331.500,96.270,27.580,10.840,easy
3011.000,648.100,153.300,44.290,2566.000,542.800,110.500,28.510,225.100,55.910,15.410,5.582,332.800,95.780,27.600,10.740,easy
2988.000,636.700,151.400,43.170,2562.000,544.200,109.500,28.250,227.000,55.830,15.480,5.539,330.000,95.120,27.100,10.640,easy
2959.000,632.600,149.100,42.610,2531.000,539.800,108.600,27.910,225.800,55.680,15.400,5.563,328.500,94.620,26.940,10.560,easy
2971.000,632.200,147.900,42.660,2531.000,542.700,108.100,27.890,223.300,55.650,15.340,5.529,327.300,94.530,26.880,10.540,easy
2972.000,632.200,148.600,42.200,2532.000,540.800,108.600,27.930,226.300,55.770,15.330,5.551,327.300,94.330,26.900,10.500,easy
2965.000,631.200,147.200,42.530,2512.000,538.700,108.700,27.850,225.800,55.870,15.330,5.560,327.400,94.290,26.800,10.590,easy
2941.000,627.900,147.900,42.560,2517.000,537.400,108.600,28.050,223.200,55.600,15.360,5.553,326.600,94.380,27.030,10.600,easy
2961.000,629.200,148.100,42.520,2543.000,539.200,108.800,28.190,225.600,55.660,15.370,5.546,328.300,94.570,27.040,10.610,easy
2956.000,630.100,149.200,42.730,2530.000,541.900,108.700,28.150,225.200,55.820,15.390,5.582,329.100,94.830,26.970,10.590,easy
2963.000,632.200,149.500,42.870,2526.000,537.200,108.800,28.330,224.500,55.780,15.410,5.568,328.300,95.030,27.170,10.690,easy
2969.000,636.500,149.700,42.950,2538.000,541.000,109.900,28.360,222.700,55.880,15.400,5.579,330.400,95.170,27.310,10.700,easy
2983.000,635.700,151.100,43.220,2542.000,541.500,109.500,28.430,224.100,55.900,15.570,5.576,330.400,95.770,27.340,10.730,easy
2980.000,639.100,150.500,43.440,2554.000,540.600,109.100,28.380,225.100,55.920,15.470,5.605,330.200,95.770,27.400,10.820,easy
2990.000,637.800,150.700,43.560,2545.000,540.200,110.100,28.550,227.300,56.030,15.470,5.605,331.100,95.340,27.390,10.730,easy
2991.000,636.500,148.800,42.980,2554.000,544.900,109.100,28.200,223.200,55.770,15.380,5.594,328.000,94.920,26.960,10.600,easy
2972.000,630.900,148.300,42.590,2541.000,543.100,109.200,28.210,224.300,55.800,15.370,5.566,328.500,94.530,26.950,10.570,easy
2953.000,635.900,146.800,42.520,2543.000,540.100,109.000,28.230,225.700,55.720,15.380,5.571,327.800,94.450,27.050,10.530,easy
2956.000,632.300,148.400,42.380,2547.000,540.500,109.000,28.230,223.800,55.750,15.400,5.558,328.700,94.610,26.870,10.530,easy
2959.000,628.800,147.700,42.340,2538.000,540.800,109.200,28.030,223.300,55.640,15.450,5.581,328.700,94.670,26.870,10.630,easy
2957.000,631.400,148.400,42.570,2539.000,541.600,109.200,28.330,224.300,55.710,15.400,5.563,328.800,94.640,27.050,10.600,easy
2955.000,633.500,148.700,42.500,2556.000,542.100,109.400,28.470,223.900,55.680,15.390,5.580,329.200,94.920,27.110,10.660,easy
2962.000,636.300,149.300,42.600,2550.000,543.500,109.500,28.430,225.400,55.760,15.460,5.572,329.500,94.950,26.950,10.650,easy
2985.000,630.900,149.100,42.630,2552.000,541.100,109.400,28.200,224.500,55.790,15.400,5.572,330.300,95.430,27.120,10.730,easy
2979.000,633.200,150.200,43.090,2556.000,542.700,109.700,28.600,225.200,55.850,15.450,5.597,331.600,95.610,27.320,10.770,easy
2980.000,635.900,149.800,43.220,2556.000,545.700,109.700,28.640,224.700,55.990,15.490,5.624,332.000,95.910,27.380,10.760,easy
2997.000,639.000,150.800,43.210,2555.000,544.300,109.400,28.400,225.800,56.000,15.470,5.615,330.200,95.270,27.140,10.670,easy
2985.000,633.600,149.500,42.580,2555.000,545.200,109.800,28.450,225.600,55.780,15.470,5.560,328.900,94.450,26.920,10.600,easy
2968.000,633.100,148.100,42.530,2553.000,542.800,109.200,28.310,223.000,55.690,15.360,5.557,328.600,94.910,27.010,10.600,easy
2940.000,632.500,148.000,42.800,2549.000,546.100,109.100,28.310,224.700,55.810,15.420,5.574,329.000,94.810,27.020,10.600,easy
2962.000,635.100,148.400,42.540,2549.000,543.700,109.900,28.400,223.800,55.650,15.400,5.577,328.000,94.800,27.040,10.580,easy
2961.000,633.900,148.800,42.730,2561.000,545.000,109.500,28.420,224.000,55.750,15.390,5.566,328.600,94.750,26.980,10.610,easy
2955.000,635.900,148.700,42.610,2563.000,543.500,109.100,28.450,225.200,55.790,15.430,5.592,329.600,95.050,27.220,10.660,easy
2965.000,639.000,150.500,42.880,2548.000,547.100,110.000,28.530,224.700,55.600,15.430,5.592,329.300,95.330,27.150,10.670,easy
2972.000,639.200,150.500,42.930,2572.000,545.200,109.900,28.650,225.400,55.720,15.500,5.582,330.400,95.280,27.330,10.650,easy
2973.000,639.700,151.000,42.990,2574.000,546.400,110.500,28.490,224.700,55.780,15.480,5.623,331.100,95.600,27.360,10.770,easy
2988.000,641.400,151.100,43.470,2553.000,545.400,111.100,28.660,225.300,55.830,15.470,5.617,332.000,95.810,27.430,10.790,easy
3001.000,644.000,151.600,43.640,2579.000,544.900,110.400,28.560,225.800,56.210,15.480,5.655,333.200,96.230,27.560,10.830,easy
3014.000,647.500,151.100,43.350,2574.000,547.600,111.100,28.630,225.400,56.050,15.560,5.645,331.600,95.790,27.320,10.700,easy
2986.000,642.400,148.800,42.910,2574.000,546.300,110.500,28.590,225.200,55.800,15.380,5.607,330.500,95.190,27.120,10.630,easy
2977.000,636.900,149.500,43.090,2566.000,549.700,109.500,28.580,225.600,55.650,15.460,5.578,329.400,95.140,27.110,10.620,easy
2967.000,637.100,149.200,42.820,2559.000,546.300,110.000,28.390,224.400,55.790,15.470,5.605,329.800,94.830,27.040,10.620,easy
2971.000,635.900,148.400,42.710,2562.000,545.600,110.200,28.650,225.800,55.790,15.390,5.592,329.400,94.780,26.970,10.560,easy
2966.000,631.800,149.400,42.940,2561.000,544.700,110.200,28.490,224.300,55.760,15.410,5.600,329.600,94.570,27.170,10.630,easy
2995.000,637.400,149.900,43.000,2552.000,548.300,110.500,28.600,224.700,55.600,15.470,5.580,330.000,95.000,27.030,10.650,easy
2999.000,640.000,150.200,43.300,2563.000,548.200,110.800,28.600,223.900,55.710,15.490,5.619,329.900,95.400,27.320,10.690,easy
2992.000,638.200,150.400,43.350,2578.000,549.100,110.400,28.640,224.000,55.510,15.410,5.614,330.800,95.160,27.210,10.720,easy
3010.000,639.800,151.900,43.500,2580.000,546.100,110.800,28.690,222.800,55.660,15.430,5.594,330.700,96.040,27.390,10.790,easy
3003.000,639.500,152.100,43.720,2566.000,549.400,110.600,28.590,224.200,55.720,15.430,5.608,330.500,95.720,27.460,10.820,easy
3000.000,647.300,152.100,43.880,2579.000,549.100,111.300,28.850,226.300,55.790,15.450,5.606,332.600,96.370,27.610,10.840,easy
3010.000,654.400,152.200,44.200,2588.000,550.800,111.000,28.800,224.900,55.810,15.440,5.639,333.500,95.860,27.510,10.800,easy
3013.000,643.300,150.600,43.410,2570.000,551.100,109.900,28.560,225.600,55.750,15.430,5.583,330.100,95.160,27.180,10.650,easy
2993.000,641.500,150.700,43.210,2572.000,550.800,110.500,28.440,225.000,55.660,15.380,5.579,329.900,95.080,27.130,10.670,easy
2987.000,645.600,150.100,43.060,2588.000,548.000,110.500,28.540,224.600,55.660,15.370,5.570,329.000,94.820,27.230,10.670,easy
3002.000,643.400,151.300,43.500,2571.000,549.300,110.500,28.710,222.600,55.660,15.320,5.567,329.100,95.030,27.010,10.590,easy
2993.000,637.200,150.800,43.250,2577.000,548.300,110.200,28.570,223.300,55.650,15.310,5.574,328.400,95.250,27.110,10.650,easy
3009.000,642.100,151.500,43.520,2569.000,550.200,110.600,28.540,221.700,55.570,15.350,5.549,328.200,94.990,27.160,10.690,easy
2994.000,640.800,151.200,43.580,2570.000,547.800,110.300,28.640,222.900,55.350,15.360,5.573,329.600,95.050,27.270,10.670,easy
3007.000,645.700,152.000,43.340,2578.000,549.200,111.500,28.770,224.200,55.650,15.350,5.603,329.500,95.400,27.240,10.740,easy
3008.000,645.600,152.800,43.860,2593.000,548.700,110.700,28.730,223.200,55.480,15.430,5.573,331.500,95.400,27.360,10.750,easy
3005.000,646.900,151.100,43.750,2573.000,551.600,110.800,28.520,223.600,55.610,15.290,5.588,330.600,95.580,27.440,10.820,easy
3020.000,650.300,152.800,44.130,2591.000,548.500,110.900,28.760,223.800,55.770,15.370,5.586,330.000,95.690,27.220,10.680,easy
3022.000,642.600,151.000,43.280,2573.000,546.200,110.300,28.590,223.600,55.290,15.370,5.551,327.600,94.800,26.990,10.630,easy
2988.000,641.000,150.400,43.450,2583.000,545.100,111.300,28.560,222.500,55.340,15.270,5.545,327.200,94.940,27.020,10.600,easy
2992.000,637.700,151.000,43.580,2570.000,548.000,110.100,28.560,223.000,55.230,15.250,5.521,327.400,94.870,26.940,10.590,easy
3012.000,641.700,150.000,43.060,2579.000,550.000,110.200,28.600,221.400,55.200,15.220,5.518,326.400,94.840,26.910,10.600,easy
3009.000,640.100,150.200,43.470,2565.000,545.700,110.400,28.630,221.500,55.220,15.230,5.536,327.700,94.510,27.040,10.670,easy
3012.000,642.300,151.300,43.310,2568.000,549.000,111.000,28.600,223.100,55.250,15.260,5.540,328.300,94.960,27.190,10.690,easy
3023.000,644.400,152.100,43.640,2585.000,546.600,111.200,28.590,221.500,55.430,15.270,5.523,328.600,94.870,27.180,10.760,easy
3000.000,647.800,152.600,43.680,2575.000,549.600,111.100,28.560,223.900,55.180,15.260,5.552,328.000,94.720,27.180,10.750,easy
3031.000,647.600,152.900,44.220,2591.000,554.400,112.000,28.840,222.200,54.630,15.190,5.540,324.500,94.490,27.300,10.900,easy
3029.000,655.900,155.000,44.520,2596.000,557.500,112.500,28.970,220.800,54.020,15.260,5.549,321.300,94.360,27.570,10.960,easy
3034.000,656.900,155.600,44.880,2601.000,558.900,112.500,28.990,222.400,53.720,15.300,5.574,321.600,94.100,27.740,10.990,easy
3049.000,663.200,155.000,44.600,2589.000,556.300,112.600,28.850,221.100,53.530,15.220,5.534,319.700,93.240,27.490,10.840,easy
3001.000,653.400,153.500,43.860,2581.000,554.500,111.300,28.840,220.500,53.370,15.120,5.491,318.300,92.860,27.070,10.690,easy
3027.000,652.400,152.400,43.650,2581.000,552.300,111.300,28.600,220.700,53.060,15.050,5.470,318.500,92.550,26.920,10.600,easy
3013.000,646.200,152.200,43.470,2594.000,550.300,111.100,28.580,220.500,53.590,15.080,5.438,321.300,93.190,26.940,10.530,easy
3009.000,648.500,152.000,43.600,2576.000,551.100,111.400,28.700,221.000,54.090,14.990,5.447,322.900,93.290,26.780,10.570,easy
3012.000,644.800,151.600,43.850,2575.000,553.600,111.600,28.660,222.300,54.120,15.040,5.448,323.600,93.400,26.860,10.590,easy
3005.000,647.600,152.200,43.590,2580.000,554.200,110.700,28.860,221.100,54.250,15.060,5.460,323.600,93.980,26.900,10.630,easy
3032.000,647.000,153.300,44.010,2575.000,553.800,111.200,28.750,221.800,54.340,15.140,5.468,325.100,94.090,27.000,10.610,easy
3028.000,652.800,153.300,43.820,2571.000,554.700,112.000,28.650,223.000,54.570,15.040,5.476,325.200,94.210,27.040,10.670,easy
3030.000,649.900,154.700,44.240,2581.000,553.400,112.000,28.840,221.800,54.530,15.060,5.499,325.700,94.470,27.080,10.720,easy
3032.000,648.900,153.500,44.490,2594.000,554.300,112.000,28.800,222.800,54.680,15.120,5.510,326.800,94.580,27.230,10.730,easy
3027.000,652.900,153.000,44.560,2604.000,556.900,111.900,28.850,221.700,54.790,15.150,5.523,327.100,95.080,27.270,10.770,easy
3047.000,656.500,155.300,44.620,2597.000,556.000,111.300,28.830,222.500,55.010,15.220,5.523,327.700,95.210,27.290,10.740,easy
3032.000,650.400,152.600,43.950,2597.000,552.300,111.500,28.660,222.900,54.700,15.130,5.489,325.700,94.450,27.040,10.620,easy
3036.000,645.500,152.300,43.760,2578.000,554.600,111.400,28.760,221.100,54.840,15.130,5.485,325.800,94.070,26.820,10.560,easy
3009.000,649.100,153.000,43.770,2600.000,553.300,111.100,28.560,222.500,54.750,15.070,5.460,325.400,94.150,26.850,10.590,easy
3014.000,642.100,152.300,43.820,2592.000,551.400,111.000,28.650,221.600,54.880,15.100,5.478,324.200,93.880,26.810,10.560,easy
3002.000,649.400,152.900,43.660,2589.000,553.800,111.400,28.670,224.000,54.740,15.170,5.463,324.900,94.180,26.860,10.610,easy
3000.000,642.000,152.000,43.760,2584.000,552.000,111.800,28.640,222.500,54.890,15.140,5.479,325.700,93.910,26.910,10.610,easy
3019.000,643.700,151.800,43.940,2588.000,552.800,111.900,28.840,223.500,54.910,15.070,5.486,325.100,94.040,26.970,10.620,easy
3025.000,652.900,153.300,43.650,2586.000,554.000,112.000,28.770,224.000,54.820,15.160,5.485,325.300,94.190,27.030,10.700,easy
3029.000,645.800,152.200,44.280,2581.000,552.100,111.900,28.660,222.200,55.000,15.160,5.523,326.000,94.740,27.200,10.720,easy
3037.000,648.600,154.900,44.380,2593.000,554.200,112.000,28.870,223.200,54.950,15.160,5.503,326.800,94.730,27.190,10.740,easy
3034.000,652.400,154.100,44.150,2585.000,554.400,112.100,28.670,221.800,55.170,15.240,5.526,325.600,94.240,27.070,10.650,easy
3022.000,647.000,152.700,43.920,2594.000,552.000,111.400,28.560,222.800,55.020,15.170,5.498,325.200,93.960,26.860,10.610,easy
3029.000,642.500,151.500,43.460,2577.000,554.500,110.800,28.600,222.600,55.020,15.220,5.493,323.600,93.960,26.960,10.590,easy
3006.000,642.300,151.300,43.680,2593.000,551.600,110.700,28.770,222.600,54.900,15.150,5.477,325.200,93.800,26.830,10.570,easy
3001.000,641.400,151.000,43.570,2567.000,551.200,110.100,28.460,222.300,54.920,15.140,5.503,325.100,93.790,26.780,10.620,easy
3022.000,648.700,151.300,43.730,2577.000,550.200,111.400,28.720,221.000,55.090,15.160,5.510,324.200,94.040,26.850,10.630,easy
2995.000,645.700,151.700,43.740,2567.000,550.300,111.300,28.780,221.500,55.070,15.260,5.510,325.500,94.300,27.040,10.630,easy
3020.000,642.100,152.000,43.980,2580.000,552.500,111.500,28.710,223.700,55.260,15.190,5.522,326.200,94.190,26.930,10.660,easy
3016.000,643.200,153.000,43.890,2572.000,551.600,111.500,28.810,224.100,55.000,15.190,5.527,326.600,94.490,27.060,10.680,easy
3023.000,648.100,152.100,43.920,2565.000,556.600,112.200,28.750,223.100,55.230,15.220,5.542,326.200,94.710,27.230,10.800,easy
3004.000,646.000,153.500,44.220,2590.000,555.600,112.000,28.880,224.500,55.410,15.300,5.536,328.300,95.090,27.240,10.780,easy
3032.000,648.600,153.200,44.410,2581.000,553.900,111.200,28.820,223.400,55.350,15.280,5.531,328.900,94.880,27.370,10.820,easy
3033.000,651.300,153.700,44.350,2584.000,554.300,111.800,28.790,223.700,55.460,15.320,5.561,328.900,95.430,27.270,10.720,easy
3004.000,647.900,151.900,43.860,2582.000,553.200,111.200,28.690,222.800,55.260,15.260,5.516,326.300,94.400,26.980,10.690,easy
3007.000,643.400,151.000,43.560,2587.000,552.300,112.200,28.740,224.100,55.160,15.240,5.516,325.600,94.290,26.960,10.590,easy
2992.000,645.000,151.000,43.240,2590.000,554.100,111.600,28.750,221.900,55.220,15.240,5.527,324.900,93.940,26.980,10.580,easy
2992.000,645.600,151.700,43.630,2585.000,552.300,111.400,28.670,221.800,55.190,15.250,5.511,324.600,93.950,26.910,10.560,easy
3010.000,638.300,150.700,43.270,2560.000,553.700,112.000,28.890,224.600,55.320,15.240,5.495,325.500,93.750,27.010,10.600,easy
3007.000,645.500,150.900,43.290,2581.000,552.600,111.500,28.690,223.900,55.290,15.270,5.539,325.600,93.650,26.980,10.640,easy
3004.000,641.600,151.000,43.540,2574.000,553.800,111.300,28.800,223.700,55.190,15.250,5.542,325.600,94.070,27.030,10.620,easy
3000.000,638.900,151.900,43.890,2573.000,553.900,111.100,29.010,221.600,55.250,15.270,5.540,326.500,94.250,27.130,10.680,easy
2986.000,642.400,151.600,44.020,2589.000,554.100,111.600,28.820,224.900,55.280,15.230,5.518,326.600,94.280,27.100,10.690,easy
3000.000,646.900,151.300,43.890,2577.000,553.100,111.900,28.950,222.200,55.490,15.230,5.562,327.000,94.530,27.180,10.750,easy
3022.000,646.600,152.200,43.980,2578.000,555.700,112.600,28.790,223.000,55.120,15.290,5.562,326.400,94.900,27.190,10.730,easy
3007.000,648.600,152.800,44.120,2589.000,556.300,112.500,28.930,222.500,55.510,15.260,5.558,326.800,95.200,27.360,10.800,easy
3020.000,647.100,151.700,43.710,2582.000,551.400,111.800,28.960,224.900,55.130,15.250,5.548,326.200,94.010,27.040,10.590,easy
2987.000,643.200,150.400,43.530,2595.000,550.500,112.500,28.830,223.200,55.090,15.270,5.514,324.700,93.930,26.900,10.650,easy
3012.000,644.800,150.100,43.060,2573.000,553.900,111.300,28.820,222.100,55.010,15.160,5.556,324.400,93.600,26.730,10.540,easy
2993.000,639.400,149.200,43.360,2564.000,550.700,111.700,28.770,222.100,55.140,15.290,5.495,323.700,93.530,26.680,10.610,easy
2978.000,639.500,149.900,43.200,2573.000,553.200,112.100,28.730,223.000,55.110,15.220,5.530,325.100,93.640,26.740,10.510,easy
2984.000,638.200,149.700,43.190,2583.000,553.900,112.000,28.910,223.200,54.970,15.210,5.534,324.300,93.950,26.940,10.600,easy
2981.000,638.400,150.800,43.230,2582.000,551.700,112.000,29.020,221.800,54.940,15.220,5.545,323.700,94.160,26.900,10.610,easy
2985.000,637.600,150.300,43.320,2591.000,552.600,111.100,28.770,222.700,54.940,15.230,5.524,323.700,94.160,26.900,10.620,easy
2991.000,639.600,150.400,43.210,2575.000,552.400,111.700,28.890,222.400,55.070,15.230,5.533,325.300,94.050,27.080,10.680,easy
2996.000,641.000,151.100,43.370,2579.000,555.500,112.500,28.920,221.300,55.240,15.230,5.563,325.700,94.520,26.980,10.660,easy
2987.000,644.200,152.400,43.350,2591.000,554.600,112.200,29.120,223.300,55.290,15.270,5.563,326.500,94.930,27.180,10.730,easy
3011.000,644.100,151.700,43.640,2579.000,553.000,111.800,28.840,222.400,55.330,15.240,5.553,325.100,94.000,27.000,10.590,easy
2983.000,637.600,150.800,43.230,2590.000,555.000,112.500,28.890,222.900,55.120,15.270,5.549,324.700,93.520,26.780,10.540,easy
2985.000,639.500,150.400,42.960,2580.000,554.400,111.300,28.880,222.300,55.200,15.220,5.515,325.100,93.530,26.750,10.560,easy
2973.000,640.400,150.100,43.040,2599.000,554.000,112.000,28.780,222.300,55.020,15.240,5.531,325.200,93.880,26.810,10.550,easy
2982.000,637.600,149.100,42.820,2584.000,556.200,112.000,28.950,222.500,55.020,15.200,5.538,324.000,94.060,26.840,10.530,easy
2993.000,637.400,149.900,42.890,2591.000,552.900,111.700,29.130,222.800,55.050,15.260,5.532,324.600,93.560,26.920,10.570,easy
2979.000,637.800,151.000,43.190,2586.000,552.400,112.400,29.040,221.800,55.080,15.230,5.571,325.000,94.110,26.840,10.610,easy
2979.000,642.700,151.000,43.410,2594.000,557.200,112.900,29.080,221.700,55.320,15.200,5.535,325.200,93.980,26.970,10.610,easy
2984.000,642.800,151.100,43.590,2597.000,555.100,113.000,29.180,223.700,55.160,15.320,5.564,325.600,94.040,27.120,10.660,easy
2987.000,647.900,151.900,43.650,2590.000,553.800,112.800,29.110,222.100,55.220,15.280,5.552,325.600,94.440,26.980,10.710,easy
3004.000,646.200,151.400,43.620,2592.000,555.400,112.400,29.180,223.100,55.380,15.310,5.579,327.900,94.560,27.260,10.740,easy
2998.000,642.800,151.700,43.750,2590.000,558.300,113.100,29.240,223.100,55.260,15.290,5.589,327.900,94.580,27.380,10.800,easy
3027.000,647.200,152.000,43.860,2603.000,558.300,112.900,29.190,221.800,55.430,15.290,5.576,327.500,94.900,27.240,10.790,easy
3003.000,643.800,151.600,43.400,2580.000,556.000,113.000,29.000,222.800,55.370,15.290,5.575,325.600,93.910,26.890,10.620,easy
3000.000,641.700,150.300,42.730,2598.000,552.200,112.400,29.120,222.000,55.310,15.260,5.562,325.400,94.030,26.750,10.560,easy
2954.000,641.300,149.600,43.120,2588.000,557.200,112.400,29.030,220.800,55.320,15.280,5.585,325.300,93.720,26.820,10.620,easy
2985.000,635.000,149.700,42.740,2587.000,558.200,111.800,29.080,222.400,55.150,15.320,5.538,325.200,93.760,26.780,10.580,easy
2982.000,639.900,150.800,43.180,2591.000,558.100,111.800,29.170,222.400,55.300,15.290,5.566,325.400,94.420,26.790,10.550,easy
2983.000,638.700,150.800,43.340,2598.000,554.900,112.800,29.050,222.400,55.270,15.250,5.571,325.000,93.780,26.900,10.630,easy
2987.000,644.200,149.700,43.390,2612.000,557.100,113.200,29.160,222.600,55.140,15.320,5.555,325.200,94.310,26.860,10.630,easy
2993.000,640.600,151.000,43.390,2604.000,558.400,112.800,29.100,222.700,55.300,15.260,5.575,325.800,93.890,27.030,10.650,easy
3016.000,643.900,152.000,43.590,2608.000,555.800,113.500,29.290,223.200,55.460,15.260,5.567,326.400,94.500,27.000,10.680,easy
3011.000,643.800,151.600,43.920,2606.000,558.600,113.000,29.300,222.700,55.260,15.290,5.554,326.200,94.380,27.140,10.730,easy
3019.000,649.100,153.300,43.810,2611.000,558.200,113.300,29.410,223.700,55.480,15.290,5.559,327.300,94.620,27.170,10.730,easy
3040.000,649.500,152.900,44.000,2604.000,556.000,113.700,29.240,224.000,55.360,15.290,5.567,327.700,94.990,27.350,10.810,easy
