A-DC1,A-DC2,A-DC3,A-DC4,A-DC5,A-DC6,A-DC7,A-DC8,B-DC1,B-DC2,B-DC3,B-DC4,B-DC5,B-DC6,B-DC7,B-DC8,condition
1497.000,342.100,81.980,20.280,2161.000,479.400,119.600,28.220,264.900,60.810,16.200,5.083,388.000,86.870,22.840,7.666,baseline
1521.000,343.200,82.950,20.460,2184.000,482.300,120.700,28.420,267.100,61.070,16.310,5.121,390.400,88.420,23.010,7.743,baseline
1532.000,344.900,82.280,20.400,2184.000,481.100,120.200,28.380,267.800,61.400,16.350,5.083,386.600,87.010,22.470,7.482,baseline
1518.000,340.400,82.320,20.140,2180.000,477.400,120.000,28.520,266.600,60.800,16.060,5.030,383.700,85.880,22.080,7.420,baseline
1498.000,341.300,83.220,20.100,2179.000,478.800,120.000,28.200,264.900,60.580,16.100,5.056,381.900,85.380,21.920,7.418,baseline
1514.000,344.400,81.800,20.100,2192.000,480.200,120.000,28.420,266.200,60.830,16.080,5.044,384.100,85.630,22.060,7.395,baseline
1513.000,340.700,81.950,20.260,2188.000,482.100,120.700,28.380,267.000,60.770,16.050,5.032,383.800,85.860,22.020,7.392,baseline
1506.000,341.500,82.580,20.160,2180.000,480.800,121.000,28.550,268.100,60.850,16.080,5.027,384.600,86.070,22.240,7.474,baseline
1526.000,347.000,83.220,20.320,2200.000,482.000,120.200,28.520,268.500,60.840,16.180,5.066,385.600,86.350,22.180,7.520,baseline
1515.000,342.100,82.640,20.530,2196.000,482.500,120.500,28.630,269.000,60.960,16.160,5.066,387.200,86.860,22.380,7.565,baseline
1539.000,343.000,83.360,20.360,2208.000,481.900,121.000,28.570,267.600,61.300,16.290,5.066,388.200,87.340,22.650,7.576,baseline
1537.000,342.500,83.320,20.600,2206.000,480.200,121.000,28.550,269.700,61.790,16.280,5.096,390.500,87.700,22.780,7.669,baseline
1542.000,345.900,84.090,20.600,2198.000,482.300,120.900,28.530,272.300,61.950,16.350,5.131,394.000,88.920,23.090,7.841,baseline
1542.000,347.900,84.330,20.820,2210.000,483.200,120.600,28.530,270.300,62.200,16.350,5.178,396.400,89.090,23.300,7.863,baseline
1567.000,352.300,84.770,20.790,2216.000,486.500,120.900,28.480,271.300,62.490,16.590,5.220,400.200,90.190,23.580,7.905,baseline
1568.000,351.600,85.040,20.820,2208.000,484.300,120.000,28.170,272.200,62.340,16.550,5.165,395.200,88.880,22.840,7.738,baseline
1554.000,350.500,84.150,20.550,2196.000,483.900,120.300,28.440,273.500,61.850,16.410,5.153,392.800,88.600,22.880,7.705,baseline
1543.000,349.300,84.150,20.460,2204.000,484.800,120.600,28.370,269.100,61.730,16.490,5.110,392.300,88.360,22.760,7.707,baseline
1552.000,348.900,84.060,20.700,2211.000,486.400,120.400,28.260,270.800,62.080,16.400,5.162,393.400,88.610,22.930,7.776,baseline
1560.000,352.600,83.970,20.690,2209.000,485.900,120.000,28.260,273.200,62.660,16.630,5.232,395.800,89.460,23.080,7.809,baseline
1565.000,354.700,84.660,20.860,2222.000,487.600,120.500,28.540,274.800,62.890,16.700,5.290,396.300,90.340,23.320,7.915,baseline
1572.000,354.400,85.840,21.050,2228.000,490.900,121.500,28.650,275.100,62.970,16.730,5.264,397.900,89.820,23.490,7.917,baseline
1579.000,359.200,86.260,21.000,2254.000,495.000,121.800,28.800,272.000,62.950,16.750,5.247,398.500,90.410,23.380,7.963,baseline
1607.000,361.300,86.350,21.210,2249.000,494.800,122.100,28.690,274.800,63.170,16.750,5.283,400.400,91.130,23.710,8.061,baseline
1596.000,364.000,86.800,21.230,2253.000,495.400,122.100,28.980,272.900,63.050,16.810,5.317,403.700,92.350,24.040,8.111,baseline
1612.000,367.900,87.510,21.800,2257.000,501.700,122.500,28.780,277.000,63.670,16.960,5.339,405.400,92.790,24.120,8.165,baseline
1632.000,370.700,87.510,21.620,2269.000,500.800,121.500,28.670,276.200,63.290,16.810,5.321,402.700,91.070,23.510,7.958,baseline
1625.000,368.400,86.800,21.520,2249.000,500.000,122.800,28.690,274.300,63.130,16.720,5.271,398.300,90.480,23.370,7.946,baseline
1615.000,366.800,86.940,21.270,2265.000,502.900,121.900,28.850,271.900,62.700,16.690,5.312,399.400,90.040,23.220,7.920,baseline
1608.000,369.400,86.120,21.500,2261.000,500.000,122.400,28.870,273.000,62.690,16.660,5.255,397.400,89.910,23.060,7.858,baseline
1624.000,364.100,86.830,21.400,2262.000,502.900,121.900,28.840,272.800,63.140,16.690,5.258,401.100,90.140,23.280,7.947,baseline
1593.000,364.100,86.120,21.360,2247.000,496.500,120.900,28.570,272.300,63.360,16.790,5.299,401.500,90.950,23.360,7.990,baseline
1600.000,360.400,85.660,21.240,2273.000,492.900,120.800,28.470,272.400,63.710,16.970,5.393,406.700,92.680,23.940,8.149,baseline
1596.000,360.500,84.840,21.220,2235.000,490.600,120.400,28.370,277.500,64.370,17.200,5.423,410.100,93.540,24.140,8.189,baseline
1586.000,357.700,85.530,21.220,2245.000,486.400,119.600,28.360,279.300,64.660,17.170,5.427,411.400,94.070,24.240,8.241,baseline
1591.000,359.200,85.310,21.370,2236.000,486.000,119.700,28.610,275.400,64.730,17.290,5.466,413.900,93.920,24.670,8.253,baseline
1605.000,366.000,87.180,21.550,2260.000,498.500,122.500,29.280,276.400,64.410,17.110,5.366,411.900,93.660,24.260,8.254,baseline
1638.000,372.100,90.420,21.900,2302.000,509.300,126.000,29.590,275.000,63.540,16.800,5.219,405.800,91.970,23.670,7.946,baseline
1632.000,372.200,89.080,21.540,2287.000,504.300,126.000,29.480,272.400,62.330,16.380,5.084,399.900,89.660,22.950,7.664,baseline
1628.000,367.800,87.830,21.260,2272.000,501.000,124.400,29.230,268.900,61.060,16.060,5.006,395.000,87.560,22.470,7.503,baseline
1607.000,367.000,86.890,21.120,2281.000,504.800,125.300,29.120,265.300,60.810,16.020,4.928,392.000,87.170,22.100,7.424,baseline
1601.000,362.900,86.800,21.080,2264.000,496.900,124.000,29.200,265.400,60.230,15.960,4.916,389.700,85.630,22.090,7.372,baseline
1595.000,359.500,87.480,21.010,2259.000,498.600,124.300,29.100,262.200,59.870,15.880,4.887,387.100,85.510,21.970,7.408,baseline
1606.000,362.300,86.600,20.890,2244.000,498.800,124.500,29.120,262.800,59.380,15.820,4.904,385.600,84.840,22.050,7.398,baseline
1598.000,362.600,86.560,21.090,2262.000,497.500,123.600,28.990,262.100,59.370,15.790,4.876,386.500,85.350,21.990,7.389,baseline
1597.000,361.500,86.620,21.090,2245.000,491.900,122.100,28.810,260.700,59.290,15.830,4.906,387.100,86.030,22.220,7.564,baseline
1593.000,359.200,86.030,20.900,2225.000,493.000,121.700,28.510,260.500,59.770,15.970,4.998,389.500,87.140,22.650,7.689,baseline
1602.000,359.600,86.800,21.170,2254.000,494.600,122.200,28.760,263.200,60.080,16.150,5.063,394.200,87.990,22.970,7.819,baseline
1603.000,364.200,87.800,21.570,2243.000,496.600,123.400,28.960,265.100,60.620,16.160,5.115,394.100,88.710,23.260,7.882,baseline
1615.000,367.400,87.700,21.690,2263.000,497.100,123.700,29.030,266.800,60.840,16.220,5.108,396.900,89.510,23.430,7.961,baseline
1618.000,364.700,87.860,21.620,2269.000,495.700,123.300,28.880,267.100,60.680,16.160,5.117,396.500,88.160,22.890,7.737,baseline
1621.000,363.500,86.970,21.230,2244.000,494.000,122.800,28.970,266.100,59.960,15.960,5.062,389.700,87.070,22.510,7.640,baseline
1590.000,361.500,85.990,21.120,2239.000,490.800,122.400,28.740,265.000,59.890,15.850,5.005,387.900,86.240,22.240,7.535,baseline
1586.000,357.700,85.620,20.990,2244.000,491.600,122.800,28.800,265.600,59.580,15.830,4.976,386.600,85.850,22.170,7.518,baseline
1583.000,359.500,85.880,21.070,2234.000,489.500,122.500,28.800,261.200,59.320,15.680,4.949,384.600,85.380,22.190,7.482,baseline
1578.000,357.800,86.280,20.860,2231.000,491.200,122.100,28.750,264.500,58.920,15.740,4.915,384.800,85.420,21.960,7.444,baseline
1579.000,355.400,86.060,20.940,2223.000,485.400,121.500,28.640,263.700,59.160,15.730,4.933,383.700,85.840,22.220,7.513,baseline
1583.000,356.600,86.240,21.180,2235.000,487.300,122.000,28.600,264.100,59.420,15.750,5.012,383.000,86.550,22.250,7.628,baseline
1589.000,356.500,85.910,21.280,2229.000,485.300,121.700,28.710,261.300,59.380,15.810,5.002,384.000,86.270,22.290,7.636,baseline
1590.000,355.800,85.790,21.220,2219.000,483.800,121.800,28.660,263.000,59.300,15.800,5.012,385.200,86.450,22.390,7.684,baseline
1576.000,355.900,86.160,21.170,2212.000,482.200,122.200,28.750,263.300,59.510,15.800,4.996,386.600,87.310,22.550,7.754,baseline
1585.000,351.000,86.060,21.110,2212.000,482.800,120.900,28.540,262.800,59.640,15.740,4.996,386.000,86.090,22.340,7.561,baseline
1568.000,350.000,85.410,20.720,2202.000,479.100,121.100,28.390,261.800,58.880,15.580,4.914,380.400,85.200,21.850,7.543,baseline
1552.000,347.100,84.400,20.640,2199.000,475.600,120.300,28.380,260.000,58.790,15.540,4.907,378.300,84.570,21.670,7.398,baseline
1555.000,344.700,84.620,20.530,2194.000,474.400,120.200,28.370,257.900,58.620,15.540,4.923,377.500,84.450,21.740,7.405,baseline
1538.000,345.600,84.100,20.460,2186.000,476.800,119.300,28.220,259.500,58.260,15.380,4.921,377.500,83.920,21.560,7.366,baseline
1535.000,345.800,83.750,20.560,2180.000,475.100,120.100,28.270,260.100,58.050,15.440,4.889,375.300,83.810,21.690,7.407,baseline
1541.000,345.900,83.670,20.620,2167.000,472.300,120.000,28.210,259.500,58.040,15.430,4.891,375.300,84.360,21.770,7.373,baseline
1538.000,342.400,84.710,20.630,2165.000,472.100,120.200,28.170,256.800,58.260,15.400,4.867,374.600,84.050,21.690,7.423,baseline
1529.000,340.300,83.680,20.540,2161.000,470.400,119.100,28.100,258.300,58.130,15.400,4.873,377.400,84.010,21.870,7.471,baseline
1523.000,342.400,83.990,20.510,2159.000,469.000,119.600,28.080,257.800,58.020,15.340,4.906,378.000,84.450,21.890,7.506,baseline
1522.000,343.100,83.740,20.590,2160.000,471.100,119.200,28.040,256.400,58.100,15.460,4.889,378.400,85.020,21.970,7.485,baseline
1513.000,341.200,83.660,20.370,2140.000,464.200,117.900,27.740,257.700,58.010,15.380,4.830,375.200,83.920,21.560,7.245,baseline
1497.000,334.100,82.150,20.100,2124.000,465.300,117.700,27.750,256.900,57.510,15.230,4.836,370.500,82.590,21.300,7.260,baseline
1495.000,334.800,81.820,19.980,2119.000,462.400,116.600,27.570,254.800,57.200,15.110,4.783,370.100,81.950,21.090,7.202,baseline
1484.000,331.300,81.530,19.940,2113.000,459.700,116.800,27.440,255.600,57.220,15.120,4.782,368.800,81.680,21.110,7.150,baseline
1461.000,334.600,81.780,19.850,2110.000,462.200,116.200,27.470,252.700,56.860,15.070,4.753,367.600,81.840,21.090,7.178,baseline
1482.000,330.600,81.200,19.760,2087.000,457.800,116.800,27.420,252.200,57.010,15.050,4.768,368.000,81.790,21.180,7.150,baseline
1474.000,331.200,80.490,19.970,2100.000,458.100,116.300,27.320,255.100,56.880,15.090,4.772,367.700,81.770,21.120,7.205,baseline
1465.000,329.200,81.100,19.770,2089.000,457.600,116.100,27.370,253.600,56.870,15.090,4.752,368.500,82.000,21.180,7.227,baseline
1462.000,327.100,81.520,19.830,2097.000,455.100,116.400,27.510,252.500,56.710,15.070,4.755,368.900,82.310,21.350,7.293,baseline
1459.000,330.700,80.850,20.060,2094.000,453.700,116.400,27.360,252.700,56.910,15.130,4.780,370.200,82.420,21.530,7.295,baseline
1465.000,330.100,81.570,19.850,2082.000,455.500,115.900,27.310,253.300,57.330,15.130,4.776,371.900,83.320,21.640,7.371,baseline
1464.000,331.800,81.490,19.910,2090.000,453.600,116.100,27.370,256.900,57.220,15.210,4.796,373.700,83.270,21.740,7.392,baseline
1455.000,329.500,80.920,19.840,2080.000,450.100,114.900,27.000,254.300,57.260,15.250,4.792,371.200,82.610,21.260,7.281,baseline
1448.000,325.700,80.050,19.580,2049.000,450.800,114.700,27.030,253.700,56.810,15.040,4.779,368.700,81.520,20.980,7.184,baseline
1435.000,322.600,79.500,19.320,2045.000,447.900,114.200,26.830,252.100,56.490,14.910,4.728,366.000,81.270,20.970,7.177,baseline
1427.000,324.100,79.390,19.480,2040.000,446.100,114.600,26.750,253.000,56.570,14.910,4.744,366.800,81.220,20.900,7.103,baseline
1412.000,319.500,79.320,19.550,2044.000,446.400,113.900,26.840,250.400,56.420,14.900,4.691,364.700,80.900,20.890,7.124,baseline
1409.000,320.400,78.960,19.390,2029.000,444.800,113.700,26.710,251.900,56.370,14.890,4.722,364.600,81.240,20.940,7.094,baseline
1421.000,321.500,78.800,19.280,2023.000,443.600,113.700,26.620,251.700,56.410,14.900,4.734,367.600,81.460,21.060,7.128,baseline
1410.000,321.400,79.790,19.420,2036.000,441.700,113.400,26.820,253.100,56.340,14.930,4.755,367.800,81.420,21.060,7.196,baseline
1433.000,321.700,79.240,19.390,2037.000,442.000,113.200,26.650,251.300,56.500,14.960,4.741,367.300,81.260,21.250,7.184,baseline
1415.000,320.200,78.760,19.470,2030.000,443.500,113.000,26.630,253.000,56.380,14.960,4.757,370.600,81.950,21.160,7.313,baseline
1423.000,319.400,79.320,19.540,2023.000,443.100,113.700,26.780,254.800,56.650,15.060,4.736,370.400,82.640,21.360,7.244,baseline
1421.000,321.200,78.660,19.200,2033.000,443.100,112.500,26.530,256.100,56.490,14.960,4.720,369.900,81.480,20.960,7.115,baseline
1393.000,318.100,77.990,19.010,1999.000,439.800,112.500,26.280,250.900,55.930,14.940,4.695,367.000,81.060,20.910,7.055,baseline
1383.000,318.600,78.290,18.970,2009.000,439.300,111.700,26.360,251.300,55.760,14.810,4.660,367.300,80.440,20.760,7.023,baseline
1393.000,314.800,77.620,18.990,2001.000,438.000,111.800,26.310,251.900,56.000,14.850,4.666,367.800,80.440,20.710,7.046,baseline
1403.000,312.800,77.320,18.920,2004.000,436.000,112.000,26.270,251.200,55.720,14.790,4.637,367.500,80.740,20.780,7.043,baseline
1392.000,316.500,77.860,18.990,2008.000,433.000,112.200,26.450,249.600,55.880,14.830,4.662,369.100,81.010,20.940,7.106,baseline
1391.000,316.700,78.050,19.140,2004.000,439.600,112.100,26.400,252.500,55.940,14.850,4.666,371.300,81.500,21.060,7.193,baseline
1397.000,315.600,77.480,19.040,2006.000,437.700,112.000,26.370,252.300,56.250,14.980,4.673,373.000,82.010,21.240,7.183,baseline
1396.000,314.200,77.730,19.100,1999.000,438.700,111.800,26.260,251.400,56.230,14.930,4.668,374.700,82.520,21.250,7.259,baseline
1394.000,316.800,77.980,19.420,2009.000,439.700,111.800,26.360,255.100,56.390,15.070,4.717,376.800,82.620,21.590,7.292,baseline
1403.000,317.300,78.660,19.360,1998.000,435.800,111.200,26.360,252.900,56.380,15.110,4.723,375.600,82.630,21.290,7.201,baseline
1394.000,314.500,77.490,18.980,2001.000,435.700,110.900,26.270,253.500,56.060,14.980,4.665,373.300,81.660,21.120,7.174,baseline
1390.000,318.400,77.520,18.810,1986.000,437.700,111.600,26.190,255.000,56.110,15.010,4.650,372.900,81.470,21.140,7.104,baseline
1389.000,314.300,76.930,19.050,1995.000,434.600,111.300,26.110,253.200,56.190,14.950,4.681,373.000,81.890,21.080,7.123,baseline
1404.000,315.600,77.500,19.070,1989.000,434.900,111.100,26.240,255.800,55.800,14.980,4.697,373.600,81.750,21.060,7.143,baseline
1393.000,313.300,77.020,18.980,1991.000,435.900,111.400,26.370,257.100,56.270,15.030,4.642,374.200,82.400,21.190,7.218,baseline
1397.000,314.400,77.800,19.150,1992.000,435.400,111.200,26.470,256.600,56.270,15.050,4.699,375.400,82.610,21.300,7.227,baseline
1385.000,314.200,78.150,19.270,1987.000,437.500,111.700,26.470,256.000,56.270,15.060,4.670,378.100,82.880,21.420,7.248,baseline
1402.000,315.700,78.440,19.220,2000.000,437.600,111.200,26.480,255.900,56.240,15.090,4.668,379.000,83.180,21.470,7.276,baseline
1397.000,316.400,78.750,19.280,1984.000,438.500,111.700,26.390,258.700,56.450,15.120,4.700,380.600,83.850,21.720,7.294,baseline
1403.000,316.600,77.810,19.190,1996.000,436.200,111.700,26.150,257.500,56.700,15.200,4.680,380.600,83.130,21.350,7.225,baseline
1381.000,315.500,77.960,19.020,1978.000,435.200,111.400,26.230,256.700,56.460,15.010,4.664,378.600,82.240,21.270,7.133,baseline
1389.000,315.700,77.580,18.780,1980.000,433.700,110.900,26.190,257.000,56.140,15.060,4.642,380.300,82.410,21.190,7.117,baseline
1380.000,313.800,77.690,18.950,1978.000,434.200,110.800,26.160,256.800,56.390,15.080,4.611,378.800,82.410,21.160,7.111,baseline
1376.000,314.300,77.210,19.020,1972.000,435.100,110.800,26.120,259.000,56.180,15.000,4.658,377.800,82.230,21.230,7.195,baseline
1379.000,311.100,77.110,18.900,1974.000,432.400,110.200,26.180,257.500,56.380,15.040,4.633,379.000,82.880,21.460,7.117,baseline
1392.000,317.400,77.720,19.020,1973.000,435.200,110.000,26.240,257.000,56.470,15.150,4.657,381.100,83.080,21.450,7.199,baseline
1380.000,314.500,77.510,19.130,1980.000,435.700,110.800,26.140,256.900,56.680,15.100,4.673,382.400,83.420,21.500,7.273,baseline
1388.000,315.600,78.190,19.160,1985.000,434.900,111.600,26.300,259.300,56.820,15.260,4.687,383.800,84.090,21.560,7.226,baseline
1385.000,318.600,78.650,19.230,1981.000,437.100,111.700,26.340,259.200,56.900,15.240,4.691,385.200,84.090,21.650,7.358,baseline
1402.000,319.200,78.230,19.370,1987.000,436.700,112.000,26.280,255.900,56.880,15.210,4.709,388.000,84.660,22.080,7.353,baseline
1412.000,320.800,79.230,19.160,1993.000,439.400,111.500,26.340,259.600,57.190,15.320,4.692,386.800,84.460,21.520,7.218,baseline
1386.000,315.600,77.450,19.080,1974.000,439.300,110.500,26.140,257.900,56.880,15.130,4.626,383.900,83.660,21.510,7.155,baseline
1390.000,315.800,76.780,18.980,1979.000,432.000,110.500,26.250,260.500,56.910,15.100,4.645,382.000,82.860,21.240,7.057,baseline
1390.000,316.500,77.340,19.040,1974.000,433.400,111.000,26.110,258.400,56.730,15.180,4.651,382.300,82.990,21.300,7.082,baseline
1384.000,316.100,76.630,18.750,1974.000,434.200,111.300,26.120,258.900,56.790,15.190,4.654,381.900,82.980,21.240,7.092,baseline
1373.000,316.600,77.070,18.950,1969.000,433.200,111.000,26.220,260.400,56.850,15.120,4.675,383.300,83.300,21.310,7.171,baseline
1379.000,314.800,77.570,18.880,1977.000,435.200,111.200,26.180,259.100,56.970,15.170,4.668,381.900,83.680,21.390,7.215,baseline
1386.000,314.300,78.660,19.020,1977.000,434.900,111.000,26.260,259.100,57.020,15.150,4.671,383.800,83.630,21.360,7.206,baseline
1385.000,315.700,77.600,19.070,1971.000,435.600,112.100,26.260,257.900,56.950,15.190,4.695,385.900,84.130,21.580,7.193,baseline
1383.000,316.100,78.300,19.110,1984.000,434.400,112.300,26.370,261.100,57.010,15.180,4.695,386.200,84.140,21.720,7.286,baseline
1393.000,319.500,78.520,19.230,1991.000,435.700,111.100,26.290,262.200,57.330,15.230,4.687,385.800,84.800,21.730,7.271,baseline
1397.000,320.200,78.910,19.350,1978.000,437.800,111.300,26.500,257.100,57.630,15.310,4.722,387.600,85.000,21.840,7.360,baseline
1397.000,319.300,78.310,19.330,1983.000,438.500,112.300,26.360,261.300,57.630,15.310,4.735,388.900,85.490,22.170,7.361,baseline
1404.000,321.800,78.610,19.340,1999.000,439.100,111.300,26.250,261.800,57.750,15.310,4.734,388.000,84.930,21.700,7.271,baseline
1398.000,317.800,77.570,19.120,1966.000,435.800,110.100,26.220,261.300,57.360,15.270,4.686,384.700,84.080,21.520,7.157,baseline
1384.000,315.700,77.140,18.890,1958.000,434.200,110.700,26.070,262.300,57.170,15.140,4.670,383.600,83.130,21.300,7.135,baseline
1385.000,314.500,77.790,19.010,1961.000,434.600,110.300,26.100,256.200,56.960,15.140,4.683,381.700,83.150,21.390,7.120,baseline
1373.000,314.500,76.880,18.840,1965.000,436.400,110.800,26.140,257.200,57.010,15.140,4.645,381.600,83.330,21.360,7.106,baseline
1375.000,315.300,77.040,18.800,1974.000,434.300,110.300,26.170,259.800,56.790,15.160,4.670,382.000,83.160,21.270,7.121,baseline
1377.000,315.700,76.560,18.830,1964.000,436.500,110.500,26.240,259.900,56.880,15.180,4.648,381.300,83.400,21.360,7.133,baseline
1381.000,316.200,77.140,18.920,1967.000,434.800,110.400,26.140,258.800,56.880,15.120,4.670,380.900,83.410,21.410,7.176,baseline
1382.000,312.300,77.770,18.880,1972.000,433.100,111.200,26.250,255.700,57.050,15.180,4.689,381.700,83.690,21.550,7.176,baseline
1396.000,316.800,78.180,19.160,1964.000,435.200,110.200,26.190,258.100,57.180,15.150,4.662,383.000,83.880,21.500,7.244,baseline
1393.000,318.900,77.630,19.110,1973.000,435.500,110.500,26.220,258.400,57.150,15.270,4.740,383.700,84.070,21.760,7.247,baseline
1386.000,317.200,77.850,19.210,1970.000,435.200,110.700,26.270,256.200,57.270,15.270,4.728,385.400,84.420,21.730,7.300,baseline
1402.000,314.900,78.360,19.340,1960.000,434.700,110.900,26.290,259.000,57.340,15.260,4.741,386.800,85.150,22.010,7.404,baseline
1402.000,318.300,78.870,19.290,1965.000,434.800,111.100,26.130,258.100,57.650,15.330,4.756,387.200,84.740,21.860,7.304,baseline
1386.000,314.600,77.590,19.080,1958.000,433.700,110.200,26.180,258.000,57.010,15.220,4.703,383.900,83.920,21.720,7.208,baseline
1377.000,313.900,77.290,18.960,1958.000,431.900,110.600,26.010,258.200,57.040,15.200,4.707,382.200,83.830,21.390,7.197,baseline
1375.000,315.800,77.130,18.800,1953.000,432.100,110.600,25.900,257.800,57.090,15.170,4.725,379.900,83.250,21.390,7.189,baseline
1375.000,315.000,77.020,18.960,1946.000,433.200,109.800,25.840,256.300,57.100,15.170,4.687,380.900,83.430,21.320,7.188,baseline
1371.000,312.300,76.510,18.870,1949.000,429.800,110.300,26.010,255.600,56.870,15.070,4.702,379.800,83.000,21.360,7.167,baseline
1379.000,315.200,77.820,18.860,1958.000,432.200,109.800,26.050,258.200,56.870,15.150,4.683,380.600,83.370,21.630,7.174,baseline
1384.000,314.300,77.470,18.990,1952.000,430.100,110.800,25.980,257.900,56.980,15.290,4.703,379.600,84.090,21.560,7.218,baseline
1386.000,313.100,77.010,18.910,1947.000,430.800,109.600,25.950,255.300,57.070,15.220,4.696,381.300,83.520,21.570,7.237,baseline
1390.000,314.600,77.390,19.080,1952.000,431.600,110.100,26.210,258.800,57.160,15.300,4.726,382.500,84.050,21.760,7.320,baseline
1378.000,315.200,78.150,19.180,1954.000,434.800,110.500,26.080,258.200,57.230,15.230,4.683,383.300,84.520,21.870,7.382,baseline
1401.000,315.900,77.500,19.110,1947.000,435.100,109.900,26.000,260.600,57.330,15.320,4.707,384.000,84.410,21.810,7.273,baseline
1378.000,317.300,76.860,18.870,1950.000,430.800,110.000,25.910,257.900,56.920,15.240,4.703,380.500,83.640,21.570,7.166,baseline
1381.000,316.800,77.310,18.880,1955.000,428.500,109.500,25.820,258.100,56.680,15.100,4.689,379.400,82.980,21.260,7.136,baseline
1367.000,312.900,76.430,18.970,1953.000,428.100,109.500,25.900,254.500,56.720,15.130,4.672,378.400,82.940,21.310,7.157,baseline
1385.000,312.400,77.080,18.730,1947.000,428.600,109.800,25.890,255.200,56.630,15.160,4.619,377.200,82.880,21.310,7.136,baseline
1389.000,313.700,77.580,18.750,1939.000,429.000,109.600,25.760,255.100,56.540,15.150,4.694,378.500,82.960,21.490,7.110,baseline
1384.000,313.500,77.240,18.950,1956.000,432.100,110.400,25.960,257.000,56.650,15.230,4.655,379.100,82.870,21.400,7.215,baseline
1380.000,315.200,76.350,18.840,1938.000,432.200,110.000,25.970,255.900,57.000,15.200,4.681,380.500,83.300,21.570,7.255,baseline
1385.000,317.800,77.080,19.100,1965.000,432.000,110.200,25.930,258.900,57.050,15.200,4.685,380.300,83.950,21.750,7.309,baseline
1388.000,316.900,77.840,19.100,1958.000,432.000,110.400,25.830,257.200,57.170,15.210,4.702,381.500,84.330,21.850,7.344,baseline
1391.000,319.400,77.380,19.130,1955.000,431.100,109.600,25.710,257.700,56.870,15.300,4.701,381.000,83.680,21.700,7.257,baseline
1396.000,317.200,76.980,18.920,1953.000,431.500,109.900,25.790,256.200,56.660,15.170,4.665,379.000,83.250,21.550,7.172,baseline
1385.000,315.800,77.300,19.030,1953.000,432.200,109.600,25.790,256.700,56.730,15.190,4.675,377.700,83.000,21.400,7.183,baseline
1374.000,315.800,76.860,18.910,1947.000,430.400,109.500,25.930,254.200,56.790,15.130,4.666,379.100,82.670,21.480,7.152,baseline
1385.000,313.900,77.610,18.850,1948.000,429.700,109.700,25.760,255.000,56.690,15.140,4.686,378.400,83.690,21.470,7.167,baseline
1376.000,316.800,77.270,19.040,1955.000,431.700,109.400,25.860,256.900,56.820,15.080,4.696,379.900,83.570,21.450,7.233,baseline
1389.000,316.500,77.800,19.100,1952.000,431.000,109.900,25.960,256.100,56.960,15.180,4.707,379.000,83.890,21.630,7.267,baseline
1396.000,315.500,77.730,19.160,1954.000,433.800,109.900,26.000,256.200,56.760,15.270,4.701,380.100,83.760,21.680,7.294,baseline
1398.000,315.800,77.990,19.340,1961.000,435.500,110.300,25.970,256.000,56.950,15.320,4.727,382.400,84.170,21.960,7.341,baseline
1406.000,320.100,78.570,19.230,1955.000,433.400,110.000,25.970,260.200,57.150,15.320,4.723,382.100,83.810,21.740,7.215,baseline
1395.000,318.500,77.500,18.990,1952.000,431.300,110.000,25.830,259.500,56.790,15.280,4.690,378.900,82.900,21.480,7.210,baseline
1379.000,316.100,78.010,18.900,1948.000,431.300,110.100,25.840,257.300,56.650,15.200,4.691,378.700,83.390,21.450,7.190,baseline
1392.000,316.700,77.290,19.020,1945.000,432.300,109.900,25.860,254.900,56.930,15.160,4.700,378.700,82.760,21.290,7.158,baseline
1393.000,315.900,77.840,18.950,1947.000,431.400,109.700,25.970,254.200,56.850,15.180,4.691,377.400,82.970,21.430,7.140,baseline
1386.000,316.900,77.440,19.010,1956.000,433.800,110.400,25.940,256.600,56.720,15.110,4.695,377.700,83.390,21.410,7.209,baseline
1389.000,317.000,77.860,19.030,1953.000,431.700,110.700,25.940,257.700,56.860,15.220,4.681,380.200,83.540,21.510,7.232,baseline
1404.000,319.400,78.760,19.200,1956.000,434.100,110.200,25.960,258.500,56.940,15.240,4.696,381.200,83.670,21.620,7.263,baseline
1403.000,319.000,78.390,19.310,1963.000,432.900,110.200,25.980,260.700,57.090,15.250,4.743,382.000,84.310,21.870,7.305,baseline
1409.000,320.900,78.390,19.390,1960.000,433.800,110.500,25.950,259.400,57.380,15.360,4.748,382.800,84.550,21.910,7.292,baseline
1405.000,319.600,78.400,19.030,1964.000,432.700,109.900,25.850,258.700,57.310,15.220,4.700,381.600,83.470,21.690,7.199,baseline
1399.000,316.300,78.630,19.000,1963.000,432.000,110.200,25.830,257.600,56.830,15.090,4.672,377.900,83.110,21.270,7.156,baseline
1388.000,318.400,77.030,18.950,1951.000,431.500,110.100,25.800,257.200,56.890,15.100,4.675,376.000,82.880,21.240,7.147,baseline
1393.000,319.000,78.170,19.060,1954.000,430.700,109.600,25.780,258.800,56.760,15.160,4.710,376.500,82.410,21.230,7.145,baseline
1390.000,316.500,77.320,18.950,1942.000,432.400,110.000,25.770,256.400,56.960,15.130,4.684,377.200,82.860,21.400,7.098,baseline
1388.000,315.700,77.530,19.190,1958.000,434.100,110.300,25.880,256.600,56.820,15.160,4.691,377.800,82.890,21.420,7.175,baseline
1392.000,318.000,78.110,18.980,1964.000,434.000,111.100,25.830,257.700,57.000,15.130,4.690,378.900,83.200,21.510,7.180,baseline
1397.000,318.200,77.790,19.210,1968.000,432.300,110.400,26.110,258.200,57.170,15.240,4.709,378.500,83.190,21.520,7.198,baseline
1404.000,318.000,78.050,19.260,1962.000,435.300,110.200,26.080,256.800,56.840,15.240,4.697,380.800,83.860,21.760,7.214,baseline
1406.000,319.400,78.490,19.280,1982.000,435.400,110.900,26.260,258.000,57.300,15.300,4.703,381.500,84.140,21.790,7.319,baseline
1406.000,320.900,80.070,19.410,1966.000,435.100,110.700,26.130,258.300,57.390,15.290,4.762,383.500,84.370,21.970,7.389,baseline
1415.000,322.700,78.850,19.370,1971.000,437.100,111.000,25.960,259.000,57.660,15.360,4.729,384.200,84.600,21.700,7.268,baseline
1402.000,318.900,78.590,19.260,1960.000,432.900,109.100,25.940,259.200,57.070,15.240,4.720,380.400,83.120,21.410,7.195,baseline
1396.000,317.400,78.000,18.920,1958.000,431.200,109.900,25.720,258.300,57.030,15.130,4.679,377.300,82.470,21.310,7.120,baseline
1383.000,317.000,77.610,18.940,1955.000,432.700,109.800,25.720,255.300,56.890,15.190,4.708,376.300,82.630,21.210,7.123,baseline
1387.000,315.800,77.620,19.110,1954.000,432.500,109.500,25.830,257.500,56.590,15.160,4.680,376.500,82.670,21.190,7.135,baseline
1378.000,318.200,77.230,18.950,1953.000,432.900,110.700,25.830,256.500,56.860,15.160,4.688,377.000,82.270,21.160,7.124,baseline
1395.000,317.200,77.660,19.090,1955.000,434.000,109.700,25.780,258.200,57.030,15.150,4.700,377.000,82.540,21.290,7.136,baseline
1387.000,320.000,77.850,19.010,1966.000,433.000,109.900,25.910,259.200,57.100,15.250,4.678,377.500,82.770,21.280,7.178,baseline
1390.000,319.900,77.900,19.150,1964.000,432.900,110.400,25.910,255.800,57.180,15.200,4.679,379.200,82.840,21.370,7.210,baseline
1394.000,319.800,78.240,19.170,1970.000,437.400,110.800,25.980,254.800,57.040,15.290,4.687,380.200,83.690,21.600,7.268,baseline
1413.000,321.500,78.440,19.320,1984.000,435.800,110.600,26.140,255.100,57.370,15.290,4.705,381.300,84.160,21.740,7.334,baseline
1406.000,324.800,79.390,19.490,1980.000,437.600,110.500,26.160,256.900,57.480,15.270,4.729,381.600,84.260,21.810,7.285,baseline
1419.000,323.000,79.440,19.380,1985.000,439.900,110.900,26.310,256.600,57.530,15.430,4.732,383.800,84.880,22.100,7.377,baseline
1431.000,327.000,80.240,19.520,1996.000,440.400,112.200,26.290,258.000,57.620,15.410,4.766,386.300,85.400,22.230,7.449,baseline
1437.000,325.000,80.110,19.610,1996.000,438.400,111.100,26.120,256.400,57.880,15.440,4.744,385.400,85.150,21.820,7.304,baseline
1420.000,323.100,79.010,19.310,1985.000,438.300,110.800,25.970,259.700,57.620,15.300,4.694,381.600,83.630,21.500,7.184,baseline
1424.000,323.100,78.540,19.230,1978.000,437.400,111.200,26.020,256.900,57.450,15.300,4.707,379.000,83.320,21.330,7.212,baseline
1417.000,322.900,79.110,19.120,1984.000,439.800,110.500,26.010,256.400,57.320,15.280,4.694,380.800,83.250,21.380,7.156,baseline
1421.000,320.100,78.720,19.240,1990.000,438.200,111.800,26.040,257.100,57.330,15.250,4.712,379.300,83.240,21.270,7.181,baseline
1418.000,323.300,78.840,19.220,1996.000,438.400,111.100,26.120,254.500,57.460,15.280,4.711,379.200,83.400,21.370,7.207,baseline
1417.000,323.200,79.270,19.380,1992.000,439.300,110.800,26.170,256.700,57.360,15.210,4.728,380.400,83.200,21.410,7.206,baseline
1414.000,324.900,78.440,19.400,1984.000,439.200,111.000,26.050,257.700,57.580,15.310,4.732,380.700,83.860,21.550,7.212,baseline
1423.000,321.200,78.880,19.530,1987.000,436.600,111.500,26.140,255.700,57.670,15.290,4.755,382.800,83.860,21.630,7.312,baseline
1409.000,322.200,78.910,19.480,1986.000,436.800,111.100,26.150,260.700,57.910,15.290,4.738,382.900,84.820,21.760,7.330,baseline
1402.000,322.900,79.210,19.410,1983.000,438.800,111.300,26.320,258.500,57.990,15.370,4.776,384.600,85.250,22.050,7.410,baseline
1419.000,325.200,79.580,19.520,1976.000,439.600,111.700,26.300,259.900,58.400,15.440,4.804,385.800,85.280,22.130,7.458,baseline
1423.000,327.700,80.370,19.660,1985.000,437.800,112.100,26.220,262.400,58.660,15.460,4.842,388.500,86.360,22.260,7.589,baseline
1413.000,325.900,79.650,19.710,1977.000,439.900,112.000,26.090,260.500,58.910,15.560,4.865,390.000,86.570,22.410,7.522,baseline
1412.000,325.000,78.710,19.510,1980.000,435.100,110.700,25.950,264.700,58.430,15.500,4.808,385.900,85.500,21.840,7.399,baseline
1414.000,321.300,79.380,19.510,1973.000,435.000,110.200,26.050,259.500,58.410,15.470,4.790,385.200,84.960,21.730,7.317,baseline
1397.000,320.800,77.880,19.270,1969.000,432.400,110.600,25.990,263.300,58.340,15.420,4.778,383.900,84.570,21.740,7.306,baseline
1393.000,321.600,78.060,19.240,1964.000,433.100,110.200,25.950,261.100,58.390,15.390,4.780,383.700,84.920,21.670,7.342,baseline
1394.000,319.600,78.090,19.380,1950.000,432.000,110.300,25.900,260.000,58.210,15.350,4.751,382.300,84.640,21.890,7.338,baseline
1388.000,318.600,78.150,19.150,1963.000,434.300,110.000,25.980,259.000,58.300,15.370,4.765,383.500,84.780,21.800,7.389,baseline
1395.000,320.700,78.200,19.420,1959.000,433.600,109.700,26.050,263.900,58.340,15.460,4.776,384.500,85.360,21.840,7.384,baseline
1393.000,317.900,77.930,19.330,1957.000,434.600,110.100,26.090,260.400,58.490,15.430,4.780,384.100,84.960,21.910,7.449,baseline
1406.000,320.400,78.040,19.190,1952.000,434.000,109.900,26.050,262.700,58.380,15.510,4.786,385.300,85.620,22.320,7.470,baseline
1401.000,318.200,79.050,19.460,1958.000,435.100,110.300,26.000,261.800,58.540,15.530,4.817,387.400,86.560,22.340,7.573,baseline
1403.000,322.300,78.560,19.580,1979.000,434.100,110.500,26.090,261.100,58.790,15.510,4.812,390.900,87.020,22.560,7.645,baseline
1411.000,321.800,79.260,19.520,1967.000,435.000,110.300,26.120,265.400,58.980,15.630,4.852,390.400,87.440,22.510,7.682,baseline
1406.000,322.200,79.870,19.470,1957.000,432.200,110.600,26.020,265.500,58.970,15.600,4.852,389.400,86.970,22.310,7.563,baseline
1399.000,317.600,77.790,19.330,1963.000,432.900,109.600,26.010,260.900,58.620,15.530,4.841,386.400,85.480,22.080,7.486,baseline
1386.000,317.400,77.370,19.270,1940.000,428.400,110.300,25.890,261.500,58.640,15.510,4.792,385.900,85.140,21.970,7.425,baseline
1392.000,316.500,78.030,19.130,1949.000,430.600,109.600,25.760,261.300,58.740,15.460,4.826,386.700,85.140,21.880,7.400,baseline
1386.000,314.800,78.290,19.160,1945.000,428.800,109.300,25.880,259.300,58.380,15.430,4.783,382.700,85.540,21.870,7.356,baseline
1388.000,316.000,77.860,19.180,1949.000,432.200,110.000,25.770,258.700,58.350,15.410,4.798,384.600,84.980,21.900,7.463,baseline
1373.000,315.300,77.520,19.070,1945.000,431.600,108.900,25.890,260.800,58.370,15.440,4.768,385.200,85.540,21.990,7.437,baseline
1382.000,317.100,78.030,19.430,1937.000,431.000,109.700,25.800,258.500,58.520,15.440,4.771,385.500,85.980,22.090,7.501,baseline
1387.000,316.000,77.880,19.280,1945.000,431.500,109.800,25.760,262.900,58.480,15.480,4.817,384.900,85.910,22.230,7.561,baseline
1381.000,317.100,77.590,19.330,1935.000,429.300,109.700,25.840,261.500,58.660,15.510,4.815,388.600,86.810,22.260,7.594,baseline
1393.000,319.000,78.750,19.520,1941.000,432.800,110.400,25.940,263.400,58.880,15.520,4.864,389.200,86.810,22.500,7.671,baseline
1397.000,317.700,78.750,19.510,1955.000,431.300,110.300,25.860,263.100,58.870,15.600,4.834,390.600,86.790,22.560,7.577,baseline
1393.000,319.700,77.840,19.360,1944.000,431.200,109.300,25.740,261.700,58.670,15.470,4.806,387.300,86.010,22.110,7.501,baseline
1386.000,317.800,78.430,19.280,1938.000,427.800,109.600,25.810,262.000,58.510,15.400,4.801,386.600,85.270,22.040,7.488,baseline
1373.000,315.900,77.620,19.110,1939.000,430.700,109.500,25.580,262.100,58.220,15.460,4.774,384.900,85.140,21.960,7.435,baseline
1382.000,316.300,77.450,19.070,1938.000,431.800,110.000,25.770,260.500,58.160,15.330,4.795,384.400,84.520,21.860,7.434,baseline
1374.000,314.600,77.750,19.110,1927.000,427.200,109.600,25.760,260.600,58.430,15.430,4.775,384.400,85.260,21.930,7.414,baseline
1385.000,316.200,77.220,19.250,1926.000,428.400,109.200,25.700,260.700,58.370,15.400,4.794,383.700,85.000,22.060,7.536,baseline
1390.000,316.300,78.250,19.130,1934.000,430.700,109.300,25.720,260.200,58.490,15.360,4.820,383.800,85.960,22.070,7.562,baseline
1393.000,319.100,78.140,19.390,1936.000,430.900,110.100,25.810,262.000,58.680,15.490,4.815,386.000,85.810,22.180,7.583,baseline
1387.000,316.000,78.160,19.410,1942.000,430.600,110.600,25.940,262.300,58.640,15.510,4.802,389.000,86.270,22.280,7.589,baseline
1397.000,317.500,79.190,19.430,1948.000,431.000,109.300,26.000,261.000,58.770,15.560,4.823,389.100,87.170,22.630,7.624,baseline
1393.000,317.400,78.610,19.570,1941.000,429.800,110.600,25.840,263.800,58.940,15.510,4.869,390.900,87.140,22.590,7.633,baseline
1404.000,317.700,78.310,19.150,1936.000,429.100,109.400,25.850,261.300,58.640,15.410,4.802,386.100,85.530,22.100,7.522,baseline
1380.000,314.100,77.890,19.170,1954.000,427.700,109.300,25.740,261.600,58.410,15.380,4.807,385.600,85.220,21.940,7.484,baseline
1385.000,317.500,77.720,19.000,1944.000,428.800,108.900,25.800,263.200,58.090,15.360,4.777,382.900,85.220,21.830,7.462,baseline
1377.000,316.400,77.400,19.180,1930.000,428.100,109.900,25.620,260.700,58.220,15.340,4.746,383.100,84.600,21.850,7.447,baseline
1390.000,315.400,77.180,19.090,1932.000,427.500,108.800,25.800,257.600,58.110,15.340,4.809,382.900,85.130,21.840,7.459,baseline
1387.000,319.000,77.620,19.120,1940.000,428.800,109.400,25.750,259.600,58.140,15.400,4.774,383.100,85.130,22.040,7.428,baseline
1389.000,315.700,77.390,19.080,1928.000,427.900,109.700,25.750,261.100,58.400,15.360,4.787,382.900,85.610,22.130,7.540,baseline
1387.000,319.200,77.910,19.220,1942.000,429.600,110.200,25.820,259.800,58.430,15.420,4.807,384.000,85.800,22.100,7.584,baseline
1393.000,318.800,77.730,19.170,1935.000,430.400,109.600,25.860,262.300,58.620,15.390,4.849,384.600,86.080,22.270,7.635,baseline
1390.000,314.700,78.390,19.320,1949.000,429.000,109.900,25.950,262.500,58.640,15.490,4.820,385.900,86.720,22.390,7.679,baseline
1396.000,317.900,79.420,19.440,1961.000,429.200,110.400,26.020,264.300,58.770,15.420,4.855,388.200,86.710,22.600,7.692,baseline
1392.000,319.400,78.840,19.250,1942.000,430.000,109.600,25.770,262.000,58.830,15.400,4.816,386.200,85.890,22.220,7.494,baseline
1386.000,317.800,77.580,18.940,1945.000,429.700,109.300,25.690,262.100,58.330,15.350,4.799,380.900,84.980,22.050,7.417,baseline
1372.000,315.000,77.790,18.900,1931.000,428.300,108.800,25.790,259.500,58.270,15.290,4.751,379.400,84.290,21.840,7.395,baseline
1367.000,315.500,77.480,19.000,1932.000,427.700,109.000,25.660,256.700,58.180,15.280,4.785,378.800,84.430,21.660,7.384,baseline
1365.000,315.600,76.730,18.980,1925.000,426.400,108.700,25.680,259.000,58.170,15.150,4.757,378.000,84.030,21.630,7.377,baseline
1380.000,312.100,76.640,18.920,1938.000,428.600,108.800,25.600,260.100,58.140,15.240,4.756,378.200,84.020,21.800,7.392,baseline
1384.000,315.300,77.200,18.940,1926.000,426.500,109.100,25.700,260.000,57.950,15.260,4.783,378.400,84.290,21.900,7.430,baseline
1384.000,313.800,77.230,19.210,1941.000,429.600,109.700,25.890,256.900,58.130,15.260,4.750,377.900,84.820,21.860,7.439,baseline
1380.000,316.100,77.840,19.180,1935.000,429.300,109.200,25.760,260.000,58.200,15.260,4.736,380.200,84.830,22.010,7.481,baseline
1383.000,317.100,77.330,19.090,1942.000,427.300,109.400,25.840,258.600,57.910,15.350,4.815,381.200,85.270,22.050,7.534,baseline
1382.000,320.200,77.740,19.480,1931.000,429.000,110.100,25.910,258.400,58.040,15.370,4.803,381.600,85.340,22.230,7.601,baseline
1392.000,319.900,78.300,19.380,1937.000,429.300,110.500,25.950,259.800,58.040,15.310,4.797,382.100,86.200,22.460,7.594,baseline
1390.000,316.800,78.530,19.380,1941.000,432.700,110.000,26.140,261.300,58.480,15.410,4.850,384.900,86.540,22.510,7.678,baseline
1399.000,319.300,78.720,19.190,1944.000,429.600,110.000,25.860,260.000,58.580,15.360,4.802,384.900,86.290,22.290,7.576,baseline
1386.000,317.200,77.920,18.960,1931.000,426.900,109.500,25.550,258.900,58.310,15.240,4.752,379.300,84.570,21.910,7.389,baseline
1378.000,314.600,76.920,18.900,1932.000,424.600,109.500,25.800,256.500,57.890,15.170,4.739,378.200,83.930,21.590,7.322,baseline
1368.000,315.200,76.980,18.690,1931.000,428.200,108.700,25.690,259.800,57.770,15.140,4.747,374.800,82.730,21.420,7.304,baseline
1370.000,312.800,76.800,19.040,1931.000,426.600,108.200,25.560,255.500,57.450,15.090,4.735,374.700,82.770,21.540,7.294,baseline
1369.000,314.500,76.150,18.850,1927.000,427.200,109.000,25.640,254.600,57.450,15.010,4.747,373.400,82.840,21.400,7.272,baseline
1369.000,314.300,76.920,18.850,1920.000,427.900,109.200,25.610,255.600,57.620,15.150,4.753,372.700,83.200,21.540,7.344,baseline
1374.000,315.300,76.950,18.760,1929.000,426.700,108.600,25.660,254.900,57.550,15.140,4.758,375.000,83.060,21.600,7.360,baseline
1383.000,314.200,76.760,19.030,1930.000,427.800,109.200,25.710,257.000,57.560,15.100,4.744,374.500,83.310,21.610,7.343,baseline
1366.000,313.800,77.540,18.890,1935.000,428.000,109.000,25.710,257.500,57.530,15.160,4.747,374.300,83.460,21.740,7.398,baseline
1384.000,319.500,77.130,18.930,1944.000,428.800,110.100,25.800,256.800,57.530,15.230,4.765,373.900,83.780,21.940,7.444,baseline
1374.000,315.600,77.600,19.080,1924.000,426.500,109.400,25.850,255.500,57.580,15.200,4.754,376.000,84.310,22.000,7.482,baseline
1387.000,317.200,78.050,19.320,1936.000,429.400,109.600,25.920,258.300,57.860,15.250,4.772,377.500,84.560,21.970,7.567,baseline
1389.000,317.800,78.330,19.270,1933.000,428.700,109.500,25.690,257.600,57.750,15.280,4.770,377.900,84.630,21.980,7.424,baseline
1389.000,314.800,77.530,19.000,1918.000,426.700,109.600,25.540,259.600,57.570,15.120,4.721,374.900,83.360,21.500,7.326,baseline
1370.000,313.300,76.970,18.820,1924.000,425.200,108.500,25.610,256.300,57.070,15.130,4.728,373.100,82.830,21.350,7.249,baseline
1360.000,311.600,76.320,18.790,1925.000,424.600,108.100,25.560,255.700,57.090,15.000,4.672,370.600,82.150,21.120,7.242,baseline
1362.000,310.800,76.220,18.630,1907.000,421.700,107.700,25.300,254.000,56.760,15.010,4.701,369.400,81.870,21.030,7.226,baseline
1358.000,309.200,76.600,18.710,1909.000,423.000,108.500,25.550,255.500,56.730,14.970,4.673,370.300,81.770,21.140,7.211,baseline
1363.000,309.100,76.910,18.710,1919.000,424.500,108.800,25.590,252.500,56.980,15.000,4.644,369.300,81.710,21.170,7.217,baseline
1367.000,310.400,75.910,18.580,1916.000,421.900,108.000,25.580,255.400,56.760,14.990,4.701,368.200,81.730,21.170,7.159,baseline
1365.000,312.900,76.240,18.680,1914.000,422.600,107.500,25.380,257.000,56.930,15.000,4.606,369.500,81.750,21.120,7.117,baseline
1347.000,310.200,75.960,18.910,1898.000,422.100,108.000,25.530,255.600,56.420,15.090,4.599,370.400,82.250,21.270,7.130,baseline
1359.000,312.700,75.840,18.880,1901.000,420.300,107.700,25.330,255.300,56.680,15.080,4.575,372.300,82.640,21.360,7.164,baseline
1356.000,308.800,76.660,18.890,1904.000,421.000,108.300,25.530,255.300,56.640,15.090,4.568,374.400,82.480,21.430,7.164,baseline
1355.000,308.300,76.050,18.740,1890.000,420.400,107.300,25.150,256.100,56.640,15.070,4.535,373.400,81.690,21.090,6.986,baseline
1332.000,305.300,75.040,18.530,1877.000,416.800,107.400,25.140,256.600,56.410,14.990,4.510,370.700,80.810,20.790,6.903,baseline
1336.000,304.900,74.440,18.450,1872.000,420.500,106.900,25.100,257.200,55.950,14.880,4.492,371.200,80.470,20.570,6.855,baseline
1325.000,301.700,74.460,18.230,1865.000,416.600,107.100,25.040,255.400,56.060,14.920,4.480,369.300,80.430,20.520,6.864,baseline
1337.000,302.400,74.730,18.190,1870.000,414.500,107.300,25.120,255.800,56.040,14.900,4.524,370.000,80.120,20.520,6.925,baseline
1334.000,305.600,74.480,18.360,1868.000,415.800,106.200,25.100,254.500,56.300,14.860,4.552,370.400,80.830,20.690,6.924,baseline
1331.000,303.900,74.660,18.310,1872.000,417.200,106.300,25.240,256.400,56.170,14.970,4.575,371.800,80.300,20.750,6.982,baseline
1331.000,304.900,74.640,18.520,1878.000,418.400,106.400,25.230,256.000,56.380,14.900,4.592,371.900,81.050,20.890,7.059,baseline
1326.000,306.100,74.940,18.430,1883.000,417.100,107.100,25.200,255.900,56.670,14.870,4.614,374.500,81.420,20.980,7.110,baseline
1341.000,303.100,75.220,18.410,1887.000,415.300,106.700,25.280,256.600,56.730,14.920,4.618,373.100,81.760,20.960,7.087,baseline
1335.000,306.100,74.960,18.380,1873.000,414.800,106.900,25.030,257.300,56.650,14.840,4.643,371.900,80.640,20.630,6.989,baseline
1314.000,304.600,74.670,18.300,1871.000,416.500,107.000,25.150,255.200,56.590,14.840,4.604,371.900,80.540,20.570,6.964,baseline
1333.000,303.200,74.460,18.300,1880.000,415.300,106.700,25.140,257.100,56.590,14.850,4.635,370.900,80.610,20.640,6.990,baseline
1325.000,301.100,74.570,18.250,1870.000,416.200,106.800,25.160,257.100,56.290,14.820,4.634,370.600,80.680,20.700,6.984,baseline
1326.000,304.000,73.890,18.420,1877.000,419.000,107.200,25.280,257.000,56.540,14.830,4.625,372.900,80.980,20.760,7.056,baseline
1325.000,303.100,74.610,18.420,1881.000,417.700,106.700,25.310,256.200,56.700,14.930,4.662,371.000,81.170,20.870,7.068,baseline
1337.000,305.800,75.120,18.560,1891.000,416.900,107.200,25.370,256.400,56.630,14.850,4.680,373.000,81.780,21.020,7.108,baseline
1349.000,306.900,75.910,18.470,1887.000,418.900,107.500,25.310,255.200,56.970,14.960,4.688,374.800,82.010,21.030,7.114,baseline
1345.000,308.700,75.570,18.340,1888.000,419.800,106.600,25.300,258.100,57.110,14.900,4.654,372.700,81.530,20.720,7.003,baseline
1337.000,305.700,74.830,18.400,1881.000,418.300,107.200,25.280,259.600,56.550,14.840,4.660,370.900,81.110,20.560,6.994,baseline
1335.000,305.000,74.860,18.430,1893.000,418.100,106.800,25.200,257.300,56.890,14.890,4.644,372.300,80.920,20.600,7.004,baseline
1339.000,301.500,74.780,18.380,1884.000,417.200,107.200,25.530,255.600,56.550,14.940,4.660,373.700,80.870,20.740,6.971,baseline
1341.000,306.100,74.920,18.370,1875.000,418.200,107.500,25.360,258.900,56.780,14.950,4.661,374.100,80.950,20.810,7.051,baseline
1344.000,309.100,75.100,18.310,1893.000,418.300,107.400,25.370,257.700,56.820,14.990,4.665,374.700,81.560,20.810,7.015,baseline
1352.000,306.400,75.440,18.620,1898.000,418.100,107.300,25.430,260.000,57.190,14.960,4.706,375.000,81.770,21.000,7.051,baseline
1359.000,306.400,75.930,18.730,1892.000,421.100,107.500,25.630,260.400,57.080,15.000,4.709,377.100,81.990,20.960,7.106,baseline
1360.000,306.300,75.950,18.670,1901.000,421.400,108.500,25.560,257.200,57.220,15.130,4.737,377.800,82.650,21.150,7.162,baseline
1356.000,306.000,75.590,18.540,1902.000,422.500,108.200,25.450,259.700,57.420,15.090,4.691,375.900,82.260,20.940,7.042,baseline
1348.000,305.600,74.580,18.470,1895.000,422.200,107.600,25.500,258.600,56.960,15.020,4.670,375.300,82.120,20.770,7.032,baseline
1345.000,305.700,75.210,18.420,1900.000,419.500,107.700,25.460,258.300,56.990,14.980,4.657,375.000,81.370,20.710,7.055,baseline
1354.000,305.700,74.370,18.390,1903.000,421.100,107.500,25.510,258.400,57.270,14.950,4.659,374.600,81.620,20.820,6.976,baseline
1342.000,304.400,75.380,18.500,1908.000,421.500,107.800,25.610,257.000,57.140,15.000,4.701,375.100,81.930,20.970,7.046,baseline
1348.000,307.800,75.300,18.580,1910.000,423.300,108.400,25.560,260.500,57.130,15.000,4.720,375.500,82.170,21.000,7.123,baseline
1344.000,309.300,75.900,18.550,1890.000,422.500,108.700,25.750,257.600,57.430,15.050,4.689,377.100,82.370,21.000,7.123,baseline
1355.000,308.100,75.520,18.680,1899.000,424.200,108.500,25.760,255.800,57.370,15.130,4.730,379.900,82.640,21.250,7.151,baseline
1363.000,311.600,76.090,18.790,1899.000,422.600,108.700,25.820,257.700,57.350,15.110,4.736,380.100,83.150,21.320,7.189,baseline
1366.000,311.500,76.300,18.880,1912.000,424.700,109.400,25.730,260.200,57.680,15.240,4.753,381.800,83.940,21.390,7.250,baseline
1368.000,310.200,76.600,18.630,1906.000,423.300,108.100,25.530,260.100,57.530,15.150,4.723,379.100,82.600,21.030,7.099,baseline
1363.000,307.100,75.550,18.460,1916.000,420.700,107.800,25.560,259.900,57.350,15.080,4.715,378.800,81.850,21.020,7.082,baseline
1360.000,309.200,76.300,18.780,1916.000,425.200,109.400,25.750,258.400,57.660,15.230,4.715,381.300,82.880,21.420,7.209,hard
1368.000,313.200,76.040,18.670,1929.000,424.900,109.400,26.060,257.700,57.720,15.260,4.758,383.300,83.720,21.330,7.250,hard
1371.000,313.900,76.420,18.830,1925.000,427.500,109.300,26.070,259.600,57.850,15.220,4.786,384.200,84.030,21.560,7.335,hard
1378.000,313.600,76.910,18.970,1937.000,426.500,109.500,26.160,258.600,57.690,15.330,4.774,384.000,84.690,21.490,7.328,hard
1387.000,315.600,77.200,19.070,1926.000,428.300,110.200,26.220,259.100,58.100,15.350,4.786,385.400,85.090,21.920,7.368,hard
1378.000,318.200,77.390,19.160,1942.000,430.100,109.800,25.990,262.900,58.480,15.430,4.815,388.400,85.800,21.790,7.417,hard
1393.000,315.800,76.720,18.770,1933.000,428.800,109.800,25.890,258.800,58.050,15.340,4.777,384.600,83.900,21.270,7.252,hard
1374.000,312.100,76.780,18.860,1919.000,429.400,109.700,25.920,259.500,57.960,15.270,4.766,382.900,83.860,21.260,7.193,hard
1369.000,312.200,76.540,18.680,1927.000,428.700,109.000,25.970,260.300,57.610,15.150,4.736,381.100,83.200,21.170,7.197,hard
1352.000,309.800,75.760,18.760,1911.000,423.500,109.500,25.920,258.100,57.720,15.160,4.769,380.500,83.360,21.130,7.156,hard
1365.000,312.500,76.280,18.660,1914.000,427.600,108.400,25.950,258.600,57.870,15.170,4.732,380.400,83.250,21.330,7.148,hard
1376.000,310.100,76.320,18.650,1923.000,425.900,109.400,25.980,258.000,57.770,15.210,4.747,380.500,82.980,21.250,7.218,hard
1381.000,314.100,76.650,18.840,1919.000,428.200,110.100,26.060,257.600,57.730,15.290,4.753,381.700,84.050,21.260,7.264,hard
1362.000,312.800,77.000,19.040,1925.000,428.000,110.600,25.970,260.600,58.010,15.190,4.799,382.200,83.790,21.420,7.298,hard
1369.000,313.100,77.130,18.920,1923.000,428.800,110.300,26.140,259.000,57.830,15.310,4.805,380.900,84.080,21.510,7.261,hard
1371.000,314.800,77.440,18.850,1937.000,430.200,110.000,26.070,259.800,58.030,15.340,4.783,386.300,84.460,21.750,7.368,hard
1375.000,317.200,77.670,19.180,1937.000,431.100,110.100,26.330,262.200,58.190,15.380,4.812,385.300,85.320,21.760,7.369,hard
1388.000,317.300,77.490,19.210,1931.000,432.100,110.200,26.280,259.700,58.510,15.420,4.826,386.800,85.050,21.970,7.471,hard
1395.000,319.700,78.330,19.170,1938.000,432.000,110.900,26.320,260.600,58.400,15.450,4.815,387.800,85.900,22.140,7.527,hard
1390.000,316.800,78.760,19.310,1936.000,432.300,111.100,26.440,259.600,58.550,15.510,4.840,390.500,85.750,22.080,7.480,hard
1384.000,319.300,77.940,19.100,1932.000,429.900,110.200,26.230,262.800,58.220,15.410,4.821,384.900,84.710,21.660,7.332,hard
1385.000,312.900,76.760,19.030,1926.000,429.900,109.700,26.050,260.600,57.980,15.350,4.788,383.600,84.080,21.400,7.299,hard
1364.000,313.500,76.680,18.920,1916.000,431.100,109.100,26.190,256.900,57.950,15.230,4.794,382.300,83.940,21.470,7.258,hard
1378.000,315.200,76.720,18.810,1923.000,427.800,109.500,26.060,258.600,57.790,15.390,4.771,381.000,83.720,21.370,7.254,hard
1372.000,313.200,77.240,18.710,1922.000,428.200,109.600,26.090,260.200,57.730,15.330,4.774,380.100,83.530,21.350,7.276,hard
1374.000,314.800,76.770,18.940,1925.000,427.500,109.000,26.070,258.900,57.860,15.250,4.774,380.200,83.350,21.440,7.218,hard
1375.000,316.200,76.320,18.900,1918.000,428.800,110.000,26.190,258.300,57.870,15.270,4.767,380.300,83.810,21.550,7.238,hard
1375.000,313.800,76.650,19.060,1916.000,427.300,109.600,26.140,257.500,57.830,15.320,4.773,380.600,83.800,21.620,7.338,hard
1371.000,315.400,77.250,19.150,1919.000,429.100,110.300,26.200,260.100,58.030,15.340,4.808,381.300,84.380,21.650,7.376,hard
1373.000,315.600,77.310,19.210,1921.000,432.500,110.300,26.170,260.500,58.020,15.450,4.803,382.900,84.960,21.770,7.370,hard
1381.000,313.000,77.940,19.170,1925.000,428.300,110.100,26.280,257.600,58.160,15.390,4.848,382.700,84.920,21.870,7.422,hard
1379.000,315.300,77.920,19.250,1922.000,430.200,110.900,26.370,260.500,58.320,15.430,4.816,385.300,85.680,22.100,7.533,hard
1385.000,316.300,78.120,19.380,1927.000,432.500,110.900,26.280,260.800,58.510,15.480,4.824,388.100,86.570,22.190,7.498,hard
1396.000,318.000,77.740,19.040,1920.000,430.600,110.000,26.050,262.100,58.680,15.420,4.814,384.900,84.910,21.750,7.356,hard
1369.000,315.700,76.660,19.030,1922.000,427.500,109.400,25.960,259.100,57.900,15.340,4.785,383.200,84.210,21.620,7.300,hard
1368.000,310.300,76.830,18.770,1905.000,426.900,110.300,26.010,258.600,58.250,15.300,4.797,379.600,83.660,21.500,7.270,hard
1362.000,312.700,76.340,18.920,1912.000,426.400,109.700,26.010,258.800,57.500,15.300,4.762,378.100,83.120,21.470,7.231,hard
1363.000,312.600,76.630,18.830,1907.000,426.000,109.800,25.930,256.500,57.660,15.220,4.767,376.500,83.270,21.280,7.212,hard
1368.000,311.800,76.270,18.860,1908.000,427.400,109.900,26.040,258.800,57.710,15.240,4.779,376.000,82.960,21.480,7.238,hard
1370.000,315.800,76.620,18.890,1915.000,427.900,109.700,25.880,255.700,57.730,15.230,4.780,376.300,83.650,21.370,7.293,hard
1363.000,312.600,76.590,18.920,1906.000,425.600,109.100,26.070,258.800,57.560,15.240,4.743,378.000,83.660,21.530,7.299,hard
1368.000,314.800,76.810,19.050,1911.000,429.300,109.200,26.040,258.700,57.770,15.220,4.765,377.700,83.980,21.610,7.311,hard
1362.000,311.300,76.710,19.090,1904.000,429.200,109.600,25.970,258.500,57.940,15.300,4.807,377.900,84.340,21.670,7.374,hard
1371.000,313.500,77.290,19.220,1919.000,428.000,109.500,26.170,256.800,58.060,15.290,4.821,381.100,84.400,21.820,7.428,hard
1371.000,315.700,77.770,19.150,1914.000,427.900,109.900,25.940,257.000,58.090,15.380,4.844,382.000,84.580,21.800,7.334,hard
1370.000,314.800,76.470,18.870,1909.000,424.600,108.900,25.920,259.200,57.800,15.250,4.758,377.900,83.890,21.370,7.226,hard
1351.000,309.200,75.580,18.700,1899.000,424.800,108.900,25.760,260.300,57.790,15.190,4.745,374.200,82.590,21.260,7.189,hard
1345.000,307.600,76.120,18.770,1897.000,424.900,109.000,25.810,259.300,57.390,15.190,4.737,373.000,82.670,21.150,7.206,hard
1354.000,309.400,75.210,18.700,1894.000,425.100,108.100,25.750,256.000,57.500,15.160,4.725,371.200,81.950,21.160,7.171,hard
1350.000,307.100,75.530,18.690,1903.000,424.500,108.600,25.710,257.900,57.410,15.120,4.731,373.200,81.900,21.050,7.168,hard
1347.000,305.000,75.450,18.640,1897.000,423.000,108.600,25.790,255.400,57.380,15.070,4.750,372.700,82.870,21.220,7.168,hard
1338.000,309.100,75.840,18.810,1895.000,426.000,108.200,25.750,256.400,57.380,15.180,4.744,374.800,82.640,21.380,7.200,hard
1348.000,308.400,75.520,18.690,1899.000,426.500,108.400,25.760,256.400,57.500,15.220,4.744,373.400,83.040,21.370,7.244,hard
1346.000,307.900,75.870,18.710,1900.000,420.800,109.600,25.890,259.200,57.510,15.270,4.774,376.400,83.130,21.500,7.263,hard
1360.000,312.000,76.360,18.930,1900.000,423.200,108.800,25.910,258.800,57.620,15.280,4.791,376.500,83.600,21.560,7.338,hard
1347.000,311.700,76.550,18.890,1913.000,424.000,108.800,25.690,261.500,57.780,15.300,4.768,376.500,83.640,21.430,7.297,hard
1340.000,307.600,75.240,18.630,1894.000,422.100,108.100,25.670,257.800,57.550,15.140,4.764,373.500,82.320,21.190,7.130,hard
1337.000,307.000,75.700,18.580,1872.000,421.200,107.500,25.480,256.800,57.400,15.140,4.723,372.100,81.780,20.920,7.113,hard
1329.000,305.600,75.160,18.510,1891.000,423.500,107.900,25.620,257.500,56.930,15.040,4.725,369.900,81.780,20.920,7.043,hard
1331.000,306.700,75.000,18.610,1887.000,418.700,107.900,25.450,254.000,57.000,15.000,4.683,370.900,81.710,20.880,7.024,hard
1332.000,306.300,74.670,18.370,1884.000,418.600,107.900,25.660,254.700,57.080,15.120,4.719,368.700,81.120,20.930,7.128,hard
1326.000,304.900,74.970,18.550,1898.000,420.300,107.400,25.460,256.100,56.980,15.060,4.710,370.300,81.520,20.940,7.065,hard
1335.000,303.500,74.850,18.670,1893.000,421.100,107.900,25.590,255.900,56.960,15.130,4.713,370.700,81.600,20.940,7.132,hard
1339.000,304.500,75.830,18.530,1890.000,417.500,108.100,25.760,258.300,56.970,15.100,4.728,371.300,82.240,21.160,7.166,hard
1326.000,307.300,75.350,18.640,1871.000,422.300,108.200,25.650,257.300,57.090,15.150,4.767,373.200,82.050,21.210,7.169,hard
1339.000,304.700,75.800,18.650,1901.000,420.800,108.800,25.770,256.800,57.390,15.180,4.728,372.800,82.480,21.390,7.228,hard
1344.000,308.600,75.690,18.960,1899.000,420.800,108.400,25.880,255.800,57.540,15.220,4.764,376.100,83.040,21.410,7.281,hard
1347.000,307.200,75.060,18.410,1871.000,419.200,108.500,25.620,259.500,57.440,15.170,4.753,372.000,82.150,20.990,7.157,hard
1336.000,304.200,74.750,18.410,1878.000,417.300,108.400,25.510,255.300,57.210,15.060,4.727,368.600,81.730,20.890,7.064,hard
1319.000,302.700,73.810,18.440,1884.000,417.200,107.600,25.550,254.800,56.960,15.080,4.717,369.600,81.180,20.690,7.035,hard
1329.000,303.400,74.830,18.410,1877.000,418.000,107.300,25.430,256.000,56.870,15.090,4.680,369.000,80.680,20.810,7.042,hard
1315.000,302.100,74.890,18.310,1896.000,419.600,108.000,25.510,258.700,56.740,15.020,4.722,369.200,80.710,20.690,7.023,hard
1321.000,301.500,74.880,18.300,1884.000,418.400,107.700,25.600,254.600,56.930,15.010,4.709,369.900,80.920,20.770,7.061,hard
1337.000,301.500,74.370,18.340,1876.000,419.900,107.900,25.570,255.700,57.090,15.100,4.749,370.000,81.310,20.860,7.056,hard
1331.000,304.500,74.520,18.400,1887.000,419.900,107.300,25.590,257.500,57.170,15.030,4.747,371.800,81.460,20.970,7.091,hard
1332.000,306.200,75.250,18.570,1891.000,420.100,107.900,25.700,256.900,57.100,15.140,4.762,372.200,82.060,21.170,7.151,hard
1353.000,306.800,75.460,18.750,1905.000,422.600,108.600,25.740,255.700,57.440,15.180,4.736,374.200,82.680,21.220,7.213,hard
1336.000,304.600,76.140,18.860,1910.000,418.800,108.200,25.980,258.500,57.640,15.190,4.794,376.200,83.130,21.490,7.251,hard
1357.000,308.000,76.090,18.710,1893.000,422.400,108.200,25.710,256.400,57.610,15.300,4.794,377.700,83.150,21.280,7.212,hard
1344.000,304.500,75.590,18.620,1888.000,420.300,108.400,25.670,258.800,57.520,15.130,4.758,375.000,82.200,21.070,7.158,hard
1338.000,306.300,74.770,18.450,1896.000,418.500,107.900,25.660,256.700,57.480,15.140,4.748,374.500,82.250,20.890,7.112,hard
1340.000,304.300,74.520,18.410,1883.000,420.900,108.400,25.780,257.200,57.280,15.150,4.752,372.700,81.780,20.840,7.108,hard
1324.000,307.100,75.170,18.580,1897.000,420.300,108.800,25.580,257.000,57.340,15.170,4.746,373.200,81.640,20.890,7.116,hard
1337.000,303.700,75.080,18.420,1903.000,420.900,108.800,25.750,258.900,57.360,15.160,4.755,371.600,81.700,20.970,7.135,hard
1339.000,305.100,75.230,18.620,1909.000,421.700,108.400,25.700,258.800,57.460,15.180,4.752,373.800,82.020,21.020,7.144,hard
1347.000,307.300,74.710,18.730,1911.000,421.900,108.600,25.740,259.000,57.640,15.240,4.763,374.800,82.160,21.160,7.158,hard
1344.000,308.000,75.340,18.840,1904.000,422.900,109.200,25.900,256.900,57.430,15.220,4.761,376.300,83.020,21.240,7.175,hard
1357.000,310.300,75.770,18.840,1910.000,424.400,108.700,25.870,260.500,58.040,15.220,4.809,378.800,83.520,21.380,7.307,hard
1363.000,310.200,76.760,18.980,1920.000,427.000,109.300,26.040,258.600,57.780,15.340,4.827,379.300,83.580,21.500,7.307,hard
1364.000,309.700,76.580,18.860,1909.000,426.400,108.900,26.030,259.200,57.930,15.320,4.835,379.600,83.710,21.340,7.252,hard
1356.000,306.900,75.560,18.680,1920.000,426.800,108.900,25.980,259.200,57.770,15.280,4.789,376.800,83.140,21.300,7.165,hard
1368.000,309.100,75.840,18.710,1910.000,423.500,109.500,25.980,257.700,57.900,15.220,4.790,376.400,82.370,21.070,7.155,hard
1356.000,308.700,75.210,18.650,1920.000,426.100,109.200,25.860,259.900,57.710,15.200,4.788,375.200,82.630,21.110,7.160,hard
1352.000,310.700,76.040,18.700,1917.000,426.200,109.300,25.990,258.400,57.600,15.260,4.762,376.400,82.530,21.130,7.185,hard
1342.000,306.600,75.960,18.650,1912.000,425.600,109.200,25.930,259.200,57.690,15.230,4.807,377.200,82.730,21.120,7.136,hard
1358.000,309.600,76.320,18.760,1922.000,428.300,109.800,26.000,259.400,57.880,15.320,4.789,378.100,82.660,21.210,7.199,hard
1352.000,312.200,76.220,18.860,1918.000,426.700,109.800,26.070,258.600,57.860,15.330,4.834,378.400,83.050,21.150,7.227,hard
1376.000,310.200,76.680,19.020,1930.000,424.700,109.700,26.270,260.100,57.960,15.240,4.801,378.300,83.590,21.340,7.275,hard
1366.000,309.900,76.380,18.970,1924.000,429.200,110.600,26.360,259.200,58.210,15.320,4.840,379.700,83.590,21.500,7.360,hard
1376.000,314.600,77.450,19.270,1928.000,429.800,111.100,26.350,261.600,58.270,15.360,4.846,383.100,84.100,21.590,7.341,hard
1383.000,312.900,77.040,19.020,1947.000,428.800,110.100,26.180,260.400,58.390,15.450,4.829,380.500,83.730,21.340,7.237,hard
1379.000,311.000,76.670,18.830,1934.000,429.200,109.900,26.380,260.400,58.050,15.310,4.809,378.800,83.150,21.260,7.179,hard
1371.000,312.300,76.420,18.990,1932.000,430.000,110.400,26.160,259.000,57.880,15.310,4.809,377.700,82.990,21.170,7.208,hard
1368.000,310.900,76.690,18.880,1923.000,428.100,110.300,26.110,259.800,58.120,15.300,4.819,378.900,82.530,21.030,7.158,hard
1374.000,312.700,76.610,19.000,1933.000,430.100,109.900,26.100,258.000,57.700,15.340,4.796,377.500,82.740,21.170,7.199,hard
1372.000,310.300,76.220,18.950,1933.000,430.400,110.000,26.260,257.800,57.990,15.300,4.813,378.600,82.890,21.210,7.235,hard
1378.000,312.300,76.710,18.990,1920.000,428.400,110.900,26.410,259.300,58.120,15.410,4.822,381.100,82.980,21.230,7.247,hard
1381.000,313.800,76.540,18.950,1933.000,432.000,110.900,26.300,260.200,58.090,15.370,4.813,381.200,84.090,21.520,7.327,hard
1380.000,316.000,77.420,19.090,1943.000,434.400,111.100,26.420,260.700,58.230,15.440,4.865,383.200,83.980,21.440,7.332,hard
1373.000,318.400,77.540,19.340,1939.000,434.300,111.200,26.510,258.100,58.350,15.460,4.854,384.400,84.150,21.720,7.381,hard
1389.000,316.600,77.890,19.180,1951.000,432.300,111.300,26.570,259.400,58.460,15.520,4.893,384.900,84.620,21.790,7.365,hard
1391.000,318.000,78.020,19.170,1939.000,435.500,111.800,26.500,262.300,58.710,15.560,4.887,385.400,85.110,21.830,7.367,hard
1387.000,315.400,77.420,19.090,1947.000,432.300,111.100,26.480,260.500,58.650,15.440,4.859,383.200,84.030,21.430,7.254,hard
1391.000,315.600,76.870,18.900,1937.000,434.700,111.600,26.320,260.000,58.220,15.470,4.825,383.100,83.470,21.310,7.222,hard
1387.000,312.200,77.660,18.890,1941.000,432.100,110.700,26.260,259.000,58.160,15.360,4.830,380.900,83.670,21.350,7.209,hard
1382.000,315.900,76.880,18.990,1940.000,430.600,111.500,26.400,258.800,58.220,15.350,4.820,381.000,83.610,21.190,7.244,hard
1362.000,314.500,76.780,19.250,1945.000,434.400,112.000,26.440,260.200,58.410,15.420,4.821,381.500,83.770,21.360,7.256,hard
1362.000,316.200,77.850,19.100,1945.000,432.500,111.900,26.450,260.200,58.210,15.480,4.849,383.300,83.870,21.410,7.254,hard
1381.000,316.700,77.540,19.220,1945.000,432.200,110.900,26.550,259.900,58.220,15.470,4.884,382.900,84.190,21.450,7.303,hard
1385.000,317.200,77.950,19.300,1952.000,436.000,111.700,26.640,263.000,58.480,15.570,4.863,383.700,84.470,21.610,7.321,hard
1389.000,317.800,77.570,19.330,1961.000,435.400,111.100,26.480,262.300,58.560,15.470,4.873,385.700,84.860,21.730,7.363,hard
1397.000,319.600,78.140,19.410,1939.000,434.600,112.100,26.530,262.700,58.620,15.490,4.875,386.900,84.880,21.870,7.399,hard
1389.000,322.700,79.050,19.380,1947.000,435.800,112.200,26.570,261.400,58.880,15.580,4.888,387.300,85.230,21.870,7.455,hard
1403.000,319.500,78.620,19.490,1955.000,435.400,112.400,26.520,260.300,58.960,15.570,4.910,389.200,86.130,22.070,7.541,hard
1412.000,320.600,78.970,19.470,1958.000,437.800,112.300,26.540,263.600,59.040,15.730,4.935,389.400,85.930,21.950,7.433,hard
1396.000,319.200,78.460,19.170,1955.000,436.700,111.700,26.530,258.900,58.850,15.540,4.896,387.700,85.210,21.800,7.397,hard
1388.000,318.100,78.350,19.150,1945.000,434.000,111.000,26.470,262.200,58.680,15.490,4.858,385.700,84.180,21.540,7.300,hard
1382.000,318.000,77.650,19.130,1941.000,435.300,111.500,26.460,260.500,58.570,15.430,4.874,384.300,84.450,21.630,7.312,hard
1378.000,318.600,78.110,19.260,1938.000,433.100,112.300,26.460,260.700,58.540,15.440,4.866,384.000,84.440,21.630,7.343,hard
1374.000,316.500,77.810,19.140,1946.000,437.100,112.300,26.450,262.700,58.220,15.460,4.884,384.600,84.520,21.640,7.352,hard
1399.000,318.000,77.290,19.360,1938.000,437.800,111.400,26.470,260.600,58.600,15.560,4.871,384.900,84.300,21.650,7.317,hard
1392.000,314.700,78.560,19.560,1948.000,436.700,111.400,26.550,263.100,58.550,15.490,4.879,387.300,84.680,21.720,7.397,hard
1393.000,321.200,78.210,19.320,1948.000,436.300,112.200,26.620,260.600,58.700,15.590,4.899,386.900,85.350,21.860,7.445,hard
1399.000,321.600,78.820,19.570,1942.000,434.800,112.300,26.520,260.200,58.920,15.550,4.898,387.900,85.490,21.880,7.440,hard
1402.000,323.500,78.540,19.440,1950.000,437.100,111.900,26.690,262.500,59.000,15.590,4.931,390.600,86.290,22.120,7.521,hard
1401.000,324.800,78.390,19.670,1949.000,439.200,112.600,26.720,262.500,59.200,15.630,4.942,391.500,86.070,22.170,7.577,hard
1408.000,321.000,79.040,19.690,1973.000,439.000,112.300,26.740,261.400,59.150,15.750,4.954,393.400,87.210,22.430,7.661,hard
1416.000,327.200,79.590,19.850,1957.000,435.300,111.700,26.630,262.800,59.350,15.720,4.906,392.300,86.680,22.240,7.506,hard
1398.000,318.700,79.110,19.510,1959.000,435.400,112.400,26.510,263.400,59.120,15.630,4.888,389.000,85.760,22.020,7.464,hard
1393.000,322.500,78.530,19.450,1950.000,438.200,111.200,26.570,262.100,58.820,15.470,4.924,388.500,85.280,21.890,7.391,hard
1395.000,321.800,78.620,19.370,1944.000,435.600,111.600,26.460,262.700,58.980,15.540,4.867,386.200,85.170,21.670,7.334,hard
1396.000,322.100,78.260,19.460,1942.000,435.400,111.400,26.390,260.100,58.830,15.550,4.852,386.700,84.660,21.860,7.418,hard
1386.000,319.900,78.280,19.440,1954.000,437.600,111.900,26.560,261.400,58.760,15.550,4.871,385.100,85.320,21.850,7.381,hard
1389.000,321.000,78.390,19.440,1953.000,436.100,111.000,26.510,259.000,58.600,15.520,4.893,385.000,85.250,21.830,7.380,hard
1395.000,324.100,78.540,19.410,1952.000,436.000,112.200,26.590,263.700,58.940,15.550,4.914,387.900,85.670,21.860,7.449,hard
1401.000,320.100,79.040,19.550,1956.000,435.400,112.000,26.560,261.200,58.860,15.680,4.891,387.500,85.890,22.030,7.498,hard
1393.000,321.400,79.060,19.540,1954.000,437.100,111.900,26.650,261.200,59.040,15.670,4.928,387.600,86.020,22.060,7.503,hard
1407.000,324.000,78.840,19.620,1955.000,437.400,112.400,26.700,263.200,59.290,15.600,4.930,389.700,86.340,22.280,7.532,hard
1405.000,325.900,79.960,19.760,1956.000,437.200,112.600,26.670,263.400,59.120,15.700,4.939,390.200,86.380,22.340,7.597,hard
1420.000,325.300,78.860,19.660,1961.000,438.300,111.600,26.370,261.200,59.190,15.700,4.917,388.300,85.850,22.080,7.390,hard
1402.000,319.500,78.490,19.320,1952.000,438.200,111.800,26.570,261.300,58.830,15.540,4.859,385.600,85.120,21.870,7.350,hard
1394.000,320.400,78.470,19.280,1944.000,437.700,111.900,26.470,260.800,58.630,15.510,4.871,383.700,84.880,21.720,7.320,hard
1391.000,322.200,78.180,19.350,1945.000,435.800,111.700,26.490,262.000,58.690,15.540,4.875,382.400,84.410,21.690,7.326,hard
1402.000,318.200,77.810,19.420,1959.000,434.300,111.800,26.330,259.900,58.500,15.450,4.858,382.700,84.230,21.660,7.311,hard
1400.000,321.300,78.160,19.290,1940.000,434.400,111.500,26.470,259.500,58.450,15.480,4.881,383.300,84.220,21.700,7.403,hard
1405.000,320.600,77.830,19.330,1944.000,435.700,111.900,26.460,260.400,58.530,15.520,4.866,382.500,84.570,21.710,7.353,hard
1405.000,320.100,78.510,19.400,1949.000,435.800,112.100,26.460,257.400,58.480,15.490,4.868,381.700,84.940,21.710,7.422,hard
1391.000,322.400,78.430,19.620,1957.000,435.500,111.700,26.450,260.100,58.710,15.560,4.881,383.400,84.930,21.950,7.455,hard
1402.000,323.100,78.700,19.500,1960.000,437.500,112.500,26.500,260.600,58.650,15.540,4.888,385.100,85.300,21.950,7.472,hard
1397.000,322.300,79.190,19.720,1962.000,438.100,112.500,26.600,261.800,58.730,15.570,4.888,386.000,85.770,22.130,7.550,hard
1417.000,323.400,78.940,19.650,1963.000,438.700,112.300,26.720,262.600,59.150,15.630,4.901,387.600,86.250,22.070,7.484,hard
1399.000,320.000,78.420,19.560,1947.000,433.300,111.600,26.470,261.000,58.850,15.590,4.867,383.300,84.740,21.650,7.398,hard
1389.000,322.300,78.150,19.540,1955.000,435.100,111.000,26.330,261.700,58.490,15.530,4.869,381.100,84.340,21.600,7.285,hard
1397.000,318.100,77.870,19.220,1949.000,434.800,110.300,26.400,261.300,58.500,15.480,4.852,379.000,84.120,21.550,7.238,hard
1388.000,315.700,77.870,19.260,1935.000,434.900,111.100,26.340,260.300,58.310,15.480,4.822,379.400,83.610,21.470,7.270,hard
1383.000,317.400,77.300,19.300,1942.000,433.800,111.500,26.450,260.500,58.350,15.440,4.834,378.500,84.000,21.580,7.292,hard
1387.000,318.000,77.710,19.240,1944.000,434.600,111.300,26.300,257.800,58.310,15.470,4.815,377.500,83.570,21.470,7.204,hard
1399.000,317.400,77.750,19.440,1945.000,433.600,111.500,26.480,259.500,58.380,15.510,4.851,378.500,84.130,21.500,7.272,hard
1384.000,320.400,78.270,19.420,1951.000,435.200,111.300,26.400,259.400,58.400,15.500,4.840,379.400,83.610,21.590,7.319,hard
1397.000,318.200,78.310,19.310,1949.000,437.300,112.300,26.570,259.200,58.220,15.510,4.867,381.100,84.160,21.860,7.314,hard
1392.000,318.300,78.410,19.510,1950.000,436.000,112.500,26.670,259.700,58.730,15.460,4.869,381.500,84.600,21.790,7.419,hard
1392.000,317.200,78.530,19.640,1940.000,433.900,111.900,26.670,260.000,58.930,15.530,4.910,383.200,85.190,21.840,7.468,hard
1401.000,320.100,78.920,19.600,1942.000,436.900,111.900,26.630,262.100,58.820,15.610,4.922,384.600,85.530,22.040,7.521,hard
1404.000,320.900,78.780,19.590,1952.000,435.100,111.400,26.380,263.400,58.970,15.700,4.894,384.500,85.380,21.870,7.387,hard
1400.000,317.800,77.540,19.210,1932.000,433.300,111.300,26.360,260.900,58.720,15.460,4.872,381.100,84.160,21.640,7.314,hard
1387.000,318.200,77.780,19.340,1945.000,433.600,111.600,26.380,263.600,58.630,15.420,4.849,379.500,83.510,21.460,7.264,hard
1383.000,315.800,77.230,19.170,1941.000,433.900,110.700,26.390,256.700,58.360,15.450,4.862,378.300,83.370,21.410,7.242,hard
1380.000,317.300,77.160,19.190,1942.000,432.300,110.700,26.250,258.100,58.200,15.420,4.827,377.700,83.270,21.320,7.226,hard
1385.000,315.400,77.540,19.280,1941.000,434.900,110.600,26.490,258.300,58.320,15.460,4.841,377.900,83.420,21.430,7.251,hard
1383.000,313.800,77.790,19.250,1934.000,432.200,110.800,26.410,256.400,58.430,15.380,4.859,378.700,83.060,21.530,7.271,hard
1399.000,316.200,77.930,19.280,1952.000,435.300,111.000,26.420,260.300,58.460,15.420,4.844,378.300,83.860,21.530,7.259,hard
1391.000,317.400,77.740,19.290,1952.000,432.600,111.300,26.460,261.300,58.400,15.510,4.873,380.200,84.130,21.530,7.319,hard
1404.000,318.000,77.920,19.490,1942.000,435.700,111.400,26.670,261.800,58.360,15.500,4.897,381.600,84.400,21.600,7.385,hard
1394.000,316.200,78.780,19.330,1944.000,434.700,112.000,26.480,260.700,58.500,15.430,4.866,381.300,84.710,21.850,7.429,hard
1387.000,323.200,78.230,19.360,1959.000,435.800,111.600,26.580,259.500,59.010,15.600,4.878,384.700,85.020,21.840,7.480,hard
1402.000,319.900,77.950,19.470,1958.000,435.500,111.600,26.620,262.700,58.980,15.590,4.905,382.700,84.870,21.650,7.322,hard
1400.000,315.500,78.060,19.300,1937.000,432.700,111.800,26.470,260.100,58.580,15.400,4.847,381.100,84.460,21.640,7.296,hard
1391.000,317.700,77.020,19.240,1950.000,433.200,111.000,26.490,258.500,58.380,15.450,4.865,379.300,83.250,21.360,7.203,hard
1385.000,316.900,77.900,19.300,1948.000,432.800,111.300,26.440,259.300,58.220,15.350,4.842,379.000,83.380,21.260,7.223,hard
1389.000,314.500,77.470,19.100,1946.000,433.500,111.000,26.430,259.800,58.300,15.430,4.824,377.900,83.540,21.280,7.228,hard
1384.000,317.100,77.870,19.230,1944.000,432.300,111.800,26.360,258.800,58.380,15.420,4.862,379.000,83.380,21.440,7.281,hard
1385.000,318.000,77.770,19.210,1945.000,435.300,111.700,26.460,260.400,58.340,15.410,4.876,379.500,83.740,21.450,7.343,hard
1392.000,315.800,77.560,19.290,1951.000,433.500,111.500,26.600,260.800,58.480,15.450,4.886,379.800,83.790,21.610,7.314,hard
1394.000,319.300,78.080,19.390,1954.000,434.400,111.600,26.600,260.700,58.520,15.550,4.889,380.800,84.340,21.630,7.348,hard
1397.000,319.700,78.440,19.510,1955.000,434.100,111.900,26.590,259.800,58.560,15.520,4.872,382.600,84.610,21.750,7.391,hard
1394.000,319.200,78.480,19.670,1965.000,435.300,112.200,26.700,260.100,59.050,15.530,4.893,384.800,85.510,21.950,7.455,hard
1407.000,322.300,78.560,19.770,1963.000,436.600,112.200,26.830,264.800,59.190,15.610,4.885,386.700,85.350,22.050,7.513,hard
1399.000,318.400,78.940,19.450,1955.000,436.200,111.800,26.570,263.200,58.990,15.660,4.903,385.100,85.060,21.670,7.376,hard
1399.000,318.000,78.290,19.270,1957.000,437.100,111.600,26.560,264.500,58.780,15.500,4.886,381.300,84.230,21.500,7.334,hard
1384.000,318.000,78.190,19.240,1942.000,434.300,111.600,26.520,261.800,58.580,15.420,4.841,380.900,84.180,21.530,7.301,hard
1397.000,315.900,77.200,19.190,1949.000,435.000,112.100,26.510,261.300,58.470,15.500,4.858,381.800,83.520,21.510,7.324,hard
1401.000,315.900,77.670,19.290,1953.000,437.000,112.200,26.530,258.700,58.480,15.450,4.903,380.500,83.930,21.490,7.296,hard
1388.000,315.000,78.330,19.150,1951.000,431.800,112.100,26.550,261.800,58.450,15.500,4.887,382.400,83.940,21.520,7.290,hard
1401.000,316.600,78.120,19.310,1959.000,435.200,112.400,26.620,262.300,58.420,15.410,4.858,382.800,83.970,21.740,7.275,hard
1398.000,318.000,78.890,19.440,1957.000,439.000,112.300,26.670,262.900,58.500,15.490,4.912,383.900,84.700,21.610,7.424,hard
1402.000,320.400,78.490,19.540,1960.000,437.000,111.900,26.590,264.400,58.660,15.540,4.917,383.600,84.770,21.800,7.397,hard
1404.000,318.600,78.230,19.540,1952.000,437.300,113.100,26.780,262.100,58.820,15.610,4.920,384.900,85.160,21.960,7.440,hard
1415.000,322.300,79.070,19.510,1963.000,440.500,112.600,26.840,263.100,59.020,15.650,4.933,387.500,85.800,22.160,7.554,hard
1411.000,324.400,79.760,19.680,1956.000,438.900,112.600,26.730,263.500,59.120,15.600,4.919,386.900,85.610,21.910,7.441,hard
1407.000,320.900,78.660,19.540,1964.000,441.300,112.500,26.570,262.000,58.990,15.620,4.916,384.800,84.920,21.810,7.322,hard
1399.000,322.300,78.390,19.400,1948.000,438.500,111.900,26.640,260.100,58.790,15.460,4.869,383.200,84.400,21.730,7.344,hard
1405.000,320.000,77.990,19.430,1964.000,437.200,112.100,26.670,262.800,58.630,15.520,4.887,382.600,84.080,21.670,7.347,hard
1412.000,318.400,79.020,19.460,1955.000,436.800,112.400,26.570,261.500,58.680,15.470,4.869,383.800,84.510,21.590,7.350,hard
1405.000,319.900,78.890,19.510,1965.000,438.400,112.000,26.640,263.100,58.570,15.580,4.872,384.000,84.580,21.700,7.389,hard
1408.000,322.000,78.440,19.610,1956.000,438.100,113.000,26.690,261.500,58.790,15.580,4.912,386.300,84.830,21.800,7.386,hard
1404.000,321.500,78.820,19.640,1976.000,440.600,113.500,26.760,263.200,58.950,15.600,4.891,385.600,85.190,21.800,7.416,hard
1418.000,322.000,79.690,19.730,1979.000,440.300,112.800,26.950,261.100,58.870,15.590,4.914,387.000,85.220,21.930,7.444,hard
1411.000,323.700,79.340,19.870,1983.000,441.200,113.700,26.790,264.100,59.050,15.700,4.910,387.600,85.820,21.990,7.452,hard
1431.000,324.600,79.530,19.840,1981.000,442.500,113.300,26.960,264.800,58.990,15.670,4.950,390.000,85.820,22.130,7.522,hard
1422.000,323.500,79.120,19.750,1975.000,442.800,113.200,26.860,267.000,59.280,15.690,4.958,389.900,86.120,21.950,7.457,hard
1408.000,323.300,79.040,19.480,1970.000,441.300,112.700,26.740,262.900,58.810,15.550,4.918,387.300,84.880,21.790,7.383,hard
1420.000,320.200,78.750,19.550,1985.000,438.000,113.300,26.750,262.400,58.860,15.500,4.880,386.800,84.410,21.570,7.337,hard
1401.000,323.600,78.800,19.590,1957.000,437.400,112.500,26.720,260.500,58.810,15.500,4.860,384.700,84.710,21.600,7.360,hard
1415.000,322.400,78.210,19.530,1967.000,441.400,112.700,26.670,261.000,58.800,15.430,4.877,385.600,84.840,21.770,7.345,hard
1420.000,322.200,79.180,19.570,1963.000,441.100,113.200,26.880,266.400,58.490,15.560,4.903,384.900,84.880,21.660,7.358,hard
1408.000,322.800,79.190,19.550,1970.000,440.600,113.000,26.870,263.500,58.610,15.580,4.908,385.800,85.050,21.760,7.397,hard
1412.000,322.100,79.570,19.770,1976.000,440.800,112.300,26.740,260.600,58.520,15.540,4.882,386.300,84.980,21.810,7.417,hard
1416.000,323.000,79.700,19.610,1975.000,442.400,113.700,26.950,263.400,59.070,15.580,4.919,388.700,85.480,21.900,7.430,hard
1432.000,326.100,80.010,19.800,1976.000,442.900,113.000,26.960,263.400,59.070,15.590,4.910,389.000,86.160,22.050,7.480,hard
1430.000,325.400,80.500,19.780,1995.000,443.400,113.900,26.990,262.200,59.100,15.650,4.931,390.600,86.120,22.070,7.509,hard
1438.000,327.100,80.070,19.970,1976.000,443.500,114.300,27.040,263.700,59.110,15.640,4.957,390.700,86.310,22.300,7.556,hard
1428.000,328.500,79.350,19.800,1991.000,444.300,113.000,26.850,262.100,59.190,15.690,4.948,391.300,85.990,22.020,7.468,hard
1439.000,326.300,79.580,19.660,1973.000,442.100,112.700,26.860,263.100,58.950,15.650,4.904,388.900,84.910,21.860,7.396,hard
1428.000,323.600,79.380,19.660,1971.000,439.300,113.400,26.860,264.800,58.820,15.560,4.896,386.400,84.800,21.730,7.368,hard
1405.000,323.600,79.010,19.590,1973.000,441.300,113.300,26.660,262.600,58.780,15.490,4.896,386.900,85.330,21.660,7.372,hard
1409.000,321.600,79.110,19.580,1980.000,440.600,113.500,26.880,263.400,58.660,15.600,4.887,386.400,85.000,21.800,7.438,hard
1416.000,327.500,79.220,19.630,1973.000,444.100,112.900,26.820,264.500,58.810,15.580,4.880,389.600,85.330,21.830,7.455,hard
1419.000,326.200,79.370,19.770,1989.000,441.800,112.900,26.770,261.600,58.940,15.600,4.897,389.500,85.470,21.860,7.424,hard
1434.000,326.300,79.690,19.830,1987.000,442.200,114.000,26.850,267.200,58.940,15.600,4.907,389.600,86.070,21.990,7.513,hard
1422.000,326.500,79.440,19.710,1986.000,442.300,113.800,26.890,263.600,59.120,15.660,4.936,390.400,86.240,22.140,7.510,hard
1434.000,325.700,80.090,20.080,1979.000,444.400,114.100,26.990,260.300,59.200,15.730,4.940,392.500,86.380,22.310,7.563,hard
1428.000,327.200,80.320,19.990,1991.000,445.100,114.000,27.070,264.700,59.180,15.730,4.943,393.700,87.040,22.350,7.599,hard
1437.000,329.700,80.360,20.170,1985.000,445.900,113.700,27.100,264.400,59.500,15.730,4.955,394.200,87.450,22.350,7.588,hard
1445.000,332.300,80.430,19.860,1986.000,443.900,114.400,26.950,263.500,59.360,15.720,4.918,391.000,86.130,22.150,7.464,hard
1429.000,327.500,79.770,19.980,1974.000,443.300,113.700,26.970,264.400,59.290,15.670,4.910,390.300,85.680,22.000,7.451,hard
1431.000,326.000,79.740,19.760,1980.000,442.100,114.200,26.860,265.600,58.980,15.710,4.886,391.000,85.680,22.040,7.448,hard
1424.000,327.700,80.110,19.720,1970.000,442.700,113.800,26.800,264.300,58.970,15.660,4.896,391.100,85.760,21.920,7.442,hard
1431.000,324.400,79.210,19.900,1979.000,441.300,113.100,26.960,264.200,59.160,15.680,4.908,390.500,86.150,22.070,7.473,hard
1420.000,328.300,79.780,19.840,1986.000,442.900,113.500,26.850,263.900,59.330,15.720,4.915,391.500,86.320,22.190,7.507,hard
1425.000,326.700,79.930,19.880,1966.000,444.500,112.800,27.080,265.000,59.200,15.600,4.917,392.000,86.400,22.080,7.532,hard
1433.000,329.700,79.860,20.030,1998.000,442.500,113.800,26.930,264.100,59.230,15.680,4.937,393.100,86.590,22.200,7.528,hard
1447.000,330.100,81.070,19.930,1984.000,444.800,114.000,27.140,266.000,59.430,15.670,4.946,394.800,87.290,22.340,7.578,hard
1437.000,328.900,80.920,20.100,1991.000,444.100,113.500,27.200,265.000,59.460,15.770,4.945,395.900,87.700,22.430,7.647,hard
1446.000,328.800,81.040,20.120,1988.000,445.200,113.600,27.050,264.700,59.570,15.810,4.962,397.100,87.480,22.500,7.646,hard
1435.000,328.100,80.550,19.850,1974.000,442.800,113.500,26.950,263.600,59.380,15.740,4.930,393.400,86.950,22.230,7.548,hard
1429.000,325.800,80.120,19.720,2002.000,444.400,113.600,26.920,263.600,59.260,15.630,4.880,390.300,86.260,22.010,7.432,hard
1436.000,324.600,78.930,19.730,1983.000,441.800,113.700,26.840,263.100,59.220,15.510,4.888,388.400,85.880,21.930,7.440,hard
1432.000,327.600,80.100,19.720,1978.000,443.000,113.700,26.860,263.100,58.900,15.550,4.882,388.900,85.470,21.860,7.416,hard
1422.000,325.500,79.880,19.760,1970.000,444.800,113.600,26.820,266.100,59.250,15.550,4.878,389.400,85.660,22.020,7.437,hard
1415.000,327.200,79.760,19.640,1972.000,442.900,114.100,26.840,263.100,59.010,15.570,4.891,388.400,86.020,22.030,7.482,hard
1425.000,324.500,80.210,19.940,1979.000,443.900,112.900,26.920,262.500,59.130,15.570,4.890,389.600,85.940,22.030,7.464,hard
1439.000,325.200,80.310,19.930,1967.000,444.400,113.100,27.070,261.600,59.170,15.640,4.908,391.000,86.290,22.130,7.469,hard
1432.000,323.800,80.330,19.920,1992.000,442.300,114.200,26.980,263.600,58.990,15.590,4.902,389.400,86.270,22.150,7.523,hard
1432.000,328.200,80.440,20.040,1989.000,442.900,114.000,27.030,262.000,59.290,15.670,4.929,391.300,86.920,22.290,7.527,hard
1439.000,327.000,80.700,20.040,1988.000,443.400,114.500,27.100,263.800,59.280,15.730,4.921,393.400,87.190,22.450,7.629,hard
1436.000,332.200,80.700,19.990,1997.000,445.100,114.300,27.070,264.200,59.390,15.730,4.954,395.200,87.260,22.530,7.597,hard
1447.000,328.500,81.460,19.810,1983.000,445.200,113.600,26.920,265.200,59.290,15.710,4.931,390.500,86.500,22.170,7.479,hard
1435.000,326.600,80.020,19.650,1979.000,442.600,113.700,26.890,261.400,58.980,15.600,4.870,389.500,85.950,21.960,7.377,hard
1426.000,325.800,79.460,19.560,1968.000,439.500,113.200,26.720,260.400,58.900,15.540,4.854,386.500,85.480,21.750,7.362,hard
1424.000,322.300,79.520,19.680,1964.000,441.600,113.300,26.930,264.000,58.810,15.500,4.880,385.000,85.350,21.730,7.377,hard
1414.000,325.100,79.360,19.750,1970.000,442.300,112.900,26.820,261.400,58.610,15.470,4.869,385.800,85.320,21.650,7.352,hard
1419.000,323.100,79.770,19.700,1977.000,442.300,114.400,26.930,262.300,58.740,15.470,4.890,385.300,85.380,21.770,7.352,hard
1417.000,324.100,78.930,19.750,1974.000,443.500,113.800,26.990,262.500,58.730,15.490,4.848,385.100,85.510,21.850,7.420,hard
1407.000,325.100,79.820,19.830,1979.000,442.500,113.200,26.930,262.000,58.860,15.490,4.872,385.000,85.210,21.900,7.374,hard
1414.000,327.000,79.880,19.880,1968.000,442.500,112.900,26.920,261.400,58.870,15.480,4.861,386.500,85.730,21.950,7.412,hard
1422.000,327.500,80.120,19.750,1981.000,441.400,112.900,26.980,262.400,58.870,15.600,4.882,386.700,85.560,22.030,7.493,hard
1426.000,324.300,80.350,19.800,1972.000,443.200,113.000,27.060,261.500,58.900,15.600,4.884,389.500,86.450,22.120,7.512,hard
1434.000,326.200,80.250,20.100,1984.000,442.800,113.200,27.060,263.900,59.060,15.620,4.901,390.100,86.670,22.360,7.551,hard
1444.000,328.300,80.810,19.950,1980.000,443.000,113.400,26.910,262.400,59.220,15.610,4.908,389.900,86.170,22.140,7.442,hard
1431.000,323.800,79.720,19.800,1975.000,440.000,113.500,26.900,264.200,58.870,15.560,4.872,385.300,85.490,21.880,7.387,hard
1426.000,324.700,79.210,19.560,1972.000,440.500,113.100,26.720,258.700,58.960,15.460,4.857,383.700,84.950,21.750,7.320,hard
1413.000,322.900,79.050,19.630,1967.000,441.300,112.600,26.800,261.100,58.610,15.460,4.856,382.400,84.870,21.630,7.332,hard
1420.000,322.200,79.280,19.670,1967.000,440.800,112.700,26.600,259.900,58.560,15.490,4.847,381.300,85.090,21.650,7.327,hard
1424.000,323.900,78.850,19.560,1967.000,439.300,112.500,26.820,261.700,58.570,15.490,4.867,382.600,84.810,21.820,7.383,hard
1416.000,323.700,79.820,19.590,1974.000,440.900,113.200,26.760,260.600,58.740,15.400,4.846,383.600,84.780,21.700,7.362,hard
1426.000,323.300,78.730,19.600,1976.000,439.700,113.500,26.850,261.100,58.670,15.480,4.858,384.500,85.050,21.980,7.421,hard
1427.000,324.800,79.140,19.730,1966.000,441.900,112.700,26.800,262.000,58.730,15.500,4.869,385.800,85.590,21.930,7.508,hard
1425.000,327.400,80.290,19.720,1976.000,442.700,113.700,26.970,262.900,58.870,15.500,4.873,386.200,85.950,22.120,7.455,hard
1430.000,324.300,80.410,19.930,1978.000,443.100,113.500,26.920,263.400,59.010,15.560,4.913,388.500,85.890,22.280,7.506,hard
1422.000,326.100,80.240,19.900,1986.000,440.000,113.500,26.720,261.700,59.130,15.600,4.911,385.200,85.340,21.850,7.413,hard
1417.000,322.700,79.140,19.540,1974.000,441.400,113.000,26.810,261.600,58.700,15.460,4.882,384.500,85.000,21.760,7.348,hard
1420.000,324.400,79.080,19.630,1971.000,440.700,112.500,26.800,261.700,58.490,15.460,4.879,383.000,85.010,21.760,7.368,hard
1416.000,324.400,78.980,19.570,1968.000,441.600,113.300,26.780,260.400,58.490,15.430,4.865,382.000,85.020,21.800,7.355,hard
1407.000,322.300,78.670,19.550,1971.000,439.300,112.900,26.730,259.300,58.530,15.440,4.836,382.300,84.800,21.770,7.341,hard
1412.000,321.900,79.960,19.580,1968.000,441.900,113.400,26.750,260.800,58.400,15.460,4.857,383.900,85.010,21.870,7.381,hard
1429.000,324.900,79.320,19.660,1989.000,441.000,113.300,26.740,258.200,58.500,15.480,4.870,384.000,85.070,22.010,7.425,hard
1432.000,324.300,79.580,19.720,1979.000,441.800,113.200,26.790,263.200,58.850,15.500,4.862,385.800,85.280,21.900,7.457,hard
1422.000,328.800,79.910,19.770,1969.000,442.500,113.800,26.630,259.700,58.660,15.470,4.873,386.500,86.010,22.110,7.487,hard
1430.000,328.200,79.680,19.870,1989.000,443.000,114.300,26.920,263.300,58.900,15.630,4.894,387.100,86.060,22.210,7.566,hard
1439.000,328.300,79.730,19.980,1968.000,442.500,113.500,26.920,263.300,59.220,15.650,4.907,387.300,85.850,22.010,7.476,hard
1426.000,325.200,79.660,19.590,1982.000,441.700,113.400,26.770,260.100,58.930,15.520,4.866,385.100,85.100,21.890,7.398,hard
1415.000,323.800,79.120,19.500,1980.000,440.400,113.700,26.770,259.400,58.500,15.560,4.847,383.800,84.930,21.770,7.383,hard
1408.000,323.000,78.730,19.670,1973.000,443.500,113.100,26.840,260.900,58.540,15.450,4.850,383.200,84.940,21.790,7.326,hard
1423.000,324.800,78.660,19.640,1974.000,440.900,112.700,26.810,261.700,58.630,15.440,4.825,383.200,84.620,21.610,7.409,hard
1419.000,321.500,79.320,19.520,1973.000,440.900,113.500,26.780,261.300,58.720,15.440,4.862,383.000,85.060,21.820,7.364,hard
1417.000,322.200,79.430,19.530,1980.000,439.800,113.200,26.740,258.800,58.640,15.510,4.886,383.100,84.990,21.940,7.339,hard
1410.000,322.800,78.820,19.710,1989.000,441.600,113.500,26.730,263.600,58.710,15.420,4.852,383.800,85.230,21.940,7.435,hard
1413.000,325.600,79.520,19.790,1977.000,443.900,113.700,26.780,259.900,58.840,15.550,4.875,386.000,86.010,21.970,7.431,hard
1430.000,324.500,79.740,19.830,1976.000,442.300,113.200,26.830,262.700,59.020,15.490,4.886,387.100,86.200,22.120,7.485,hard
1432.000,327.700,80.120,19.840,1991.000,442.500,113.900,26.900,264.100,59.180,15.590,4.871,387.800,86.330,22.190,7.539,hard
1443.000,329.100,79.480,19.680,1991.000,441.000,113.300,26.890,264.500,59.210,15.600,4.879,389.000,85.340,22.040,7.448,hard
1415.000,324.400,79.690,19.740,1977.000,441.300,112.800,26.790,262.700,58.730,15.460,4.856,385.600,85.450,21.800,7.360,hard
1425.000,325.300,79.180,19.500,1980.000,443.000,113.100,26.880,261.700,58.750,15.520,4.863,382.900,85.040,21.730,7.349,hard
1418.000,322.800,78.980,19.600,1983.000,439.600,114.000,26.740,260.500,58.690,15.470,4.847,384.500,84.800,21.720,7.353,hard
1424.000,323.700,78.350,19.380,1973.000,442.300,113.300,26.830,260.900,58.580,15.510,4.834,384.400,84.470,21.650,7.337,hard
1421.000,321.700,79.570,19.670,1973.000,442.500,113.200,26.810,262.000,58.350,15.470,4.875,383.000,84.990,21.760,7.409,hard
1418.000,324.000,78.860,19.480,1976.000,443.300,113.100,26.880,260.800,58.600,15.480,4.830,384.400,84.970,21.740,7.408,hard
1428.000,325.500,79.330,19.670,1976.000,443.100,113.300,26.830,261.500,58.410,15.490,4.853,384.800,84.780,21.860,7.453,hard
1424.000,327.400,78.910,19.710,1990.000,444.900,113.600,27.060,262.700,58.570,15.570,4.887,385.200,84.950,21.920,7.425,hard
1431.000,328.700,79.940,19.600,1980.000,440.900,113.700,26.900,262.800,58.730,15.520,4.864,386.100,85.270,22.100,7.512,hard
1432.000,326.300,80.260,19.830,1992.000,445.300,114.200,26.900,261.200,58.910,15.540,4.869,388.100,86.310,22.100,7.528,hard
1438.000,327.500,80.880,19.930,1988.000,446.300,113.700,26.890,263.100,59.290,15.610,4.912,388.500,85.610,22.080,7.455,hard
1419.000,325.300,79.300,19.600,1968.000,444.000,113.000,26.890,261.200,58.880,15.550,4.889,385.700,85.310,21.710,7.387,hard
1421.000,327.100,78.650,19.540,1979.000,442.800,112.700,26.760,263.100,58.490,15.440,4.862,384.600,84.950,21.670,7.368,hard
1420.000,322.700,78.840,19.500,1975.000,443.300,113.300,26.870,262.600,58.780,15.450,4.851,384.200,84.730,21.780,7.303,hard
1419.000,322.700,79.120,19.690,1968.000,439.600,113.900,26.800,261.200,58.730,15.550,4.833,384.600,84.590,21.810,7.348,hard
1430.000,324.100,78.960,19.510,1985.000,442.300,113.300,26.910,261.000,58.490,15.520,4.871,384.200,84.920,21.740,7.346,hard
1415.000,325.000,79.420,19.620,1974.000,442.800,113.900,26.850,261.600,58.680,15.440,4.863,384.700,85.380,21.770,7.445,hard
1428.000,327.900,78.940,19.690,1981.000,443.800,113.600,26.960,261.800,58.570,15.550,4.879,387.200,85.240,21.850,7.395,hard
1434.000,327.200,79.710,19.820,1977.000,444.800,113.900,26.980,265.700,58.870,15.560,4.897,387.400,86.210,21.950,7.515,hard
1431.000,329.200,80.590,19.810,1998.000,446.100,114.100,27.070,264.200,59.040,15.590,4.880,389.000,86.050,22.180,7.486,hard
1431.000,328.200,80.790,19.970,1990.000,444.400,114.400,27.040,263.700,59.300,15.640,4.908,390.900,86.620,22.380,7.552,hard
1443.000,330.000,80.610,19.830,1990.000,445.000,114.100,26.970,265.200,59.300,15.570,4.903,390.100,86.090,22.070,7.513,hard
1425.000,329.000,79.740,19.660,1987.000,444.200,114.300,26.980,262.200,58.990,15.510,4.868,386.900,85.730,21.950,7.447,hard
1435.000,326.900,78.940,19.600,1974.000,444.800,114.000,26.920,261.300,58.640,15.480,4.883,388.700,85.140,21.780,7.392,hard
1439.000,326.000,79.770,19.650,1991.000,443.800,114.100,26.920,262.300,59.140,15.510,4.861,387.300,85.470,21.790,7.446,hard
1433.000,328.100,79.460,19.630,1992.000,445.200,113.700,26.960,265.600,58.780,15.430,4.853,386.400,85.710,21.920,7.444,hard
1429.000,326.800,80.170,19.710,1997.000,443.300,114.000,26.870,264.900,58.920,15.580,4.867,388.300,85.820,21.970,7.484,hard
1429.000,330.400,80.340,19.820,1999.000,445.200,115.000,27.140,263.600,58.850,15.540,4.880,387.900,85.540,22.110,7.442,hard
1434.000,329.800,80.570,19.830,1996.000,445.300,114.700,27.240,263.300,59.050,15.530,4.909,389.300,86.460,22.120,7.543,hard
1428.000,332.700,79.770,20.000,1991.000,447.700,114.600,27.000,265.400,59.050,15.610,4.881,391.200,85.990,22.240,7.580,hard
1449.000,332.700,80.420,20.030,2007.000,447.400,114.400,27.070,263.600,59.190,15.580,4.923,392.800,86.750,22.320,7.618,hard
1446.000,330.600,80.210,19.750,1994.000,447.100,114.100,26.970,265.000,59.120,15.610,4.877,389.300,85.850,21.970,7.494,hard
1440.000,325.400,80.030,19.750,2003.000,443.100,113.900,26.890,262.500,58.940,15.570,4.878,389.300,85.750,21.790,7.446,hard
1433.000,326.200,79.890,19.620,1990.000,444.700,114.200,26.940,262.800,58.990,15.530,4.883,388.200,85.810,22.060,7.476,hard
1443.000,328.400,79.740,19.800,2001.000,445.600,113.700,27.120,265.700,59.010,15.510,4.892,388.000,85.700,22.000,7.411,hard
1440.000,328.500,79.820,19.850,2001.000,449.100,114.200,27.180,261.500,59.130,15.470,4.896,389.500,85.790,22.070,7.471,hard
1438.000,330.100,79.960,19.910,2000.000,447.700,114.500,27.170,264.900,59.060,15.540,4.907,390.200,86.560,22.050,7.484,hard
1442.000,330.500,80.770,19.890,2005.000,447.600,114.300,27.090,262.600,59.000,15.570,4.878,390.900,86.330,21.980,7.515,hard
1443.000,330.700,80.740,19.970,1994.000,446.500,114.100,27.250,265.700,59.190,15.590,4.890,391.900,86.660,22.240,7.567,hard
1471.000,328.200,80.670,20.020,2000.000,445.500,115.000,27.260,262.400,59.360,15.610,4.946,394.300,87.170,22.290,7.577,hard
1456.000,333.900,80.970,20.130,1999.000,446.600,114.700,27.170,266.200,59.200,15.680,4.921,394.500,86.900,22.450,7.575,hard
1447.000,329.200,80.900,19.910,2007.000,449.700,114.000,27.050,265.500,59.190,15.660,4.886,391.700,86.370,22.270,7.475,hard
1453.000,332.200,80.260,19.730,2009.000,444.700,114.300,26.920,262.500,59.420,15.550,4.868,389.200,85.760,21.920,7.456,hard
1438.000,330.600,80.120,19.720,2000.000,447.700,113.800,27.060,264.400,58.980,15.510,4.888,389.900,85.720,22.060,7.432,hard
1431.000,329.800,80.200,19.780,1990.000,444.500,114.600,26.910,264.800,58.900,15.520,4.882,388.700,86.230,21.860,7.393,hard
1436.000,328.400,80.190,19.830,2006.000,445.100,113.900,27.100,264.200,58.670,15.470,4.869,388.200,85.840,21.980,7.443,hard
1445.000,327.900,80.620,19.870,2005.000,447.700,114.100,26.940,265.200,59.170,15.530,4.870,390.300,86.300,22.110,7.448,hard
1455.000,330.100,80.080,19.870,1997.000,447.900,114.800,27.190,265.800,58.910,15.490,4.881,391.400,86.080,22.150,7.447,hard
1439.000,328.500,80.920,19.840,1998.000,446.700,114.400,27.240,263.100,59.210,15.580,4.896,391.300,86.950,22.100,7.518,hard
1449.000,330.700,79.710,19.740,1996.000,446.200,113.900,27.080,262.000,59.130,15.560,4.856,390.900,85.720,21.900,7.436,bogus
1443.000,328.200,80.170,19.890,1995.000,446.900,114.000,26.990,265.500,59.260,15.560,4.873,390.900,86.340,21.820,7.410,bogus
1450.000,329.300,80.330,19.730,1996.000,447.900,114.100,27.000,265.100,59.010,15.530,4.888,390.800,86.460,21.960,7.461,bogus
1456.000,332.200,80.540,20.010,2002.000,448.900,114.600,27.120,261.800,59.160,15.640,4.878,391.400,86.830,22.060,7.502,bogus
1451.000,331.800,80.830,19.990,1998.000,446.100,113.700,27.120,264.300,59.120,15.560,4.896,392.600,86.640,22.210,7.477,bogus
1503.000,342.400,83.050,20.760,2034.000,453.800,116.200,27.460,267.900,60.280,15.790,4.928,399.600,89.440,23.090,7.754,hard
1487.000,339.000,83.270,20.470,2021.000,451.400,115.700,27.350,268.500,60.130,15.850,4.925,397.400,88.470,22.700,7.698,hard
1484.000,335.100,82.200,20.240,2013.000,448.200,115.300,27.140,265.500,59.820,15.800,4.935,394.100,87.830,22.590,7.609,hard
1472.000,337.400,81.800,20.140,2009.000,448.000,115.700,27.180,264.300,59.710,15.690,4.854,393.200,87.340,22.560,7.609,hard
1471.000,333.800,81.560,20.150,2015.000,449.800,114.100,27.120,263.600,59.690,15.630,4.906,393.000,87.380,22.380,7.558,hard
1478.000,334.600,81.480,20.220,2003.000,448.700,115.100,27.090,265.300,59.600,15.730,4.883,392.800,87.260,22.410,7.621,hard
1471.000,333.900,81.160,20.130,2019.000,448.200,115.000,27.200,264.700,59.420,15.640,4.887,393.300,87.070,22.440,7.597,hard
1464.000,335.400,82.420,20.110,1999.000,449.000,114.600,27.190,265.900,59.490,15.700,4.911,393.900,88.210,22.670,7.660,hard
1464.000,334.100,81.620,20.290,1996.000,447.800,114.700,27.190,264.300,59.620,15.630,4.912,394.300,87.770,22.560,7.670,hard
1476.000,333.000,81.490,20.330,2016.000,450.000,115.000,27.170,265.000,59.900,15.680,4.909,394.200,88.300,22.650,7.689,hard
1474.000,334.100,82.310,20.560,2012.000,447.800,115.000,27.140,265.800,59.940,15.770,4.912,396.000,88.330,22.910,7.765,hard
1460.000,337.100,82.560,20.280,2015.000,446.700,114.400,27.060,268.100,59.970,15.790,4.881,396.600,88.590,22.680,7.695,hard
1457.000,335.600,82.040,20.280,2015.000,446.200,114.800,27.100,264.200,60.000,15.730,4.913,391.900,87.910,22.550,7.655,hard
1466.000,333.000,81.020,20.120,1993.000,444.600,114.200,27.050,262.900,59.430,15.650,4.876,392.000,87.160,22.350,7.587,hard
1461.000,334.700,81.380,20.220,2002.000,445.800,113.800,27.040,265.700,59.360,15.610,4.886,390.200,86.850,22.230,7.539,hard
1461.000,332.100,80.370,20.140,2000.000,448.500,114.000,26.910,263.400,59.450,15.610,4.854,389.100,87.200,22.220,7.536,hard
1462.000,332.800,80.340,20.080,1977.000,446.500,113.900,26.860,264.900,59.170,15.620,4.864,388.800,86.970,22.470,7.578,hard
1455.000,333.800,81.030,20.130,1992.000,446.200,113.900,27.010,263.300,59.410,15.620,4.865,390.400,86.900,22.360,7.614,hard
1460.000,333.200,81.450,20.180,1996.000,446.900,113.900,26.920,263.200,59.420,15.600,4.893,390.200,87.240,22.510,7.665,hard
1452.000,333.300,80.920,20.250,1998.000,447.100,114.300,27.040,266.600,59.440,15.580,4.869,391.700,87.330,22.480,7.630,hard
1463.000,333.200,81.590,20.160,2003.000,448.000,113.800,27.050,263.400,59.680,15.580,4.891,393.200,88.320,22.730,7.679,hard
1473.000,335.400,81.160,20.370,2005.000,445.700,113.800,26.950,265.000,59.680,15.720,4.875,393.300,87.580,22.520,7.600,hard
1458.000,332.100,80.630,20.000,1997.000,444.700,114.000,26.900,262.700,59.360,15.580,4.853,390.300,86.370,22.260,7.512,hard
1444.000,330.800,80.430,20.000,1987.000,443.600,113.300,26.850,262.900,59.330,15.530,4.851,388.800,86.590,22.140,7.535,hard
1455.000,330.000,80.430,19.960,1989.000,444.800,113.800,26.900,264.000,59.180,15.460,4.834,388.200,86.530,22.120,7.548,hard
1443.000,326.200,80.100,19.760,1991.000,445.100,114.300,26.890,260.600,58.830,15.550,4.837,387.200,86.310,22.110,7.476,hard
1446.000,330.600,80.000,19.840,1988.000,441.600,113.800,26.840,264.900,58.980,15.510,4.877,386.600,86.090,22.170,7.489,hard
1452.000,329.800,80.380,20.100,1966.000,444.800,113.300,26.950,263.900,59.200,15.540,4.828,387.500,86.740,22.200,7.564,hard
1446.000,329.700,80.590,20.160,1991.000,443.400,114.100,26.890,262.600,59.120,15.580,4.865,388.300,86.950,22.170,7.576,hard
1454.000,329.900,80.960,20.080,2002.000,441.900,114.600,26.930,262.800,59.340,15.550,4.845,388.000,87.040,22.400,7.625,hard
1442.000,331.800,81.420,20.140,1993.000,445.700,113.800,27.010,265.400,59.140,15.630,4.842,389.600,86.950,22.590,7.598,hard
1453.000,328.900,80.490,19.810,1979.000,443.300,113.900,26.730,263.600,59.280,15.520,4.848,389.700,86.340,22.230,7.546,hard
1459.000,329.900,80.500,19.890,1991.000,444.400,113.500,26.800,261.800,59.050,15.530,4.800,385.600,85.620,22.110,7.472,hard
1437.000,327.800,79.740,19.760,1980.000,442.300,113.700,26.770,263.600,58.910,15.450,4.846,386.800,85.580,22.000,7.426,hard
1439.000,325.800,80.070,19.840,1979.000,441.100,114.000,26.820,263.600,58.900,15.420,4.824,385.000,85.690,21.930,7.459,hard
1442.000,324.600,80.150,19.890,1976.000,442.400,114.000,26.900,262.800,58.940,15.470,4.813,384.200,85.430,21.970,7.458,hard
1436.000,328.500,80.040,19.840,1997.000,442.400,113.300,26.810,263.200,58.770,15.510,4.813,386.500,85.840,22.060,7.517,hard
1434.000,326.800,80.310,20.060,1995.000,443.000,113.400,26.860,261.900,58.820,15.490,4.817,384.300,86.310,22.070,7.520,hard
1440.000,327.700,79.460,19.910,1992.000,444.000,114.100,26.850,262.800,59.100,15.570,4.869,384.400,86.190,22.140,7.547,hard
1446.000,332.600,80.220,20.030,1998.000,443.900,114.200,27.010,266.900,59.050,15.490,4.882,386.100,86.380,22.240,7.521,hard
1448.000,328.400,80.610,20.180,1992.000,446.500,114.400,27.050,261.800,58.920,15.560,4.870,388.500,86.390,22.330,7.552,hard
1449.000,331.000,80.500,20.100,1993.000,443.400,114.100,26.780,262.000,59.390,15.520,4.864,388.600,86.390,22.260,7.538,hard
1438.000,325.000,80.210,19.770,1988.000,445.200,112.900,26.760,260.500,58.940,15.520,4.837,385.500,85.750,21.780,7.419,hard
1445.000,323.100,79.200,19.730,1985.000,442.200,112.800,26.850,261.400,58.900,15.430,4.794,382.600,84.760,21.890,7.360,hard
1435.000,326.500,79.060,19.580,1981.000,442.000,113.400,26.670,261.800,58.560,15.330,4.810,381.700,84.790,21.740,7.392,hard
1426.000,325.500,78.850,19.600,1983.000,440.700,112.900,26.740,260.500,58.610,15.420,4.808,381.100,84.740,21.760,7.366,hard
1435.000,324.900,79.580,19.760,1980.000,442.400,113.600,26.790,260.900,58.670,15.410,4.793,381.100,84.620,21.740,7.376,hard
1429.000,323.200,79.340,19.680,1972.000,442.000,113.500,26.660,262.100,58.540,15.360,4.805,381.400,84.850,21.770,7.362,hard
1432.000,324.600,79.190,19.690,1984.000,441.400,113.200,26.830,261.300,58.560,15.340,4.809,382.100,84.690,21.730,7.412,hard
1433.000,325.100,79.500,19.790,1989.000,442.300,113.700,26.880,262.100,59.010,15.480,4.831,382.100,85.160,21.860,7.451,hard
1444.000,325.100,80.100,19.900,1984.000,443.300,113.900,26.910,264.700,58.940,15.450,4.832,384.600,85.480,21.950,7.443,hard
1442.000,325.100,80.510,19.700,1989.000,442.100,114.300,27.040,260.000,59.110,15.390,4.834,384.700,85.780,22.090,7.570,hard
1445.000,329.000,79.520,19.900,1991.000,444.700,113.400,27.000,260.900,59.010,15.500,4.850,386.900,86.760,22.280,7.616,hard
1451.000,328.300,80.340,20.180,1996.000,446.500,113.900,26.880,262.500,59.410,15.520,4.861,388.200,87.010,22.370,7.570,hard
1433.000,326.100,80.090,19.900,1990.000,440.800,113.300,26.870,263.100,58.930,15.540,4.848,386.800,85.330,22.010,7.456,hard
1433.000,324.900,78.960,19.670,1974.000,442.100,113.200,26.640,264.500,58.830,15.400,4.843,382.400,84.980,21.670,7.375,hard
1433.000,321.700,79.330,19.550,1982.000,441.700,112.700,26.840,261.000,58.500,15.410,4.800,381.900,84.500,21.680,7.390,hard
1421.000,321.800,78.430,19.700,1970.000,440.800,113.100,26.690,259.300,58.630,15.450,4.832,380.900,84.840,21.820,7.397,hard
1424.000,320.200,78.850,19.680,1986.000,442.200,113.600,26.880,261.600,58.690,15.340,4.785,381.900,84.480,21.720,7.400,hard
1410.000,324.600,79.560,19.540,1973.000,441.000,113.400,26.770,261.400,58.790,15.440,4.813,381.300,84.420,21.710,7.429,hard
1427.000,324.500,78.880,19.800,1979.000,439.700,113.300,26.810,262.600,58.620,15.460,4.823,381.900,84.640,21.810,7.398,hard
1426.000,326.400,78.830,19.610,1977.000,441.500,113.900,26.810,261.400,58.640,15.450,4.843,382.500,85.360,21.910,7.481,hard
1428.000,324.900,79.460,19.810,1974.000,440.900,112.800,26.830,263.600,59.010,15.390,4.843,384.800,85.490,22.160,7.515,hard
1418.000,324.600,79.950,19.740,1989.000,443.000,113.500,26.960,264.800,59.080,15.460,4.845,384.800,85.500,22.130,7.508,hard
1431.000,328.300,80.190,19.990,1971.000,440.800,114.000,26.910,264.600,59.110,15.490,4.856,386.700,86.060,22.350,7.596,hard
1448.000,328.300,80.730,20.070,1982.000,443.300,114.200,27.000,263.400,59.220,15.560,4.853,388.500,86.340,22.460,7.628,hard
1453.000,328.000,80.510,19.750,1982.000,441.900,114.100,27.030,265.500,59.200,15.530,4.859,387.200,85.650,22.030,7.508,hard
1425.000,324.300,79.410,19.580,1980.000,441.100,112.900,26.770,265.000,58.890,15.500,4.841,385.500,85.200,21.870,7.438,hard
1430.000,322.900,78.870,19.590,1980.000,441.200,113.000,26.890,263.300,58.820,15.390,4.824,384.900,85.240,21.930,7.425,hard
1431.000,325.700,80.090,19.680,1975.000,442.400,113.400,26.840,262.900,58.660,15.420,4.807,383.900,84.870,21.820,7.383,hard
1438.000,323.000,78.910,19.770,1975.000,442.800,113.300,26.800,262.000,58.680,15.400,4.791,384.900,84.970,21.910,7.411,hard
1436.000,325.900,79.500,19.690,1974.000,443.600,113.800,26.920,263.400,58.640,15.390,4.819,384.700,84.970,21.860,7.438,hard
1437.000,327.300,79.110,19.680,1993.000,441.400,113.200,26.810,261.900,58.550,15.420,4.854,385.300,85.480,21.990,7.440,hard
1446.000,325.900,79.570,19.770,1993.000,441.500,113.000,26.940,262.300,58.870,15.520,4.818,387.700,85.850,22.130,7.487,hard
1451.000,324.300,80.480,19.900,1993.000,445.600,114.700,27.070,263.500,58.860,15.470,4.840,387.700,86.190,22.330,7.566,hard
1446.000,325.800,81.290,20.020,1995.000,444.500,114.500,27.150,264.800,59.240,15.580,4.867,388.400,86.510,22.450,7.594,hard
1450.000,333.600,80.300,20.100,1997.000,445.300,114.200,27.030,264.700,59.250,15.570,4.860,390.600,86.780,22.360,7.578,hard
1461.000,329.600,79.850,19.740,1993.000,444.200,113.600,26.890,265.100,59.330,15.560,4.847,388.200,85.960,22.050,7.537,hard
1429.000,325.900,79.190,19.730,1985.000,442.500,113.800,27.020,262.800,58.940,15.420,4.822,386.900,85.550,21.930,7.468,hard
1452.000,324.100,79.710,19.630,1981.000,443.700,113.100,26.860,264.000,58.570,15.470,4.818,385.000,85.120,21.910,7.425,hard
1427.000,326.500,79.300,19.750,1980.000,443.900,112.800,26.810,263.400,58.670,15.450,4.794,385.800,85.140,21.750,7.466,hard
1439.000,325.900,79.730,19.770,1988.000,443.900,114.100,26.900,262.100,58.420,15.450,4.775,385.300,85.460,21.880,7.401,hard
1435.000,326.100,79.760,19.980,1994.000,444.000,114.100,26.970,262.900,58.940,15.450,4.784,386.500,85.380,21.910,7.411,hard
1436.000,328.800,79.250,19.960,1996.000,443.400,113.400,26.980,263.000,59.010,15.460,4.842,387.400,85.770,22.030,7.493,hard
1455.000,326.200,79.850,19.980,1984.000,444.500,114.400,27.070,264.700,58.930,15.450,4.828,389.100,85.890,22.130,7.568,hard
1452.000,326.100,79.930,19.900,2005.000,445.500,115.100,27.160,262.400,59.090,15.540,4.822,388.500,86.510,22.200,7.564,hard
1448.000,329.500,80.820,19.950,1991.000,445.300,114.200,27.240,267.300,59.200,15.600,4.863,390.000,86.610,22.330,7.626,hard
1454.000,332.600,80.710,20.190,2004.000,445.600,114.600,27.230,264.800,59.260,15.600,4.863,391.500,87.060,22.550,7.624,hard
1461.000,329.700,80.530,19.910,2004.000,445.300,113.800,26.990,264.000,59.530,15.560,4.875,390.000,86.620,22.130,7.521,hard
1451.000,325.500,80.290,19.860,1988.000,444.200,114.100,26.910,264.700,59.270,15.460,4.821,387.000,85.460,21.980,7.478,hard
1447.000,326.900,79.190,19.750,1993.000,441.200,114.000,27.020,265.000,58.930,15.390,4.811,387.400,85.630,21.820,7.446,hard
1442.000,326.300,79.630,19.790,1997.000,443.700,113.500,26.800,263.300,58.970,15.460,4.813,387.000,85.830,21.920,7.408,hard
1430.000,323.000,79.100,19.890,1991.000,443.000,113.900,26.810,263.000,58.880,15.470,4.814,386.800,85.630,21.900,7.426,hard
1448.000,324.900,80.270,19.690,1989.000,444.700,113.800,26.850,263.400,58.820,15.380,4.814,388.200,85.300,21.950,7.411,hard
1441.000,325.800,79.550,19.830,1997.000,443.500,113.500,26.990,264.000,59.100,15.480,4.818,387.000,85.350,22.020,7.437,hard
1435.000,327.800,79.710,19.850,1993.000,444.800,114.500,27.090,263.600,58.990,15.480,4.811,388.600,85.840,22.170,7.448,hard
1442.000,327.700,80.170,19.860,1989.000,443.800,113.600,27.070,266.500,59.100,15.520,4.809,390.000,86.130,22.170,7.504,hard
1442.000,329.500,80.760,19.920,1996.000,445.600,115.200,26.970,266.100,59.260,15.540,4.837,391.800,86.650,22.370,7.595,hard
1456.000,327.900,80.670,20.190,1991.000,444.800,114.000,27.080,266.800,59.390,15.550,4.860,393.200,87.030,22.400,7.656,hard
1460.000,331.000,81.460,20.270,2002.000,446.600,114.400,27.130,266.800,59.560,15.700,4.877,392.300,87.400,22.400,7.656,hard
1454.000,331.500,80.690,20.190,1997.000,445.100,114.700,26.990,265.500,59.590,15.610,4.824,393.000,86.640,22.250,7.487,hard
1437.000,326.100,79.940,19.900,1983.000,445.700,113.400,27.090,264.700,59.120,15.560,4.854,390.100,86.090,21.990,7.505,hard
1442.000,327.600,79.580,19.680,1983.000,441.700,113.800,26.870,263.600,59.080,15.490,4.833,390.800,85.960,21.910,7.422,hard
1433.000,329.700,80.020,19.890,1987.000,443.400,114.000,26.960,265.600,59.050,15.520,4.824,389.000,86.100,21.930,7.454,hard
1442.000,329.100,79.850,19.770,2001.000,444.300,114.500,26.990,264.700,59.150,15.530,4.823,390.500,86.000,22.180,7.447,hard
1433.000,328.600,80.300,19.920,1999.000,441.300,114.200,27.080,264.000,59.440,15.540,4.796,390.200,86.220,22.170,7.527,hard
1457.000,329.000,80.860,20.030,1993.000,442.200,114.500,27.100,261.200,59.400,15.600,4.877,390.500,86.520,22.200,7.498,hard
1473.000,330.600,80.490,19.980,1991.000,444.200,113.900,27.040,265.800,59.280,15.640,4.851,393.000,86.470,22.330,7.549,hard
1455.000,330.900,80.730,20.110,2004.000,446.700,114.500,27.230,266.500,59.270,15.660,4.850,393.400,86.770,22.370,7.588,hard
1464.000,327.900,80.960,20.180,1991.000,447.400,114.300,27.250,265.100,59.640,15.670,4.873,393.800,87.660,22.490,7.684,hard
1470.000,332.900,81.550,20.060,1995.000,447.000,115.300,27.280,267.000,59.830,15.710,4.911,397.200,87.880,22.730,7.685,hard
1479.000,335.900,81.370,20.270,1998.000,444.300,115.100,26.970,267.500,59.880,15.710,4.888,396.100,87.450,22.490,7.602,hard
1471.000,331.300,81.200,20.060,2005.000,446.500,114.400,27.050,265.200,59.660,15.590,4.859,392.800,87.220,22.280,7.525,hard
1463.000,329.300,80.270,19.890,1989.000,445.900,114.600,27.200,264.500,59.390,15.550,4.826,393.100,86.600,22.110,7.523,hard
1464.000,328.600,80.460,19.920,1998.000,446.700,113.900,27.030,264.200,59.450,15.610,4.828,392.700,86.720,22.140,7.517,hard
1450.000,329.200,80.450,20.050,1993.000,444.300,114.200,27.160,267.300,59.600,15.670,4.838,393.600,87.210,22.150,7.550,hard
1455.000,332.000,80.780,20.020,1986.000,444.600,113.800,27.140,265.000,59.520,15.590,4.858,392.400,87.540,22.260,7.571,hard
1450.000,330.700,80.900,19.940,2007.000,446.200,115.100,27.150,267.000,59.520,15.560,4.880,394.100,87.170,22.360,7.544,hard
1453.000,331.200,80.510,20.150,1983.000,446.000,114.300,27.110,263.700,59.890,15.660,4.855,394.700,87.320,22.400,7.603,hard
1450.000,333.700,80.750,20.080,1998.000,448.800,114.600,27.160,264.700,59.690,15.800,4.871,394.400,87.850,22.620,7.667,hard
1461.000,335.300,81.190,20.280,2000.000,447.300,114.600,27.150,265.800,59.950,15.790,4.896,396.300,88.200,22.670,7.681,hard
1470.000,334.400,81.650,20.430,1994.000,446.600,115.200,27.250,267.800,60.000,15.730,4.933,397.200,88.470,22.770,7.732,hard
1468.000,335.100,82.130,20.300,2015.000,449.300,115.400,27.440,268.000,60.110,15.800,4.901,399.600,88.850,22.900,7.768,hard
1478.000,337.600,82.670,20.500,2017.000,447.600,115.400,27.200,269.100,60.120,15.790,4.899,399.600,88.350,22.620,7.677,hard
1468.000,333.500,81.230,20.080,2009.000,447.200,115.900,27.230,265.800,59.970,15.740,4.880,396.300,87.780,22.590,7.574,hard
1460.000,332.400,81.070,20.070,1996.000,444.300,114.600,27.090,268.200,59.620,15.650,4.874,395.800,87.420,22.270,7.539,hard
1466.000,333.100,80.160,20.030,1998.000,442.700,114.200,27.110,267.200,59.860,15.720,4.860,394.600,87.400,22.460,7.573,hard
1454.000,331.300,80.370,20.030,1988.000,447.300,114.400,27.270,264.600,59.650,15.680,4.843,395.400,87.410,22.370,7.568,hard
1440.000,330.500,81.150,20.090,2001.000,446.600,115.100,27.130,267.600,59.840,15.690,4.864,395.400,87.410,22.360,7.588,hard
1457.000,333.500,81.210,20.220,1984.000,446.300,115.000,27.280,264.100,59.870,15.740,4.851,394.800,87.890,22.610,7.543,hard
1453.000,334.100,80.750,20.150,2009.000,446.500,114.800,27.240,266.400,59.940,15.640,4.866,395.200,87.820,22.510,7.582,hard
1462.000,334.400,81.510,20.200,1997.000,447.800,114.500,27.170,266.700,59.840,15.700,4.882,395.500,87.790,22.550,7.629,hard
1462.000,336.600,81.700,20.290,1993.000,446.300,115.300,27.260,268.700,59.970,15.800,4.870,397.600,88.290,22.680,7.634,hard
1462.000,336.600,81.840,20.470,2005.000,446.500,115.200,27.180,266.300,60.020,15.740,4.889,399.200,88.650,22.740,7.684,hard
1473.000,336.000,81.950,20.320,2000.000,448.000,115.000,27.140,267.500,60.230,15.750,4.858,399.100,88.410,22.430,7.602,hard
1461.000,334.200,81.710,20.090,1994.000,447.600,114.400,27.090,267.000,59.490,15.700,4.802,394.200,87.460,22.390,7.494,hard
1446.000,329.200,80.620,19.840,1981.000,444.100,113.700,27.020,266.900,59.360,15.720,4.773,391.600,86.950,22.270,7.382,hard
1444.000,329.700,80.910,19.980,1984.000,443.100,113.800,27.050,267.100,59.320,15.730,4.729,393.400,86.460,22.200,7.415,hard
1437.000,329.800,80.060,19.750,1974.000,444.700,114.900,26.910,264.400,59.310,15.700,4.754,392.200,86.550,22.170,7.364,hard
1438.000,327.600,79.970,19.980,1988.000,445.300,114.300,26.920,265.200,59.100,15.670,4.775,393.000,87.250,22.170,7.468,hard
1450.000,330.900,81.120,20.000,1989.000,443.000,114.400,26.990,267.100,59.330,15.690,4.798,394.100,87.240,22.350,7.504,hard
1440.000,330.500,81.040,19.830,1986.000,443.200,114.100,26.980,268.100,59.640,15.710,4.814,393.200,87.270,22.430,7.523,hard
1440.000,331.600,80.690,20.090,1981.000,445.800,114.300,27.000,267.400,59.690,15.680,4.849,395.100,87.410,22.470,7.562,hard
1452.000,327.300,81.460,20.200,1999.000,447.700,115.000,27.290,267.000,59.590,15.720,4.864,395.900,87.960,22.510,7.643,hard
1456.000,332.600,80.870,20.050,1975.000,444.500,114.400,26.980,266.200,59.800,15.680,4.865,395.200,87.020,22.380,7.486,hard
1447.000,332.900,80.620,19.680,1978.000,442.500,114.400,26.940,266.100,59.690,15.600,4.837,391.500,86.710,22.090,7.475,hard
1446.000,330.400,79.830,20.040,1992.000,445.000,113.500,26.990,265.200,59.490,15.650,4.822,391.100,86.650,22.190,7.498,hard
1436.000,328.500,79.950,19.750,1980.000,443.600,114.100,26.970,266.000,59.440,15.500,4.850,390.500,87.010,22.130,7.463,hard
1442.000,327.700,80.180,19.870,1985.000,442.900,114.300,27.070,265.700,59.350,15.560,4.842,389.200,86.610,22.160,7.461,hard
1443.000,328.200,80.340,19.760,1982.000,443.200,113.900,26.980,263.500,59.490,15.590,4.852,391.000,87.010,22.200,7.503,hard
1439.000,328.400,80.680,19.840,1984.000,445.600,113.800,26.990,264.600,59.300,15.560,4.830,390.500,86.480,22.260,7.500,hard
1448.000,329.200,81.120,20.050,1991.000,445.100,114.400,27.110,265.000,59.740,15.720,4.879,390.700,86.820,22.180,7.604,hard
1435.000,329.500,81.060,19.990,1979.000,444.500,114.300,27.050,266.800,59.780,15.610,4.865,392.700,86.960,22.160,7.528,hard
1446.000,326.800,80.420,19.870,1977.000,444.500,113.700,26.950,265.500,59.630,15.550,4.880,388.700,86.310,21.990,7.435,hard
1438.000,330.300,79.740,19.810,1986.000,445.100,114.100,26.920,266.500,59.340,15.510,4.851,388.200,85.930,21.970,7.442,hard
1443.000,328.400,79.770,19.670,1973.000,441.700,113.400,26.820,264.000,59.440,15.540,4.860,387.900,86.030,21.920,7.426,hard
1434.000,327.300,79.370,19.670,1976.000,440.600,113.200,26.850,263.800,59.330,15.500,4.855,388.000,85.920,21.950,7.403,hard
1439.000,325.600,79.650,19.650,1969.000,441.500,114.200,27.010,265.300,59.400,15.590,4.843,388.600,86.120,21.940,7.420,hard
1440.000,324.400,80.170,19.670,1979.000,444.500,114.400,27.000,265.100,59.360,15.550,4.831,388.700,86.170,22.060,7.534,hard
1440.000,326.200,80.240,19.920,1972.000,442.500,113.100,27.050,264.900,59.490,15.550,4.841,390.300,86.850,22.000,7.506,hard
1445.000,329.000,80.650,19.840,1975.000,442.700,113.700,26.950,266.200,59.390,15.610,4.875,389.100,86.840,22.230,7.504,hard
1440.000,329.200,80.540,20.070,1971.000,441.900,114.600,27.010,266.600,59.700,15.660,4.870,390.900,87.200,22.200,7.570,hard
1440.000,329.800,80.810,20.120,1981.000,441.600,114.300,26.920,264.300,59.910,15.640,4.899,391.000,87.530,22.220,7.528,hard
1429.000,326.000,80.520,19.870,1972.000,440.000,113.500,26.870,268.300,59.380,15.580,4.861,387.700,86.280,21.930,7.447,hard
1427.000,326.500,79.500,19.770,1965.000,440.800,113.100,26.810,264.600,59.490,15.550,4.844,387.000,85.490,21.860,7.346,hard
1431.000,325.100,79.400,19.530,1973.000,439.000,112.700,26.770,264.100,59.280,15.530,4.837,386.800,85.670,21.820,7.415,hard
1426.000,325.300,79.260,19.610,1971.000,437.400,113.200,26.700,266.700,59.410,15.520,4.831,387.000,85.730,21.670,7.350,hard
1426.000,322.200,79.570,19.560,1953.000,438.900,113.600,26.730,265.700,59.340,15.500,4.832,385.200,85.440,21.860,7.353,hard
1428.000,324.100,79.080,19.770,1965.000,440.400,113.200,26.770,266.700,59.100,15.530,4.845,386.300,85.340,21.860,7.401,hard
1422.000,325.300,79.240,19.710,1956.000,438.400,112.800,26.650,263.800,59.120,15.540,4.841,385.800,85.520,21.940,7.421,hard
1430.000,325.000,79.690,19.810,1956.000,441.200,113.000,26.750,261.900,59.480,15.530,4.848,386.400,86.150,22.060,7.459,hard
1449.000,324.700,79.800,19.810,1978.000,440.700,113.000,26.810,264.400,59.170,15.640,4.863,388.900,86.850,22.140,7.496,hard
1434.000,328.400,79.700,19.870,1982.000,441.100,113.600,26.920,263.500,59.520,15.580,4.880,389.500,87.120,22.300,7.543,hard
1445.000,324.500,80.360,19.820,1979.000,441.600,113.400,26.820,265.700,59.460,15.620,4.871,389.300,86.760,22.220,7.461,hard
1431.000,326.700,79.650,19.740,1976.000,438.400,113.000,26.550,263.100,59.080,15.530,4.834,385.800,85.950,21.820,7.421,hard
1415.000,325.600,79.170,19.680,1982.000,438.700,112.600,26.700,263.100,59.340,15.500,4.827,385.000,85.410,21.830,7.424,hard
1428.000,323.200,78.700,19.470,1968.000,439.200,113.000,26.590,261.900,59.400,15.520,4.825,383.100,85.480,21.790,7.394,hard
1431.000,324.000,79.240,19.610,1966.000,437.000,112.200,26.670,260.500,59.290,15.540,4.837,385.100,85.290,21.750,7.382,hard
1429.000,326.300,78.930,19.760,1980.000,441.900,113.000,26.690,263.600,59.110,15.550,4.841,385.000,85.650,21.910,7.418,hard
1437.000,326.800,79.030,19.840,1970.000,441.300,112.900,26.670,261.800,59.310,15.570,4.850,386.400,85.750,22.010,7.376,hard
1431.000,323.600,79.660,20.010,1978.000,439.600,113.400,26.760,261.900,59.160,15.560,4.870,386.800,85.960,21.920,7.501,hard
1433.000,326.500,80.060,19.800,1981.000,438.000,113.400,26.750,263.800,59.390,15.580,4.871,387.800,86.120,22.090,7.501,hard
1439.000,325.200,80.310,19.960,1980.000,441.600,113.900,26.880,266.300,59.640,15.630,4.888,389.400,86.130,22.270,7.487,hard
1443.000,326.500,81.150,20.250,1991.000,442.100,114.600,27.010,263.900,59.510,15.590,4.868,390.900,87.330,22.450,7.591,hard
1451.000,325.900,81.480,19.940,1985.000,444.900,113.800,27.040,264.900,59.820,15.750,4.893,392.500,87.480,22.260,7.582,hard
1439.000,326.600,80.680,19.890,1975.000,444.800,113.200,26.690,264.700,59.730,15.590,4.865,388.600,86.340,22.180,7.494,hard
1442.000,324.900,79.900,19.770,1978.000,440.800,113.100,26.800,263.500,59.630,15.590,4.863,388.700,86.200,21.990,7.422,hard
1429.000,325.700,79.620,19.690,1988.000,441.600,114.100,26.830,260.600,59.260,15.610,4.850,386.800,86.050,22.030,7.442,hard
1443.000,326.600,79.940,19.690,2000.000,439.700,113.300,26.920,262.700,59.490,15.630,4.849,388.300,85.530,21.970,7.477,hard
1455.000,327.100,80.180,19.990,1983.000,442.900,113.700,26.930,265.100,59.340,15.620,4.827,388.000,86.130,22.030,7.450,hard
1440.000,327.800,79.630,19.990,1984.000,442.900,113.800,26.880,264.500,59.520,15.610,4.888,388.900,86.420,22.190,7.505,hard
1452.000,329.700,80.940,20.010,1979.000,442.100,114.200,26.900,264.500,59.520,15.600,4.859,390.200,86.710,22.170,7.490,hard
1446.000,329.100,80.430,19.980,2001.000,443.400,114.000,26.980,265.800,59.800,15.610,4.886,391.700,86.950,22.190,7.558,hard
1454.000,330.800,80.720,20.030,1998.000,445.300,114.800,26.940,264.700,59.780,15.760,4.869,392.100,87.010,22.520,7.616,hard
1460.000,333.200,80.760,20.250,2001.000,444.300,114.300,27.060,265.200,59.760,15.800,4.943,394.400,87.650,22.610,7.657,hard
1469.000,334.600,81.690,20.360,2003.000,445.800,114.800,27.100,266.900,59.870,15.780,4.891,395.200,88.200,22.690,7.713,hard
1464.000,331.800,81.700,20.410,2001.000,444.500,114.700,27.020,264.400,60.190,15.780,4.925,395.600,87.880,22.640,7.611,hard
1466.000,334.200,81.460,20.070,1995.000,445.600,113.900,26.960,264.000,59.820,15.730,4.871,391.500,87.310,22.380,7.576,hard
1456.000,332.600,81.630,20.060,1994.000,444.700,114.300,26.870,265.800,59.900,15.660,4.887,391.300,86.720,22.210,7.499,hard
1462.000,328.200,81.600,20.210,1998.000,447.800,113.600,26.960,266.800,59.760,15.610,4.927,390.700,87.160,22.260,7.547,hard
1443.000,333.400,80.980,20.110,2003.000,441.600,114.200,27.020,265.700,59.760,15.640,4.918,392.100,87.400,22.440,7.534,hard
1463.000,328.600,81.000,20.220,1994.000,445.700,114.500,27.030,266.500,59.880,15.780,4.900,394.800,87.330,22.380,7.581,hard
1459.000,331.800,81.730,20.190,1996.000,446.100,114.200,27.010,266.200,59.940,15.720,4.925,394.800,87.420,22.550,7.619,hard
1472.000,331.600,81.740,20.220,1999.000,447.600,115.200,27.070,265.600,59.930,15.740,4.923,395.400,87.540,22.690,7.681,hard
1466.000,332.000,82.080,20.250,2006.000,445.300,115.200,27.170,266.900,59.980,15.840,4.921,395.200,88.170,22.670,7.685,hard
1473.000,335.300,82.300,20.400,2004.000,447.400,114.600,27.140,266.000,60.030,15.750,4.902,397.900,88.400,22.710,7.750,hard
1471.000,335.900,81.790,20.450,2005.000,449.100,116.100,27.220,265.900,60.080,15.900,4.939,398.300,88.770,22.810,7.771,hard
1481.000,337.400,82.600,20.400,2017.000,448.100,115.600,27.210,271.000,60.280,15.840,4.944,400.500,89.000,23.010,7.739,hard
1488.000,338.200,82.600,20.340,2009.000,448.900,114.200,27.020,266.000,60.270,15.830,4.915,397.200,88.450,22.690,7.640,hard
1488.000,331.300,81.900,20.360,2003.000,446.700,115.200,27.060,266.800,59.920,15.710,4.900,395.900,88.270,22.510,7.633,hard
1473.000,335.100,81.480,20.220,1999.000,445.500,115.100,27.120,264.700,59.900,15.730,4.890,395.600,87.570,22.480,7.585,hard
1472.000,334.300,81.150,20.110,1994.000,448.300,115.000,27.020,266.800,59.790,15.700,4.883,394.500,87.510,22.520,7.612,hard
1464.000,332.800,82.060,20.370,2005.000,448.100,114.600,27.100,265.100,59.660,15.740,4.885,394.500,87.780,22.510,7.625,hard
1473.000,335.300,81.670,20.470,2011.000,446.900,115.100,26.960,265.800,59.750,15.680,4.916,395.300,87.940,22.640,7.639,hard
1473.000,333.900,81.820,20.410,2006.000,449.400,115.100,27.180,264.200,59.860,15.680,4.889,396.700,87.990,22.680,7.696,hard
1472.000,335.800,82.220,20.450,2013.000,449.600,115.300,27.090,267.300,59.860,15.760,4.907,397.900,87.900,22.810,7.691,hard
1473.000,334.600,82.120,20.450,2007.000,450.500,115.500,27.110,266.500,59.990,15.800,4.904,397.500,89.120,22.840,7.718,hard
1471.000,336.100,82.420,20.460,2008.000,448.900,115.000,27.260,267.300,60.080,15.800,4.944,399.500,88.800,22.990,7.777,hard
1484.000,340.900,83.010,20.810,2010.000,450.300,115.200,27.290,267.200,60.220,15.850,4.924,400.100,89.280,22.990,7.794,hard
1481.000,338.800,82.670,20.400,2011.000,449.100,114.800,27.180,269.800,60.130,15.780,4.907,398.500,88.260,22.680,7.649,hard
1474.000,335.000,82.130,20.390,2006.000,447.100,115.300,27.080,267.900,59.950,15.690,4.897,397.200,87.980,22.440,7.633,hard
1470.000,337.400,81.380,20.290,2003.000,447.600,114.400,27.000,265.400,59.920,15.710,4.874,397.800,87.890,22.490,7.675,hard
1464.000,336.800,82.110,20.210,2014.000,448.500,115.100,26.880,264.900,59.790,15.730,4.888,395.600,88.270,22.550,7.577,hard
1466.000,338.100,81.540,20.240,2002.000,446.000,114.700,27.050,266.000,59.770,15.640,4.902,397.500,87.710,22.550,7.647,hard
1466.000,333.600,81.550,20.360,2016.000,447.000,115.200,27.270,264.100,59.870,15.740,4.888,396.700,88.300,22.730,7.681,hard
1464.000,334.200,81.740,20.370,2002.000,449.900,114.500,27.100,267.800,59.920,15.670,4.913,398.900,88.050,22.560,7.674,hard
1489.000,337.600,82.390,20.480,2016.000,450.000,115.200,27.340,268.600,59.940,15.650,4.897,399.400,88.590,22.790,7.733,hard
1478.000,337.200,82.440,20.380,2009.000,449.800,115.400,27.230,270.900,59.900,15.830,4.925,398.100,88.870,22.800,7.781,hard
1485.000,338.400,83.280,20.600,2009.000,448.200,115.200,27.340,265.900,60.110,15.730,4.937,401.400,89.450,22.930,7.816,hard
1485.000,340.100,82.770,20.620,2010.000,449.300,115.700,27.250,267.900,60.210,15.780,4.940,400.600,89.440,23.090,7.844,hard
1479.000,336.800,82.320,20.550,2013.000,449.700,115.400,27.130,268.100,60.260,15.790,4.903,399.800,89.010,22.860,7.741,hard
1470.000,339.000,82.380,20.340,1999.000,446.700,115.300,26.950,267.200,60.030,15.710,4.889,396.900,88.640,22.620,7.611,hard
1473.000,336.300,81.720,20.370,2012.000,446.300,114.900,27.070,266.200,59.900,15.690,4.873,397.400,88.310,22.600,7.651,hard
1465.000,334.700,81.720,20.270,2007.000,448.300,114.200,27.040,268.500,60.020,15.680,4.897,396.300,87.980,22.600,7.661,hard
1466.000,335.500,81.600,20.330,2000.000,446.200,114.900,27.020,267.700,59.960,15.660,4.894,396.800,87.840,22.630,7.632,hard
1471.000,334.600,81.780,20.500,1997.000,449.800,114.100,27.100,267.800,59.900,15.770,4.892,397.200,88.280,22.780,7.632,hard
