A-DC1,A-DC2,A-DC3,A-DC4,A-DC5,A-DC6,A-DC7,A-DC8,B-DC1,B-DC2,B-DC3,B-DC4,B-DC5,B-DC6,B-DC7,B-DC8,condition
1675.000,353.700,84.420,23.220,1421.000,307.700,69.850,16.900,132.300,16.280,3.190,1.012,382.900,58.730,12.130,3.954,baseline
1667.000,350.700,83.960,23.150,1405.000,307.000,70.520,16.940,133.400,16.270,3.135,1.018,382.100,58.720,11.980,3.988,baseline
1672.000,350.300,84.340,23.270,1412.000,306.300,70.150,16.990,130.100,16.130,3.123,1.020,380.400,58.670,12.050,4.010,baseline
1683.000,353.600,84.290,23.460,1423.000,308.500,69.570,17.040,130.200,15.920,3.087,1.014,382.700,58.890,12.050,3.933,baseline
1684.000,354.100,84.870,23.500,1417.000,308.200,70.370,17.120,132.700,16.010,3.178,1.015,383.700,59.050,12.190,3.984,baseline
1702.000,354.500,84.680,23.390,1420.000,307.400,70.350,17.120,130.300,16.100,3.160,1.024,385.200,59.230,12.200,3.960,baseline
1681.000,351.200,84.470,23.180,1429.000,306.200,69.800,16.890,126.100,16.060,3.149,1.016,380.300,57.630,11.750,3.967,baseline
1665.000,349.300,83.960,23.150,1430.000,307.400,70.450,17.220,128.000,15.860,3.019,1.030,375.400,58.040,11.920,3.986,baseline
1663.000,353.400,84.690,23.540,1443.000,312.200,71.960,17.460,126.400,15.830,3.030,1.033,379.200,58.180,11.940,3.950,baseline
1687.000,360.600,86.150,23.630,1440.000,312.700,71.680,17.320,126.100,15.790,3.086,1.008,377.900,57.710,11.740,3.953,baseline
1703.000,354.700,85.160,23.600,1445.000,312.600,71.720,17.400,129.800,15.660,3.053,1.028,376.000,57.690,11.910,3.969,baseline
1696.000,357.400,84.460,23.580,1447.000,312.100,71.680,17.350,126.500,15.840,3.093,1.009,379.800,57.990,11.850,3.929,baseline
1690.000,360.700,85.370,23.810,1444.000,311.100,71.750,17.400,127.900,15.540,3.130,1.019,379.400,58.960,11.950,4.025,baseline
1726.000,356.400,85.490,23.910,1450.000,313.600,71.200,17.270,127.600,15.550,3.089,1.023,383.700,58.340,12.030,3.968,baseline
1688.000,356.800,84.500,23.640,1439.000,311.000,71.300,17.100,125.500,15.800,3.086,1.007,377.000,57.480,11.620,3.991,baseline
1688.000,354.800,84.170,23.320,1429.000,310.600,71.310,17.150,128.500,15.610,3.027,1.019,376.000,57.270,11.640,3.913,baseline
1675.000,346.100,84.000,23.130,1426.000,310.100,70.960,17.250,127.300,15.690,3.077,1.004,375.500,57.510,11.840,3.947,baseline
1665.000,349.900,84.120,23.430,1425.000,311.800,71.160,17.260,125.900,15.610,3.069,1.035,372.900,57.010,11.720,3.961,baseline
1669.000,354.100,83.940,23.260,1416.000,308.900,71.330,17.340,125.300,15.490,3.082,1.033,373.300,56.850,11.820,3.845,baseline
1663.000,353.600,84.460,23.430,1438.000,309.900,71.600,17.280,130.300,15.480,3.079,1.037,375.500,57.540,11.780,3.968,baseline
1678.000,352.800,84.240,23.500,1432.000,311.900,71.360,17.200,126.500,15.700,3.041,1.035,375.200,57.640,11.950,3.976,baseline
1679.000,354.300,84.520,23.560,1446.000,312.300,71.970,17.310,128.200,15.590,3.054,1.031,380.300,57.980,11.810,4.010,baseline
1685.000,351.800,84.230,23.440,1432.000,309.700,71.040,17.120,127.400,15.710,3.089,1.013,374.900,56.870,11.750,3.888,baseline
1657.000,351.000,83.850,23.140,1421.000,307.300,70.720,17.150,125.800,15.550,3.058,1.037,370.600,56.310,11.720,3.904,baseline
1641.000,348.000,82.870,23.110,1414.000,307.600,69.970,17.030,127.800,15.890,3.046,1.030,371.900,56.100,11.480,3.887,baseline
1639.000,348.500,83.080,23.050,1406.000,308.600,70.740,17.010,127.200,15.520,3.013,1.036,369.700,55.940,11.620,3.864,baseline
1632.000,349.500,83.500,22.970,1418.000,306.500,70.720,17.040,125.200,15.660,3.069,1.036,369.900,56.560,11.680,3.872,baseline
1638.000,348.900,82.780,22.950,1406.000,305.000,70.110,17.190,126.000,15.450,3.057,1.036,370.400,56.760,11.620,3.881,baseline
1639.000,350.200,83.040,23.130,1426.000,306.400,70.720,17.090,129.400,15.290,3.064,1.017,373.000,56.630,11.670,3.913,baseline
1647.000,349.200,83.280,23.070,1420.000,306.900,70.500,17.180,127.800,15.610,3.093,1.043,375.100,57.420,11.800,3.924,baseline
1667.000,349.600,82.910,23.220,1415.000,309.100,70.680,16.960,127.900,15.720,3.039,1.050,375.500,56.730,11.720,3.929,baseline
1628.000,343.100,81.970,22.780,1422.000,304.400,71.010,17.000,126.900,15.470,3.110,1.036,366.600,55.330,11.430,3.835,baseline
1638.000,338.900,81.820,22.770,1406.000,304.300,70.200,17.020,124.000,15.470,3.070,1.031,368.600,55.390,11.490,3.873,baseline
1625.000,341.100,81.630,22.820,1410.000,306.000,70.180,17.060,125.400,15.320,3.078,1.046,367.400,55.630,11.460,3.871,baseline
1618.000,343.900,81.730,22.610,1413.000,304.000,70.410,17.010,126.300,15.340,3.050,1.027,366.600,55.860,11.320,3.824,baseline
1630.000,343.600,80.980,22.680,1407.000,306.800,70.310,16.990,125.200,15.370,3.074,1.050,365.300,55.450,11.420,3.882,baseline
1633.000,341.700,82.340,22.850,1419.000,307.600,70.600,17.240,125.600,15.280,3.133,1.019,367.200,56.200,11.450,3.907,baseline
1621.000,341.800,82.630,22.910,1420.000,309.300,70.780,17.090,123.300,15.360,3.072,1.028,365.800,55.990,11.650,3.906,baseline
1642.000,346.100,82.540,23.040,1425.000,309.800,70.090,17.170,125.900,15.310,3.034,1.045,368.700,56.020,11.590,3.835,baseline
1635.000,343.100,81.860,22.830,1418.000,307.000,70.900,17.120,127.200,15.420,3.076,1.056,366.300,55.180,11.380,3.893,baseline
1629.000,342.900,81.350,22.520,1424.000,307.900,70.760,17.080,124.200,15.330,3.099,1.030,358.600,54.990,11.270,3.780,baseline
1624.000,342.600,81.430,22.560,1413.000,305.400,70.450,17.170,124.100,15.240,3.054,1.053,360.700,54.780,11.310,3.810,baseline
1619.000,337.700,80.650,22.570,1420.000,305.900,70.770,17.200,127.000,15.020,3.077,1.041,360.000,54.570,11.160,3.845,baseline
1629.000,341.000,81.420,22.450,1437.000,309.300,71.610,17.250,126.200,15.310,3.031,1.050,362.300,54.730,11.080,3.769,baseline
1633.000,339.700,80.850,22.590,1412.000,309.700,70.860,17.240,126.800,15.200,3.100,1.063,364.000,54.460,11.300,3.775,baseline
1627.000,341.600,82.020,22.760,1430.000,311.200,71.320,17.420,124.300,15.220,3.088,1.049,365.800,55.360,11.370,3.898,baseline
1652.000,343.800,82.600,22.840,1435.000,312.800,72.210,17.410,128.300,15.320,3.072,1.058,364.300,55.260,11.360,3.924,baseline
1647.000,343.200,82.560,22.860,1432.000,310.900,71.990,17.480,125.500,15.330,3.093,1.084,368.800,54.950,11.330,3.880,baseline
1657.000,344.600,81.750,22.820,1433.000,313.000,71.880,17.470,123.400,15.150,3.067,1.057,359.100,54.150,10.960,3.794,baseline
1646.000,343.100,82.210,22.550,1441.000,314.700,71.750,17.470,124.600,15.100,3.050,1.070,356.100,53.840,11.130,3.824,baseline
1629.000,339.700,81.500,22.810,1436.000,310.800,71.930,17.520,121.800,15.160,3.073,1.050,358.600,53.600,11.050,3.791,baseline
1634.000,340.900,80.850,22.560,1450.000,312.500,71.940,17.500,125.200,15.200,3.145,1.087,357.200,53.610,11.150,3.827,baseline
1612.000,341.200,81.580,22.720,1431.000,311.500,72.040,17.510,122.700,15.240,3.073,1.054,359.100,54.330,11.130,3.784,baseline
1628.000,341.500,81.760,22.700,1450.000,316.100,72.250,17.680,125.700,15.240,3.101,1.078,360.800,54.310,11.350,3.859,baseline
1621.000,345.200,82.420,22.840,1445.000,313.400,72.840,17.630,124.200,15.420,3.140,1.067,360.700,54.320,11.230,3.874,baseline
1639.000,342.200,81.810,22.970,1455.000,319.100,73.090,17.850,124.600,15.330,3.155,1.078,364.500,54.560,11.220,3.888,baseline
1653.000,346.900,83.470,22.980,1465.000,316.300,73.640,17.890,124.200,15.210,3.173,1.084,366.500,55.210,11.340,3.914,baseline
1653.000,345.300,82.850,22.900,1442.000,317.800,73.060,17.680,123.300,15.200,3.062,1.071,362.000,54.330,11.050,3.766,baseline
1637.000,341.100,81.030,22.630,1448.000,319.900,72.150,17.720,124.600,15.260,3.093,1.068,358.200,53.290,11.030,3.813,baseline
1632.000,339.500,81.220,22.720,1447.000,315.100,72.620,17.700,126.200,15.200,3.147,1.067,357.800,53.560,11.140,3.808,baseline
1642.000,339.600,82.040,22.750,1457.000,316.500,73.390,17.800,124.400,15.140,3.126,1.091,358.100,53.580,10.980,3.746,baseline
1632.000,340.900,81.640,22.640,1445.000,319.900,72.960,17.770,124.700,15.600,3.217,1.093,357.400,54.070,11.340,3.853,baseline
1651.000,344.400,81.480,22.540,1466.000,320.900,73.400,17.860,124.000,15.540,3.193,1.091,363.300,54.460,11.490,3.811,baseline
1654.000,345.100,82.310,22.740,1464.000,321.900,73.920,17.910,126.600,15.540,3.186,1.097,365.900,55.210,11.330,3.819,baseline
1672.000,347.800,83.050,23.000,1483.000,325.500,73.860,18.020,126.100,15.510,3.140,1.094,368.000,55.300,11.450,3.881,baseline
1677.000,347.900,83.040,23.080,1491.000,326.000,74.530,18.130,125.800,15.490,3.241,1.112,367.100,55.390,11.430,3.920,baseline
1684.000,351.500,83.700,23.290,1492.000,327.500,75.550,18.190,127.000,15.640,3.252,1.104,370.100,55.450,11.490,3.961,baseline
1700.000,353.400,83.610,23.270,1502.000,328.000,75.220,18.190,127.700,15.680,3.259,1.121,369.500,56.160,11.480,3.896,baseline
1672.000,348.100,83.330,22.980,1492.000,326.400,74.740,18.190,126.700,15.570,3.217,1.102,362.100,54.380,11.280,3.852,baseline
1669.000,346.200,82.640,22.800,1496.000,327.000,74.770,18.290,124.600,15.450,3.234,1.114,362.800,54.250,11.160,3.848,baseline
1683.000,348.600,83.220,23.030,1497.000,328.500,75.220,18.320,123.200,15.460,3.231,1.112,363.100,54.210,11.320,3.844,baseline
1664.000,348.800,83.640,23.020,1492.000,328.300,75.720,18.420,127.200,15.470,3.209,1.113,360.700,54.140,11.050,3.761,baseline
1680.000,347.100,83.340,23.290,1497.000,330.100,77.050,18.540,126.600,15.440,3.185,1.069,360.200,54.220,11.160,3.781,baseline
1702.000,353.500,84.730,23.500,1511.000,333.000,76.640,18.520,123.400,15.230,3.174,1.066,361.400,53.920,11.160,3.830,baseline
1682.000,353.600,83.530,23.710,1507.000,335.600,76.830,18.710,124.400,15.300,3.114,1.109,364.300,55.000,11.370,3.803,baseline
1704.000,357.600,84.920,23.670,1530.000,334.000,76.670,18.690,124.500,15.430,3.164,1.090,365.800,55.120,11.390,3.876,baseline
1729.000,357.800,85.210,23.740,1500.000,336.100,76.250,18.750,127.200,15.570,3.133,1.082,364.900,54.860,11.280,3.870,baseline
1691.000,354.300,83.940,23.530,1508.000,332.800,76.700,18.790,124.800,15.410,3.166,1.122,360.200,54.230,11.260,3.844,baseline
1681.000,352.200,84.590,23.560,1520.000,334.800,76.940,18.790,128.900,15.440,3.172,1.120,360.400,54.000,11.230,3.851,baseline
1686.000,350.200,83.940,23.530,1521.000,335.700,76.600,18.730,123.100,15.440,3.182,1.117,361.100,53.870,11.100,3.825,baseline
1697.000,353.800,84.850,23.720,1526.000,339.900,77.830,18.800,125.100,15.550,3.253,1.116,360.900,54.020,11.060,3.807,baseline
1699.000,357.400,85.680,23.710,1515.000,338.000,77.930,19.130,125.900,15.670,3.236,1.126,364.500,54.380,11.150,3.881,baseline
1718.000,358.300,85.840,23.960,1546.000,342.100,78.850,19.290,127.900,15.600,3.255,1.124,363.600,54.590,11.270,3.897,baseline
1707.000,360.700,86.250,24.200,1543.000,340.700,78.510,19.190,124.400,15.660,3.301,1.124,367.400,55.200,11.430,3.875,baseline
1716.000,364.400,87.550,24.120,1542.000,342.500,78.690,19.170,126.400,15.630,3.272,1.132,368.700,55.720,11.630,3.911,baseline
1714.000,360.500,86.000,23.920,1535.000,340.900,78.090,19.040,128.300,15.630,3.262,1.133,362.700,53.940,11.210,3.845,baseline
1707.000,355.800,85.560,23.780,1516.000,337.800,77.510,18.960,125.600,15.450,3.182,1.120,359.300,53.330,11.070,3.762,baseline
1684.000,357.900,85.570,23.530,1534.000,337.800,78.340,18.910,125.700,15.430,3.199,1.142,358.600,53.350,11.220,3.849,baseline
1684.000,355.900,85.470,23.710,1526.000,338.700,78.460,19.110,128.500,15.340,3.232,1.114,359.700,54.200,11.270,3.808,baseline
1709.000,359.200,85.380,23.960,1534.000,340.400,78.230,19.250,122.700,15.300,3.235,1.123,357.500,53.940,11.220,3.861,baseline
1696.000,360.300,86.190,24.000,1536.000,337.900,78.860,19.180,124.200,15.510,3.202,1.114,362.200,54.710,11.390,3.902,baseline
1723.000,363.100,86.110,24.190,1541.000,340.900,78.290,19.350,123.800,15.520,3.278,1.133,365.900,54.360,11.530,3.860,baseline
1736.000,359.800,86.880,24.320,1547.000,341.900,79.260,19.190,126.600,15.560,3.270,1.139,367.300,55.600,11.340,3.921,baseline
1714.000,361.000,86.810,24.250,1543.000,341.800,79.280,19.290,125.200,15.560,3.229,1.127,363.500,53.620,10.940,3.857,baseline
1711.000,359.000,86.000,24.080,1537.000,341.100,78.210,19.250,125.300,15.460,3.236,1.133,356.400,53.100,11.120,3.831,baseline
1704.000,356.100,86.120,23.960,1525.000,344.200,78.430,19.230,122.400,15.310,3.188,1.142,357.500,53.250,10.950,3.833,baseline
1704.000,358.700,87.110,24.100,1538.000,340.200,78.550,19.080,126.400,15.500,3.162,1.117,355.900,53.740,11.020,3.844,baseline
1702.000,359.200,86.460,24.060,1539.000,340.500,78.690,19.140,124.200,15.420,3.199,1.110,357.800,52.970,11.190,3.839,baseline
1712.000,364.000,86.820,24.370,1550.000,341.700,79.230,19.170,122.700,15.360,3.214,1.141,359.000,53.660,11.130,3.855,baseline
1729.000,364.500,87.550,24.300,1535.000,341.800,78.940,19.310,126.300,15.340,3.243,1.133,359.800,54.540,11.240,3.898,baseline
1719.000,365.000,87.030,24.450,1553.000,341.500,79.230,19.280,123.400,15.470,3.225,1.104,365.000,54.610,11.200,3.870,baseline
1730.000,362.100,87.240,24.540,1545.000,342.300,79.030,19.200,125.200,15.380,3.233,1.118,363.700,54.380,11.280,3.809,baseline
1721.000,359.600,86.840,24.250,1533.000,340.700,78.900,19.180,124.900,15.410,3.185,1.103,357.700,53.400,11.220,3.843,baseline
1706.000,360.500,87.150,24.140,1532.000,341.300,78.310,19.170,124.100,15.440,3.247,1.112,359.600,53.220,10.940,3.771,baseline
1710.000,356.800,87.350,24.280,1537.000,343.400,78.090,19.160,125.500,15.450,3.200,1.127,358.100,53.960,11.200,3.808,baseline
1719.000,363.600,87.550,24.380,1530.000,340.000,78.350,19.330,123.800,15.260,3.294,1.126,361.900,54.320,11.200,3.862,baseline
1719.000,361.700,86.960,24.380,1535.000,339.800,78.410,19.080,123.800,15.580,3.269,1.156,362.400,54.190,11.300,3.859,baseline
1723.000,361.100,87.580,24.520,1540.000,343.100,78.670,19.260,125.700,15.600,3.258,1.129,363.200,54.290,11.400,3.923,baseline
1738.000,367.500,87.990,24.660,1547.000,339.600,78.320,19.220,126.600,15.420,3.297,1.137,365.500,55.200,11.390,3.957,baseline
1738.000,371.300,88.320,24.700,1543.000,341.500,79.180,19.130,124.600,15.490,3.289,1.149,369.200,55.240,11.510,3.923,baseline
1731.000,367.900,88.310,24.540,1526.000,340.300,78.390,19.030,124.600,15.370,3.265,1.124,364.300,54.590,11.290,3.852,baseline
1732.000,364.300,87.830,24.410,1535.000,339.500,77.210,18.890,123.900,15.330,3.229,1.117,360.200,53.680,11.260,3.819,baseline
1715.000,359.600,87.660,24.480,1542.000,336.800,77.580,19.070,125.100,15.380,3.235,1.114,358.900,54.270,11.180,3.802,baseline
1709.000,364.600,86.990,24.610,1549.000,335.900,78.450,19.080,124.000,15.580,3.241,1.120,360.800,53.750,11.360,3.840,baseline
1738.000,365.300,87.340,24.610,1532.000,337.000,77.300,19.110,124.700,15.360,3.273,1.101,360.700,54.360,11.250,3.899,baseline
1745.000,363.400,88.340,24.550,1543.000,337.100,77.710,19.070,122.700,15.300,3.234,1.113,364.100,54.680,11.350,3.907,baseline
1741.000,367.800,88.380,24.760,1542.000,340.500,77.840,19.050,127.200,15.220,3.273,1.101,366.300,54.890,11.500,3.906,baseline
1762.000,368.700,89.180,25.000,1545.000,337.500,78.010,19.120,127.500,15.400,3.223,1.115,368.900,55.410,11.520,3.899,baseline
1775.000,370.500,88.790,25.020,1559.000,339.000,78.180,19.100,126.100,15.250,3.223,1.115,367.800,55.480,11.560,3.928,baseline
1744.000,367.700,88.230,24.920,1547.000,338.900,77.440,18.880,123.500,15.210,3.187,1.114,361.700,54.050,11.150,3.824,baseline
1734.000,366.900,88.170,24.790,1528.000,337.700,78.090,19.020,125.100,15.300,3.203,1.091,359.300,53.730,11.100,3.818,baseline
1751.000,369.300,87.950,24.870,1536.000,339.500,77.390,18.930,123.400,15.150,3.167,1.106,362.200,53.980,11.150,3.885,baseline
1752.000,364.800,87.860,24.890,1542.000,342.500,77.730,18.960,124.700,15.230,3.204,1.085,362.300,54.420,11.230,3.817,baseline
1746.000,367.700,88.670,24.870,1540.000,340.900,78.320,19.000,127.400,15.260,3.184,1.085,364.400,54.880,11.270,3.896,baseline
1749.000,367.500,89.690,25.110,1542.000,341.100,78.210,18.970,124.000,15.090,3.188,1.074,364.800,55.540,11.250,3.891,baseline
1767.000,370.900,89.450,25.120,1558.000,341.000,78.060,19.120,125.400,15.350,3.182,1.111,365.300,55.670,11.470,3.869,baseline
1779.000,375.600,90.550,25.140,1565.000,343.000,77.980,19.060,125.000,15.410,3.143,1.092,369.200,55.150,11.440,3.869,baseline
1772.000,372.200,90.140,25.000,1542.000,338.000,77.520,19.000,123.700,15.230,3.104,1.078,362.300,54.440,11.130,3.841,baseline
1745.000,366.800,88.550,24.970,1551.000,341.500,77.380,18.990,123.600,15.130,3.122,1.085,361.600,54.000,11.120,3.882,baseline
1749.000,370.500,88.890,25.000,1539.000,339.400,77.660,19.030,123.300,14.930,3.117,1.091,361.500,54.400,11.310,3.845,baseline
1760.000,372.600,89.170,25.200,1548.000,336.500,77.450,18.940,124.300,15.230,3.178,1.066,363.300,54.440,11.280,3.896,baseline
1760.000,373.500,88.720,25.100,1539.000,337.900,77.990,18.900,124.200,15.260,3.124,1.111,363.600,54.350,11.240,3.916,baseline
1775.000,373.500,90.440,25.200,1559.000,341.300,77.910,18.990,124.100,15.290,3.141,1.081,365.800,54.540,11.360,3.877,baseline
1778.000,375.200,90.370,25.510,1549.000,341.400,77.390,19.000,124.100,15.150,3.094,1.085,368.100,55.270,11.410,3.942,baseline
1799.000,375.800,91.080,25.520,1568.000,337.700,77.960,18.930,122.900,15.120,3.125,1.064,371.900,56.160,11.560,3.935,baseline
1772.000,374.300,89.980,24.990,1543.000,336.700,77.380,18.880,122.900,15.400,3.163,1.058,363.200,54.990,11.260,3.828,baseline
1762.000,368.300,89.290,25.100,1546.000,336.600,77.680,18.670,125.700,15.070,3.133,1.062,359.800,54.410,11.240,3.828,baseline
1749.000,371.000,89.330,25.190,1536.000,337.900,77.420,18.780,122.400,15.100,3.101,1.062,363.300,53.660,11.020,3.868,baseline
1746.000,372.200,89.430,25.100,1538.000,337.100,76.850,18.760,123.100,15.070,3.042,1.053,364.500,54.370,11.240,3.843,baseline
1771.000,369.300,90.190,25.070,1531.000,336.200,77.070,18.760,124.900,15.180,3.096,1.074,363.300,54.470,11.440,3.832,baseline
1781.000,372.900,90.090,25.330,1534.000,340.200,77.350,18.780,124.300,15.120,3.076,1.055,365.400,55.020,11.420,3.925,baseline
1785.000,371.700,91.200,25.690,1536.000,340.200,77.000,18.820,125.100,15.120,3.086,1.081,366.800,55.140,11.430,3.946,baseline
1795.000,378.600,91.230,25.630,1557.000,337.700,77.830,18.910,124.000,15.250,3.082,1.077,366.800,55.780,11.520,3.958,baseline
1804.000,380.200,90.840,25.830,1549.000,338.600,77.240,18.630,125.900,15.390,3.092,1.069,366.100,55.520,11.440,3.885,baseline
1788.000,374.200,89.770,25.320,1553.000,335.800,76.700,18.570,121.900,15.030,3.047,1.066,362.400,54.290,11.320,3.805,baseline
1778.000,374.300,90.210,25.170,1533.000,336.500,76.440,18.630,125.300,15.060,3.042,1.043,362.000,54.360,11.220,3.893,baseline
1767.000,375.400,90.050,25.350,1540.000,336.100,77.220,18.840,122.900,15.000,3.080,1.047,363.700,54.680,11.320,3.855,baseline
1760.000,374.900,89.740,25.140,1526.000,336.800,77.180,18.730,126.000,15.090,3.089,1.061,364.100,54.360,11.280,3.930,baseline
1785.000,372.000,89.670,25.250,1528.000,334.800,76.530,18.730,127.800,14.920,3.089,1.064,363.900,55.150,11.250,3.904,baseline
1787.000,377.900,90.820,25.620,1534.000,337.800,77.470,18.830,123.700,15.100,3.104,1.027,367.300,55.180,11.410,3.881,baseline
1790.000,377.300,91.020,25.410,1532.000,336.000,77.180,18.900,123.900,15.120,3.163,1.070,367.200,55.230,11.610,3.963,baseline
1810.000,377.200,90.410,25.670,1534.000,334.200,76.970,18.830,124.400,15.150,3.132,1.051,368.700,55.420,11.450,3.919,baseline
1783.000,372.100,89.510,25.500,1542.000,335.400,77.030,18.780,127.800,15.170,3.045,1.068,360.800,54.110,11.280,3.860,baseline
1771.000,372.800,90.380,25.180,1523.000,334.000,76.040,18.610,126.500,14.960,3.088,1.029,362.000,54.680,11.230,3.874,baseline
1783.000,373.600,90.400,25.130,1540.000,336.900,76.910,18.700,128.400,15.030,3.077,1.058,365.000,54.130,11.320,3.829,baseline
1781.000,375.600,89.750,25.120,1525.000,333.700,76.310,18.630,122.600,15.140,3.093,1.052,363.000,54.830,11.320,3.880,baseline
1785.000,372.400,89.710,25.440,1528.000,335.700,76.550,18.610,126.000,14.940,3.059,1.063,364.400,55.200,11.360,3.841,baseline
1803.000,376.500,90.760,25.490,1531.000,332.700,76.570,18.710,125.600,15.170,3.081,1.063,368.000,54.750,11.300,3.959,baseline
1798.000,376.300,90.660,25.410,1535.000,336.500,76.480,18.720,124.400,15.140,3.119,1.075,366.500,55.270,11.540,3.937,baseline
1795.000,376.500,91.200,25.700,1537.000,332.300,76.580,18.430,124.200,15.230,3.097,1.078,370.300,55.430,11.510,3.977,baseline
1787.000,375.400,89.890,25.150,1523.000,334.000,76.140,18.530,124.500,14.830,3.125,1.060,364.300,54.830,11.190,3.845,baseline
1777.000,372.600,90.010,25.120,1529.000,335.800,76.310,18.510,123.700,14.870,3.087,1.038,361.200,54.360,11.270,3.836,baseline
1773.000,372.500,89.620,25.110,1522.000,332.500,76.450,18.570,124.000,15.200,3.071,1.055,366.200,54.140,11.250,3.881,baseline
1750.000,372.600,90.600,25.310,1530.000,335.400,76.150,18.510,122.500,15.340,3.060,1.071,366.600,54.280,11.390,3.905,baseline
1762.000,372.800,90.450,25.150,1532.000,333.200,77.040,18.630,122.000,15.170,3.067,1.072,364.900,54.760,11.350,3.869,baseline
1801.000,375.300,90.660,25.430,1547.000,337.300,76.220,18.790,124.200,15.120,3.077,1.056,367.800,55.580,11.540,3.923,baseline
1787.000,378.600,92.120,25.420,1540.000,335.400,77.170,18.770,124.800,15.010,3.094,1.078,368.500,55.930,11.480,3.950,baseline
1799.000,381.300,91.600,25.540,1536.000,334.100,77.260,18.730,124.600,15.250,3.081,1.081,368.600,56.230,11.460,3.996,baseline
1799.000,378.100,90.240,25.330,1512.000,334.700,76.100,18.640,125.000,15.230,3.115,1.079,366.300,54.650,11.220,3.875,baseline
1777.000,374.100,90.450,25.300,1520.000,334.400,76.930,18.680,124.100,14.980,3.084,1.082,363.200,54.150,11.310,3.923,baseline
1785.000,371.900,90.500,25.190,1524.000,333.200,76.350,18.590,125.500,15.280,3.072,1.077,364.100,54.620,11.390,3.946,baseline
1788.000,371.700,90.120,25.210,1512.000,332.200,76.300,18.620,123.400,15.280,3.132,1.089,369.000,55.110,11.420,3.893,baseline
1770.000,373.800,89.070,25.060,1527.000,330.400,75.960,18.490,124.900,15.460,3.137,1.091,368.500,55.350,11.360,3.984,baseline
1769.000,372.700,89.630,25.130,1510.000,332.500,76.360,18.410,125.700,15.220,3.185,1.078,366.200,54.970,11.340,3.956,baseline
1786.000,373.600,89.630,25.180,1513.000,330.500,76.140,18.380,125.800,15.320,3.074,1.078,366.100,55.740,11.350,3.960,baseline
1777.000,373.700,89.670,25.120,1510.000,330.000,75.890,18.220,127.800,15.220,3.135,1.074,371.400,55.470,11.400,3.904,baseline
1787.000,371.800,89.190,24.980,1499.000,328.400,74.160,18.160,125.300,15.330,3.065,1.062,371.700,55.030,11.280,3.915,baseline
1745.000,370.300,88.170,24.530,1495.000,325.000,74.840,18.070,125.800,15.120,3.109,1.071,363.000,54.150,11.060,3.862,baseline
1752.000,366.800,87.770,24.510,1496.000,324.700,74.350,18.100,123.300,15.350,3.119,1.074,364.900,53.970,11.150,3.922,baseline
1752.000,366.600,87.780,24.550,1491.000,325.300,74.760,18.110,123.200,15.220,3.106,1.068,365.000,54.250,11.140,3.873,baseline
1762.000,369.300,87.100,24.490,1497.000,326.100,75.460,18.140,124.100,15.220,3.093,1.093,360.200,53.650,11.210,3.873,baseline
1760.000,364.700,87.920,24.540,1480.000,325.600,74.460,18.210,122.200,15.390,3.145,1.081,364.700,55.290,11.260,3.898,baseline
1752.000,366.500,88.140,24.700,1500.000,326.200,75.410,18.210,124.200,15.310,3.130,1.096,371.000,55.090,11.260,3.903,baseline
1757.000,368.400,88.460,24.620,1502.000,326.800,74.790,18.280,126.200,15.410,3.123,1.063,373.500,55.000,11.370,3.949,baseline
1772.000,367.700,88.800,24.750,1503.000,327.200,75.530,18.350,126.800,15.270,3.121,1.067,372.100,55.480,11.560,3.891,baseline
1771.000,367.500,88.820,24.590,1490.000,326.900,74.750,18.320,124.700,15.230,3.175,1.076,367.200,54.940,11.280,3.907,baseline
1745.000,363.600,87.450,24.260,1503.000,324.900,75.300,18.140,124.500,15.220,3.153,1.083,363.600,53.980,11.190,3.878,baseline
1747.000,363.700,87.220,24.460,1495.000,326.200,74.900,18.140,125.500,15.220,3.130,1.091,364.000,53.700,11.260,3.875,baseline
1748.000,364.800,87.130,24.430,1487.000,326.400,74.460,18.210,123.200,15.330,3.173,1.079,365.100,54.380,11.240,3.869,baseline
1746.000,366.200,87.900,24.320,1495.000,326.900,74.960,18.220,125.500,15.440,3.132,1.081,366.000,54.550,11.320,3.802,baseline
1745.000,366.800,88.160,24.560,1496.000,328.000,74.930,18.300,124.700,15.240,3.133,1.099,368.200,54.620,11.200,3.939,baseline
1762.000,369.900,87.610,24.530,1499.000,327.700,75.600,18.270,127.800,15.270,3.114,1.073,369.000,55.140,11.290,3.922,baseline
1762.000,369.100,88.890,24.390,1497.000,328.000,75.610,18.420,124.800,15.320,3.164,1.103,371.600,55.800,11.480,3.900,baseline
1769.000,370.900,89.290,24.520,1512.000,328.500,75.740,18.250,124.500,15.410,3.173,1.086,369.500,55.110,11.300,3.879,baseline
1734.000,365.000,87.350,24.430,1498.000,327.000,74.930,18.160,126.700,15.200,3.213,1.091,366.200,54.240,11.040,3.813,baseline
1741.000,369.400,87.640,24.140,1497.000,329.100,74.630,18.140,123.200,15.220,3.145,1.106,364.500,54.450,11.110,3.855,baseline
1737.000,362.900,87.660,24.410,1499.000,327.200,74.740,18.170,123.500,15.470,3.227,1.090,368.100,54.340,11.510,3.844,baseline
1737.000,365.200,87.790,24.150,1503.000,325.200,74.510,18.270,125.600,15.430,3.227,1.110,364.600,54.400,11.290,3.854,baseline
1735.000,366.100,89.280,24.320,1505.000,330.100,75.580,18.310,123.300,15.360,3.217,1.108,365.900,54.310,11.190,3.880,baseline
1760.000,367.100,88.150,24.550,1506.000,329.700,75.960,18.540,124.200,15.260,3.245,1.072,365.500,54.470,11.360,3.896,baseline
1745.000,368.100,89.170,24.730,1510.000,332.200,75.800,18.440,122.300,15.190,3.211,1.121,365.100,55.180,11.250,3.894,baseline
1754.000,370.900,88.800,24.860,1510.000,330.500,76.470,18.480,125.600,15.170,3.148,1.101,369.400,54.940,11.490,3.867,baseline
1770.000,369.700,88.450,24.650,1493.000,328.800,76.010,18.350,125.500,15.170,3.222,1.093,361.200,53.980,11.240,3.831,baseline
1741.000,366.500,87.220,24.250,1502.000,329.600,74.720,18.200,123.500,15.430,3.178,1.088,360.000,54.120,11.170,3.828,baseline
1733.000,367.900,87.690,24.480,1493.000,326.400,75.340,18.210,123.000,15.400,3.180,1.099,363.300,54.280,11.080,3.846,baseline
1735.000,368.400,86.710,24.330,1488.000,329.000,74.860,18.190,126.100,15.360,3.207,1.096,364.300,54.340,11.220,3.778,baseline
1726.000,364.300,86.720,24.140,1484.000,325.600,75.010,18.170,127.400,15.410,3.180,1.090,364.900,54.440,11.240,3.834,baseline
1740.000,365.900,86.760,24.300,1489.000,324.500,74.290,18.120,128.500,15.410,3.233,1.107,366.200,54.410,11.280,3.878,baseline
1752.000,363.900,87.640,24.200,1487.000,325.800,74.480,18.120,123.800,15.450,3.225,1.085,365.300,54.480,11.390,3.872,baseline
1752.000,365.700,88.630,24.570,1486.000,324.300,74.010,18.050,124.600,15.590,3.210,1.106,365.700,55.230,11.400,3.889,baseline
1734.000,364.100,87.680,24.200,1484.000,321.200,73.380,18.040,126.700,15.640,3.195,1.109,363.700,54.130,11.220,3.763,baseline
1719.000,358.700,86.490,24.190,1470.000,326.200,74.010,18.130,125.700,15.380,3.159,1.088,359.200,53.310,11.060,3.767,baseline
1726.000,362.500,86.850,23.960,1480.000,324.400,73.940,18.110,125.500,15.440,3.217,1.095,363.200,53.420,11.120,3.767,baseline
1737.000,362.000,87.130,24.220,1486.000,323.300,74.610,18.260,121.400,15.530,3.188,1.106,362.400,53.970,11.220,3.826,baseline
1736.000,364.900,85.960,24.360,1491.000,326.300,75.060,18.390,121.800,15.270,3.170,1.103,362.100,53.510,11.160,3.835,baseline
1736.000,366.300,87.770,24.470,1511.000,329.200,76.140,18.520,123.000,15.350,3.249,1.134,364.200,54.400,11.250,3.951,baseline
1748.000,369.300,88.420,24.820,1502.000,332.200,76.510,18.530,125.400,15.230,3.223,1.119,365.200,54.480,11.220,3.910,baseline
1762.000,368.100,88.530,24.730,1512.000,329.400,76.060,18.430,126.700,15.310,3.176,1.117,366.600,54.700,11.250,3.923,baseline
1761.000,370.400,88.690,24.490,1499.000,327.800,75.820,18.390,127.800,15.390,3.153,1.133,361.700,53.130,10.960,3.842,baseline
1742.000,365.200,88.610,24.280,1503.000,328.000,75.060,18.450,125.700,15.060,3.167,1.111,358.100,53.080,10.970,3.830,baseline
1731.000,365.800,87.280,24.280,1505.000,330.500,75.770,18.480,121.400,15.140,3.144,1.100,356.100,53.320,10.830,3.788,baseline
1746.000,362.500,87.750,24.350,1505.000,328.400,75.980,18.340,121.400,15.110,3.150,1.119,357.200,53.660,10.950,3.838,baseline
1727.000,363.400,87.430,24.260,1500.000,331.300,75.310,18.460,122.000,15.130,3.166,1.105,357.300,52.870,10.970,3.801,baseline
1747.000,363.100,86.970,24.240,1502.000,329.700,75.870,18.510,121.700,15.000,3.177,1.113,359.900,53.000,10.880,3.749,baseline
1749.000,365.500,88.110,24.300,1511.000,332.500,76.040,18.500,124.000,15.000,3.182,1.093,359.500,53.750,11.040,3.833,baseline
1741.000,368.000,88.490,24.640,1520.000,331.700,76.250,18.550,124.800,15.070,3.139,1.122,361.100,53.260,11.110,3.803,baseline
1775.000,370.400,88.300,24.490,1503.000,330.300,75.590,18.370,122.700,15.220,3.163,1.088,359.400,53.910,10.960,3.747,baseline
1738.000,366.800,87.510,24.180,1511.000,329.900,76.090,18.440,122.800,15.180,3.177,1.101,353.800,52.840,10.920,3.700,baseline
1747.000,366.100,87.880,24.040,1504.000,330.200,75.860,18.520,122.100,15.120,3.165,1.085,353.500,52.450,10.770,3.719,baseline
1732.000,361.400,87.740,24.320,1506.000,331.900,76.790,18.540,121.600,15.040,3.156,1.117,354.300,52.680,10.950,3.771,baseline
1755.000,363.000,87.570,24.280,1518.000,330.100,76.560,18.610,123.100,14.930,3.139,1.082,353.400,52.450,10.870,3.718,baseline
1751.000,365.800,87.930,24.510,1514.000,333.200,77.520,18.580,124.200,15.060,3.201,1.094,354.000,52.480,10.910,3.820,baseline
1776.000,369.500,88.460,24.410,1528.000,335.500,77.210,18.810,124.100,15.040,3.135,1.114,356.000,53.540,10.960,3.846,baseline
1764.000,367.200,88.840,24.580,1534.000,338.200,77.860,18.920,123.200,15.140,3.205,1.114,358.200,53.430,11.140,3.803,baseline
1792.000,375.000,89.390,24.870,1550.000,339.200,77.530,19.140,123.400,15.100,3.174,1.113,359.900,53.960,11.190,3.830,baseline
1777.000,372.200,89.070,24.650,1543.000,339.700,78.830,18.960,123.700,15.000,3.126,1.124,355.300,52.370,10.710,3.761,baseline
1777.000,369.300,89.010,24.420,1542.000,341.300,78.790,18.920,123.200,14.900,3.152,1.102,351.800,52.030,10.860,3.747,baseline
1773.000,366.700,88.750,24.520,1544.000,340.600,78.270,18.930,120.300,15.140,3.167,1.103,353.700,52.400,10.870,3.815,baseline
1771.000,371.000,88.640,24.430,1544.000,342.200,78.590,19.090,120.400,14.920,3.129,1.123,353.600,52.480,10.990,3.756,baseline
1767.000,370.500,88.740,24.370,1556.000,341.900,78.250,19.120,123.600,15.140,3.156,1.116,353.800,52.290,10.860,3.785,baseline
1775.000,373.200,89.280,24.750,1542.000,346.200,79.160,19.020,122.500,14.980,3.213,1.082,354.500,52.490,10.930,3.761,baseline
1785.000,373.100,89.620,24.820,1562.000,342.600,79.050,19.140,125.500,15.130,3.132,1.113,357.300,53.330,11.070,3.886,baseline
1791.000,377.400,89.820,24.900,1560.000,343.500,78.620,19.250,121.400,15.170,3.144,1.111,360.200,53.510,10.840,3.809,baseline
1782.000,375.100,90.230,24.960,1572.000,342.100,79.910,19.230,124.100,15.020,3.233,1.129,352.800,52.590,10.790,3.727,baseline
1771.000,370.900,88.760,24.560,1553.000,341.500,79.070,19.040,119.100,15.090,3.151,1.101,352.200,51.950,10.790,3.859,baseline
1780.000,369.100,89.060,24.510,1555.000,341.800,79.430,19.110,122.600,15.020,3.171,1.102,352.100,52.230,10.760,3.793,baseline
1765.000,373.300,88.660,24.550,1550.000,341.700,79.450,19.190,124.200,15.080,3.158,1.093,353.500,52.550,10.970,3.811,baseline
1778.000,372.500,89.460,24.600,1556.000,345.500,79.280,19.230,122.100,15.030,3.235,1.111,354.900,52.500,10.900,3.775,baseline
1785.000,376.400,90.010,24.930,1571.000,345.500,80.020,19.370,120.100,15.280,3.128,1.130,356.000,52.820,11.000,3.871,baseline
1789.000,376.900,90.680,24.870,1567.000,348.500,80.930,19.550,125.600,15.320,3.237,1.173,361.700,53.890,10.930,3.892,baseline
1787.000,379.000,90.630,25.220,1565.000,351.700,80.950,19.540,124.600,15.130,3.193,1.150,361.800,54.360,11.130,3.895,baseline
1816.000,379.000,91.120,25.240,1585.000,352.700,81.480,19.640,122.500,15.150,3.215,1.138,365.700,54.380,11.240,3.945,baseline
1818.000,383.000,90.590,25.170,1580.000,351.000,80.850,19.460,122.600,15.500,3.252,1.146,363.700,54.430,11.060,3.824,baseline
1802.000,378.900,90.450,24.890,1563.000,348.800,80.690,19.330,124.300,15.160,3.202,1.134,356.200,52.480,10.850,3.838,baseline
1773.000,376.200,89.250,24.810,1568.000,350.200,80.570,19.460,121.800,15.200,3.191,1.126,353.100,52.460,10.940,3.810,baseline
1787.000,375.500,89.630,24.550,1562.000,350.400,80.980,19.480,126.000,15.210,3.212,1.111,354.300,52.650,10.860,3.825,baseline
1783.000,376.300,89.490,24.900,1579.000,350.900,80.420,19.660,126.000,15.180,3.193,1.147,354.500,52.140,10.830,3.776,baseline
1780.000,375.000,90.590,24.930,1571.000,349.700,80.660,19.600,123.300,15.170,3.217,1.118,358.700,53.180,10.930,3.833,baseline
1792.000,375.600,90.270,25.050,1588.000,351.100,80.510,19.690,122.600,15.370,3.278,1.144,359.800,53.250,11.130,3.859,baseline
1818.000,379.200,90.410,25.090,1584.000,354.000,81.580,19.600,124.100,15.360,3.241,1.115,358.200,54.100,10.990,3.887,baseline
1814.000,376.500,91.820,25.290,1582.000,349.100,81.430,19.770,121.500,15.190,3.195,1.127,363.300,53.700,11.270,3.876,baseline
1800.000,383.300,92.680,25.360,1584.000,355.100,82.190,19.880,126.200,15.410,3.241,1.150,362.600,54.310,11.270,3.905,baseline
1816.000,384.300,91.960,25.570,1589.000,355.400,81.770,19.750,123.900,15.420,3.216,1.117,365.400,54.010,11.140,3.890,baseline
1809.000,379.100,89.900,24.970,1584.000,353.600,81.160,19.670,123.800,15.290,3.283,1.119,357.100,52.780,10.930,3.776,baseline
1786.000,377.100,90.290,25.060,1588.000,349.200,81.510,19.510,124.100,15.080,3.197,1.135,355.500,52.220,10.960,3.792,baseline
1788.000,374.700,90.490,25.010,1581.000,352.700,81.060,19.790,122.700,15.230,3.164,1.128,357.000,52.550,11.070,3.791,baseline
1802.000,378.100,91.140,25.040,1581.000,353.500,81.330,19.750,122.400,15.250,3.188,1.113,357.400,52.680,11.050,3.823,baseline
1807.000,376.700,90.900,25.060,1586.000,352.100,81.490,19.710,125.000,15.160,3.157,1.136,356.600,52.940,10.990,3.873,baseline
1807.000,383.200,90.560,25.170,1588.000,354.200,82.050,19.800,122.400,15.250,3.193,1.135,360.200,53.750,11.130,3.868,baseline
1811.000,382.100,91.030,25.390,1590.000,353.000,82.140,19.840,126.300,15.480,3.201,1.119,361.800,54.550,11.160,3.898,baseline
1809.000,385.800,91.370,25.440,1583.000,356.000,81.020,19.840,126.600,15.530,3.195,1.129,361.800,53.910,11.100,3.900,baseline
1820.000,377.900,91.490,25.730,1589.000,355.100,81.480,19.860,123.700,15.440,3.195,1.115,363.000,54.160,11.250,3.889,baseline
1835.000,388.200,93.130,25.580,1596.000,356.000,82.420,20.020,125.100,15.250,3.200,1.123,366.500,54.800,11.380,3.966,baseline
1838.000,385.700,93.150,25.830,1585.000,353.500,82.620,19.760,126.000,15.540,3.226,1.138,364.800,54.560,11.140,3.858,baseline
1807.000,380.800,91.430,25.190,1577.000,354.100,82.160,19.810,123.500,15.200,3.173,1.114,357.100,52.480,10.980,3.788,baseline
1810.000,381.800,91.680,25.310,1585.000,354.000,81.340,19.580,120.100,15.140,3.240,1.096,359.500,53.160,11.120,3.794,baseline
1809.000,378.800,91.350,25.400,1598.000,355.000,81.540,19.730,123.800,15.150,3.154,1.112,359.000,52.960,11.130,3.850,baseline
1803.000,375.300,91.800,25.300,1580.000,355.600,81.630,19.830,121.700,15.170,3.231,1.119,359.600,53.430,11.170,3.806,baseline
1791.000,382.100,90.700,25.510,1574.000,355.700,82.260,19.960,122.300,15.100,3.163,1.122,359.100,53.630,11.160,3.893,baseline
1817.000,381.100,91.930,25.480,1586.000,355.600,81.410,19.940,122.800,15.230,3.174,1.111,362.700,53.530,10.960,3.855,baseline
1827.000,383.300,91.870,25.620,1589.000,357.100,81.980,19.940,124.700,15.380,3.184,1.086,367.100,54.810,11.140,3.830,baseline
1821.000,389.200,93.630,25.770,1593.000,355.600,82.010,19.970,123.100,15.370,3.179,1.115,365.100,54.360,11.490,3.934,baseline
1844.000,387.200,93.610,26.120,1600.000,357.000,81.900,19.830,124.100,15.450,3.191,1.104,367.900,55.450,11.450,3.986,baseline
1842.000,384.900,92.940,25.220,1580.000,354.600,81.440,19.790,124.700,15.280,3.192,1.105,361.000,53.420,11.040,3.828,baseline
1816.000,380.900,91.710,25.410,1597.000,353.000,81.430,19.820,123.000,15.050,3.208,1.093,357.700,53.070,11.080,3.881,baseline
1828.000,383.400,91.490,25.640,1593.000,355.800,81.590,19.760,125.300,15.150,3.181,1.091,359.200,53.690,11.030,3.848,baseline
1821.000,381.400,91.310,25.530,1589.000,352.200,81.550,19.730,121.200,15.280,3.127,1.114,360.300,53.600,11.070,3.885,baseline
1808.000,382.700,91.780,25.690,1585.000,353.900,80.710,19.720,121.200,15.130,3.218,1.085,360.600,53.570,11.090,3.892,baseline
1809.000,380.800,91.360,25.360,1592.000,355.000,81.350,19.780,122.900,15.120,3.213,1.079,362.600,54.230,11.350,3.864,baseline
1828.000,386.200,92.480,25.710,1583.000,355.000,80.850,19.870,125.500,15.400,3.238,1.099,366.400,55.000,11.360,3.868,baseline
1840.000,390.100,92.450,25.960,1581.000,356.400,81.810,19.930,124.800,15.300,3.186,1.097,367.200,55.220,11.540,3.973,baseline
1845.000,384.800,93.350,26.050,1594.000,356.300,81.080,19.840,125.800,15.350,3.205,1.108,370.300,55.750,11.510,3.923,baseline
1834.000,385.500,92.960,25.910,1580.000,351.500,81.140,19.680,119.400,15.300,3.155,1.105,366.400,54.190,11.160,3.820,baseline
1816.000,380.100,92.000,25.600,1566.000,352.300,80.670,19.660,124.600,15.010,3.180,1.087,359.900,53.560,11.050,3.876,baseline
1812.000,378.500,92.290,25.340,1573.000,352.400,80.370,19.600,120.000,15.170,3.192,1.078,362.300,53.350,11.220,3.851,baseline
1809.000,381.300,91.040,25.560,1563.000,351.300,80.850,19.580,123.000,15.300,3.206,1.091,359.900,54.000,11.190,3.875,baseline
1825.000,379.700,92.650,25.560,1585.000,352.600,80.470,19.520,121.400,15.270,3.160,1.092,361.800,54.230,11.380,3.808,baseline
1816.000,380.000,91.450,25.870,1584.000,350.900,81.060,19.680,123.200,15.130,3.157,1.076,361.900,54.390,11.270,3.853,baseline
1822.000,383.700,92.480,25.830,1578.000,351.800,80.860,19.640,122.400,15.050,3.240,1.095,363.600,54.790,11.370,3.884,baseline
1827.000,382.400,92.900,25.790,1584.000,350.800,80.780,19.720,123.800,15.190,3.195,1.097,365.800,55.330,11.420,3.924,baseline
1842.000,386.000,92.900,26.060,1606.000,351.500,80.740,19.760,123.800,15.140,3.204,1.073,369.100,55.280,11.600,3.922,baseline
1836.000,388.100,92.200,25.840,1583.000,350.700,80.520,19.580,123.700,15.340,3.225,1.125,364.500,54.610,11.340,3.841,baseline
1795.000,378.300,91.880,25.550,1569.000,349.400,80.650,19.450,121.000,15.170,3.182,1.112,360.300,53.460,11.410,3.846,baseline
1812.000,378.000,91.260,25.590,1577.000,348.100,80.590,19.400,120.400,15.250,3.137,1.100,363.200,54.170,11.290,3.837,baseline
1805.000,379.500,91.150,25.450,1569.000,350.100,80.480,19.570,123.400,15.270,3.178,1.060,361.600,53.920,11.210,3.826,baseline
1814.000,379.200,91.500,25.350,1566.000,350.600,80.690,19.440,122.100,15.190,3.193,1.111,361.200,53.830,11.070,3.874,baseline
1815.000,376.900,91.690,25.630,1574.000,348.000,80.860,19.550,122.700,15.110,3.222,1.095,364.500,54.310,11.300,3.885,baseline
1821.000,380.100,90.980,25.790,1568.000,349.400,80.900,19.500,125.100,15.270,3.197,1.095,365.300,55.460,11.470,3.985,baseline
1820.000,382.900,92.290,25.720,1577.000,347.700,80.810,19.590,122.700,15.160,3.200,1.086,367.400,54.240,11.520,3.923,baseline
1823.000,386.200,92.300,25.860,1583.000,349.000,80.140,19.600,123.900,15.380,3.180,1.096,367.400,55.250,11.500,3.904,baseline
1848.000,386.500,92.350,25.660,1564.000,346.900,79.970,19.360,125.700,15.390,3.171,1.098,366.600,54.490,11.360,3.911,baseline
1800.000,378.400,91.660,25.550,1560.000,347.200,79.480,19.540,123.700,15.120,3.157,1.074,360.900,54.140,11.350,3.890,baseline
1794.000,380.000,90.140,25.340,1555.000,346.400,78.860,19.390,122.600,14.950,3.144,1.069,359.500,53.490,11.210,3.852,baseline
1793.000,379.000,90.890,25.440,1561.000,346.800,79.290,19.300,125.200,15.170,3.161,1.090,361.400,53.530,11.310,3.906,baseline
1798.000,376.200,91.790,25.530,1558.000,348.500,79.890,19.390,123.900,15.240,3.130,1.097,362.900,53.800,11.340,3.889,baseline
1778.000,378.400,90.640,25.370,1570.000,346.300,79.750,19.430,125.100,15.460,3.132,1.106,364.800,53.760,11.160,3.905,baseline
1805.000,382.400,91.610,25.480,1559.000,349.000,79.390,19.430,125.900,15.200,3.177,1.094,363.300,54.610,11.480,3.929,baseline
1817.000,380.300,91.310,25.720,1563.000,349.100,79.490,19.410,124.300,15.060,3.138,1.086,363.600,55.340,11.500,3.958,baseline
1806.000,383.800,92.620,25.970,1567.000,346.400,79.450,19.620,123.500,15.320,3.185,1.106,369.100,55.470,11.450,3.992,baseline
1812.000,386.100,92.150,25.720,1562.000,347.500,79.510,19.280,123.700,15.310,3.210,1.088,367.700,54.480,11.360,3.935,baseline
1799.000,375.800,91.430,25.300,1553.000,344.800,79.230,19.150,125.500,15.110,3.109,1.079,361.100,53.900,11.230,3.807,baseline
1790.000,378.700,89.950,25.250,1555.000,344.900,79.010,19.180,123.100,15.090,3.109,1.108,361.700,53.370,11.170,3.880,baseline
1789.000,377.600,90.430,25.320,1562.000,346.600,78.610,19.240,122.300,15.370,3.153,1.104,362.400,53.640,11.180,3.941,baseline
1796.000,378.200,90.120,25.460,1555.000,345.400,79.190,19.240,122.100,15.300,3.174,1.091,362.700,54.280,11.230,3.876,baseline
1790.000,376.100,90.560,25.560,1559.000,346.700,79.200,19.230,124.200,15.110,3.198,1.101,363.800,54.420,11.360,4.013,baseline
1801.000,380.300,90.610,25.260,1562.000,344.000,79.180,19.320,125.200,15.300,3.164,1.088,365.000,54.450,11.370,3.974,baseline
1789.000,381.400,90.690,25.590,1566.000,347.200,79.140,19.260,122.500,15.180,3.153,1.080,364.100,55.170,11.450,3.996,baseline
1817.000,378.600,91.130,25.670,1565.000,345.700,79.620,19.300,128.700,15.220,3.169,1.113,369.300,55.250,11.580,4.002,baseline
1792.000,378.900,90.950,25.440,1532.000,344.300,78.640,19.060,123.900,15.150,3.193,1.080,362.700,53.880,11.090,3.956,baseline
1780.000,371.500,89.540,25.170,1557.000,340.300,79.090,19.010,123.000,15.130,3.141,1.080,360.300,53.560,11.180,3.947,baseline
1767.000,374.100,90.090,25.060,1552.000,340.400,78.220,19.120,123.000,15.230,3.172,1.102,363.100,54.090,11.310,3.939,baseline
1775.000,369.000,90.530,25.260,1542.000,341.500,78.770,19.060,122.900,15.010,3.220,1.082,359.800,53.810,11.190,3.881,baseline
1768.000,373.500,89.430,25.010,1551.000,341.900,78.340,19.170,125.800,15.260,3.163,1.103,361.500,54.050,11.090,3.902,baseline
1782.000,371.600,89.630,25.340,1538.000,344.300,79.010,19.160,125.200,15.410,3.157,1.116,362.400,54.160,11.310,3.959,baseline
1769.000,375.800,90.350,25.270,1541.000,343.500,78.600,19.210,127.000,15.120,3.168,1.102,364.800,54.850,11.230,4.006,baseline
1790.000,376.200,90.870,25.420,1553.000,344.000,78.710,19.110,121.200,15.210,3.190,1.107,365.500,54.990,11.550,3.930,baseline
1797.000,377.500,90.630,25.340,1539.000,345.400,78.680,18.940,124.300,15.450,3.199,1.126,366.500,55.290,11.260,3.890,baseline
1779.000,369.600,89.900,25.110,1533.000,339.800,77.850,18.980,123.700,15.110,3.192,1.106,359.100,54.100,11.050,3.876,baseline
1752.000,370.700,88.630,24.990,1530.000,340.000,77.820,19.050,122.700,15.090,3.170,1.097,359.700,53.610,11.130,3.870,baseline
1756.000,369.800,88.590,24.970,1529.000,339.400,77.850,18.940,125.100,15.160,3.212,1.126,361.200,53.690,11.130,3.949,baseline
1761.000,370.600,89.150,24.670,1539.000,335.700,77.360,18.970,124.800,15.180,3.159,1.101,359.800,53.520,11.170,3.964,baseline
1753.000,365.800,89.440,25.010,1529.000,339.200,77.830,18.950,124.400,15.300,3.151,1.120,362.400,53.870,11.140,3.956,baseline
1757.000,372.100,89.340,24.910,1539.000,340.800,78.170,19.000,125.600,15.290,3.180,1.118,362.400,53.860,11.120,3.930,baseline
1763.000,368.800,89.240,24.950,1536.000,339.700,77.900,18.890,124.200,15.280,3.231,1.118,364.700,53.720,11.090,3.927,baseline
1771.000,370.300,90.120,25.360,1530.000,340.900,78.820,19.060,126.500,15.080,3.176,1.129,365.300,54.160,11.430,3.955,baseline
1775.000,371.700,88.750,25.080,1538.000,337.900,77.170,18.790,124.400,15.210,3.161,1.142,363.900,54.160,11.210,3.902,baseline
1749.000,365.400,88.060,24.680,1536.000,337.900,77.990,18.820,125.200,15.260,3.171,1.124,358.700,53.410,11.030,3.857,baseline
1723.000,369.600,87.330,24.430,1528.000,335.600,77.420,18.840,124.000,15.050,3.215,1.090,358.600,53.430,10.920,3.860,baseline
1739.000,368.900,87.520,24.460,1523.000,335.600,77.200,18.740,120.900,15.200,3.217,1.114,360.900,53.150,11.110,3.842,baseline
1729.000,360.600,87.330,24.550,1523.000,338.300,77.120,18.670,123.800,15.090,3.222,1.126,359.600,53.060,10.990,3.867,baseline
1735.000,367.100,87.530,24.480,1521.000,339.100,77.030,18.720,124.700,15.170,3.158,1.124,355.400,52.950,11.120,3.909,baseline
1731.000,368.100,87.010,24.560,1523.000,339.000,77.400,18.790,125.400,15.220,3.210,1.105,359.800,53.500,11.020,3.858,baseline
1757.000,365.800,88.280,24.600,1541.000,340.200,78.430,19.040,122.600,15.440,3.180,1.118,359.600,53.030,11.270,3.889,baseline
1750.000,368.300,88.070,24.900,1544.000,342.400,78.130,19.190,122.600,15.360,3.203,1.128,358.700,53.370,11.090,3.881,baseline
1731.000,360.400,87.040,24.310,1530.000,340.500,77.350,19.030,125.700,15.140,3.202,1.126,356.700,52.470,10.950,3.793,easy
1724.000,363.800,87.230,24.640,1529.000,337.200,78.180,18.920,124.700,15.200,3.214,1.127,359.100,52.780,10.760,3.820,easy
1748.000,363.300,88.090,24.720,1526.000,338.900,77.950,19.060,122.400,15.140,3.181,1.135,357.000,52.830,11.010,3.860,easy
1746.000,364.000,87.970,24.580,1542.000,342.900,77.970,19.080,120.500,15.160,3.238,1.116,359.200,52.750,10.920,3.872,easy
1754.000,362.000,87.770,24.550,1528.000,342.500,78.090,19.040,123.000,15.300,3.240,1.139,353.200,52.410,10.840,3.811,easy
1721.000,361.900,86.140,24.460,1530.000,340.500,77.840,18.880,120.700,15.000,3.212,1.115,349.100,51.070,10.610,3.711,easy
1711.000,359.300,86.260,24.320,1518.000,336.200,78.060,18.950,121.400,14.880,3.187,1.130,350.200,51.530,10.790,3.757,easy
1716.000,356.900,86.000,24.260,1533.000,339.400,78.180,18.930,120.800,15.070,3.233,1.165,352.400,51.190,10.810,3.756,easy
1711.000,359.100,86.350,24.200,1524.000,342.200,78.710,18.970,121.300,15.180,3.200,1.102,352.500,52.170,10.640,3.795,easy
1716.000,360.000,86.650,24.320,1529.000,342.000,78.180,19.100,124.100,15.120,3.206,1.131,351.700,52.070,10.820,3.799,easy
1718.000,360.300,85.940,24.310,1538.000,340.700,78.230,19.010,122.000,15.000,3.216,1.110,352.600,52.190,10.730,3.793,easy
1729.000,365.100,86.780,24.530,1539.000,340.700,78.610,19.290,119.600,15.060,3.191,1.132,354.600,52.760,10.780,3.789,easy
1742.000,363.200,87.790,24.660,1538.000,342.900,78.410,18.970,122.600,15.090,3.229,1.095,355.700,53.300,10.960,3.902,easy
1744.000,364.200,87.290,24.650,1535.000,342.000,78.570,19.020,122.000,15.150,3.132,1.143,356.800,52.460,10.860,3.772,easy
1716.000,363.100,86.450,24.150,1530.000,339.900,77.860,19.010,121.700,14.970,3.217,1.122,350.100,51.410,10.600,3.754,easy
1719.000,358.900,85.270,24.170,1539.000,342.000,77.940,19.040,119.600,14.760,3.226,1.114,345.700,51.070,10.580,3.772,easy
1711.000,357.800,86.590,23.960,1535.000,338.700,78.190,18.930,123.100,15.020,3.163,1.123,349.400,51.570,10.720,3.782,easy
1703.000,358.800,85.620,24.150,1527.000,342.000,77.310,18.940,125.500,14.990,3.160,1.124,351.400,51.110,10.680,3.729,easy
1709.000,361.500,85.610,24.160,1533.000,341.600,78.660,19.100,121.700,15.140,3.170,1.099,351.100,51.450,10.820,3.700,easy
1725.000,360.900,86.260,24.210,1544.000,341.800,78.970,19.100,122.000,15.020,3.123,1.120,351.200,51.660,10.660,3.760,easy
1743.000,361.000,86.840,24.420,1556.000,342.200,78.700,19.250,121.900,15.170,3.172,1.117,352.500,51.990,10.780,3.774,easy
1734.000,359.300,87.480,24.520,1547.000,345.500,79.020,19.220,122.900,14.960,3.130,1.112,355.100,52.740,10.810,3.804,easy
1735.000,365.200,88.110,24.630,1559.000,345.400,79.710,19.270,123.200,15.040,3.183,1.138,356.800,52.690,10.840,3.813,easy
1736.000,366.300,87.490,24.430,1544.000,342.500,79.360,19.040,122.400,15.240,3.160,1.141,354.500,52.400,10.710,3.796,easy
1720.000,362.200,85.350,24.080,1550.000,343.300,78.250,19.060,124.400,14.910,3.100,1.094,345.800,51.380,10.620,3.705,easy
1711.000,358.600,86.070,23.810,1537.000,344.000,78.350,19.100,121.800,14.820,3.150,1.114,347.500,51.010,10.530,3.731,easy
1712.000,357.600,85.370,23.960,1546.000,345.300,79.280,19.020,123.300,14.850,3.160,1.104,348.600,50.660,10.650,3.679,easy
1710.000,356.200,86.020,24.000,1544.000,345.000,78.810,19.170,122.800,14.880,3.118,1.119,348.400,51.170,10.470,3.711,easy
1728.000,359.700,86.040,24.310,1550.000,346.000,79.440,19.250,122.900,14.880,3.147,1.091,351.100,51.470,10.510,3.707,easy
1729.000,358.700,86.750,24.180,1546.000,343.200,79.250,19.110,121.900,15.010,3.111,1.095,350.200,51.600,10.640,3.747,easy
1737.000,361.300,85.980,24.180,1548.000,349.500,79.430,19.400,122.500,15.010,3.130,1.092,353.400,52.510,10.850,3.770,easy
1742.000,364.700,86.890,24.400,1553.000,348.500,80.200,19.490,120.000,14.850,3.108,1.088,353.400,51.840,10.790,3.717,easy
1738.000,361.900,87.570,24.640,1552.000,349.100,80.360,19.360,121.200,14.960,3.122,1.097,352.000,52.730,10.830,3.819,easy
1745.000,366.700,86.980,24.700,1559.000,344.600,79.960,19.160,120.800,15.030,3.086,1.090,349.600,51.440,10.500,3.757,easy
1724.000,358.800,87.090,24.280,1539.000,344.100,79.030,19.200,123.300,14.750,3.128,1.094,345.300,50.910,10.350,3.707,easy
1723.000,359.400,86.240,24.250,1539.000,345.700,79.130,19.300,121.000,14.990,3.093,1.071,346.500,51.410,10.440,3.737,easy
1733.000,361.000,85.780,24.230,1556.000,346.900,79.330,19.300,122.800,14.830,3.061,1.084,346.900,50.880,10.450,3.699,easy
1727.000,361.800,86.880,24.340,1570.000,349.200,79.120,19.280,120.200,14.900,3.100,1.092,350.100,51.520,10.660,3.708,easy
1730.000,358.900,87.640,24.430,1554.000,346.500,79.350,19.230,122.400,14.870,3.100,1.080,347.700,51.160,10.450,3.730,easy
1730.000,365.600,86.990,24.540,1559.000,346.600,79.900,19.380,120.200,14.970,3.072,1.097,349.800,51.430,10.700,3.714,easy
1764.000,364.300,88.030,24.630,1566.000,350.000,80.730,19.330,121.000,15.170,3.054,1.076,352.300,52.020,10.780,3.736,easy
1744.000,363.900,88.500,24.810,1572.000,349.000,80.040,19.500,121.500,14.870,3.063,1.085,353.000,52.320,10.690,3.787,easy
1755.000,369.900,88.020,24.820,1556.000,350.300,79.590,19.440,122.800,15.050,3.102,1.073,353.200,51.720,10.660,3.689,easy
1740.000,363.700,87.690,24.680,1562.000,347.400,80.000,19.310,120.600,14.750,3.118,1.080,346.900,51.120,10.440,3.710,easy
1736.000,362.800,87.530,24.650,1553.000,348.600,80.260,19.380,119.900,14.800,3.077,1.072,345.500,50.620,10.410,3.652,easy
1742.000,365.200,87.550,24.570,1554.000,349.200,79.430,19.250,121.200,14.760,3.077,1.073,348.400,50.410,10.360,3.689,easy
1743.000,364.400,86.820,24.510,1556.000,348.500,79.980,19.270,120.200,14.910,3.068,1.108,348.600,51.040,10.580,3.729,easy
1740.000,368.700,88.880,24.630,1562.000,349.300,80.210,19.390,121.600,14.950,2.986,1.076,349.500,51.540,10.480,3.720,easy
1739.000,366.500,88.030,24.750,1583.000,351.400,80.690,19.430,120.900,14.910,3.115,1.081,351.100,51.990,10.770,3.768,easy
1745.000,370.700,88.220,24.910,1576.000,352.300,80.250,19.470,122.900,14.890,3.078,1.074,351.000,52.430,10.720,3.763,easy
1765.000,367.900,89.170,25.050,1581.000,351.700,79.850,19.350,120.600,15.030,3.092,1.095,354.200,52.640,10.630,3.751,easy
1758.000,366.000,88.760,24.850,1567.000,348.500,80.340,19.260,124.600,14.970,3.032,1.077,348.300,50.710,10.610,3.688,easy
1745.000,366.900,87.750,24.690,1571.000,348.300,80.000,19.380,120.300,14.720,3.045,1.053,344.300,50.680,10.500,3.661,easy
1753.000,367.900,88.290,24.750,1560.000,349.500,79.350,19.330,122.600,14.800,3.019,1.070,347.500,51.130,10.530,3.694,easy
1739.000,367.600,88.240,24.860,1566.000,350.400,79.580,19.360,119.700,14.700,3.054,1.061,345.900,50.840,10.500,3.727,easy
1740.000,363.600,88.800,24.890,1573.000,348.500,80.780,19.360,119.000,14.810,3.026,1.070,347.900,51.480,10.500,3.664,easy
1748.000,369.700,88.350,24.940,1566.000,351.600,80.210,19.310,120.000,14.880,3.015,1.096,348.600,51.480,10.590,3.685,easy
1744.000,372.300,88.630,25.200,1566.000,350.500,80.120,19.430,120.700,14.800,3.012,1.058,348.400,51.680,10.660,3.785,easy
1764.000,374.400,89.710,25.180,1582.000,350.800,80.580,19.430,122.100,14.790,3.000,1.084,350.500,52.060,10.740,3.785,easy
1769.000,370.000,89.280,25.130,1576.000,349.400,80.140,19.240,122.200,14.990,3.059,1.057,349.100,51.300,10.410,3.709,easy
1745.000,364.800,88.740,24.790,1559.000,347.500,80.300,19.320,118.100,14.620,3.009,1.054,343.400,50.830,10.520,3.662,easy
1746.000,366.100,88.340,24.830,1560.000,349.500,79.200,19.260,117.800,14.770,3.056,1.064,344.600,50.550,10.460,3.642,easy
1747.000,364.400,88.090,24.690,1565.000,350.100,80.120,19.370,120.700,14.680,3.050,1.095,343.500,50.570,10.470,3.673,easy
1747.000,365.300,88.310,24.790,1554.000,348.500,79.940,19.350,119.600,14.700,3.076,1.070,344.000,50.790,10.430,3.735,easy
1743.000,370.900,89.230,24.940,1568.000,350.900,80.410,19.320,120.400,14.790,3.066,1.067,347.000,51.180,10.480,3.741,easy
1747.000,367.300,89.300,24.980,1565.000,348.500,80.820,19.330,118.300,14.780,3.037,1.052,345.700,51.000,10.540,3.712,easy
1754.000,370.300,89.760,25.160,1573.000,350.100,80.040,19.270,120.200,14.820,3.069,1.068,349.600,51.620,10.630,3.784,easy
1762.000,370.400,89.470,25.280,1569.000,347.700,80.620,19.140,121.600,14.830,2.991,1.088,349.000,51.330,10.450,3.752,easy
1760.000,365.900,89.080,24.610,1574.000,348.100,79.610,19.080,121.400,14.820,3.063,1.059,341.600,50.650,10.410,3.675,easy
1738.000,368.900,88.700,24.800,1582.000,350.100,80.000,19.150,122.700,14.690,3.055,1.053,346.000,50.600,10.370,3.673,easy
1750.000,365.300,89.080,24.830,1562.000,346.500,79.140,19.250,120.400,14.850,3.053,1.056,345.200,50.490,10.500,3.765,easy
1744.000,367.400,88.820,24.640,1558.000,348.300,79.890,19.140,121.700,14.770,3.070,1.073,344.200,50.760,10.390,3.761,easy
1756.000,365.100,88.700,24.900,1559.000,348.000,79.770,19.270,122.600,14.800,3.060,1.075,345.900,50.400,10.580,3.714,easy
1730.000,367.700,89.070,24.840,1559.000,348.800,79.590,19.190,121.100,14.750,3.072,1.083,346.000,51.040,10.640,3.754,easy
1747.000,372.500,88.890,24.940,1572.000,350.600,80.220,19.190,122.800,14.740,3.095,1.094,349.700,51.300,10.660,3.838,easy
1758.000,370.600,89.960,25.260,1564.000,352.100,80.660,19.410,122.500,14.810,3.080,1.092,349.100,51.520,10.740,3.803,easy
1770.000,373.800,89.830,25.390,1569.000,350.800,79.600,19.310,121.700,14.920,3.152,1.077,350.600,51.400,10.690,3.815,easy
1759.000,369.200,89.420,24.700,1564.000,350.500,80.000,19.270,124.900,14.870,3.098,1.084,344.400,50.850,10.510,3.751,easy
1748.000,366.700,88.620,24.900,1567.000,348.300,80.340,19.240,121.500,14.790,3.073,1.065,343.900,50.400,10.480,3.769,easy
1753.000,366.600,88.970,24.980,1572.000,347.900,79.840,19.320,121.600,14.690,3.102,1.096,344.400,51.250,10.540,3.736,easy
1757.000,366.200,88.520,24.940,1574.000,351.500,80.250,19.400,122.800,14.990,3.143,1.097,346.600,50.800,10.590,3.720,easy
1748.000,368.600,89.210,24.880,1571.000,351.200,80.420,19.370,120.400,14.890,3.079,1.114,346.600,50.980,10.600,3.792,easy
1749.000,368.600,89.570,25.120,1576.000,353.200,80.470,19.430,122.400,15.020,3.114,1.091,348.100,51.940,10.770,3.824,easy
1750.000,370.100,90.330,24.990,1580.000,352.600,81.180,19.580,120.700,14.940,3.146,1.103,350.200,51.530,10.790,3.868,easy
1746.000,372.900,90.610,25.410,1588.000,352.600,80.900,19.540,122.200,14.970,3.139,1.080,349.600,52.330,10.840,3.908,easy
1772.000,373.000,89.980,25.030,1581.000,352.700,81.250,19.380,121.300,15.130,3.117,1.085,349.400,51.160,10.770,3.790,easy
1757.000,370.200,89.540,25.010,1566.000,351.700,81.450,19.520,121.800,14.920,3.068,1.112,341.300,50.650,10.560,3.767,easy
1734.000,366.500,89.090,24.880,1568.000,351.800,81.120,19.280,124.300,15.020,3.174,1.086,341.300,50.400,10.600,3.749,easy
1753.000,372.400,89.530,24.990,1568.000,350.600,81.220,19.410,124.400,14.830,3.103,1.113,346.700,50.490,10.460,3.786,easy
1750.000,369.900,89.310,25.050,1579.000,351.700,81.270,19.470,119.100,14.990,3.124,1.068,345.700,50.510,10.540,3.784,easy
1736.000,369.100,89.640,25.060,1574.000,352.800,81.040,19.460,122.300,14.950,3.179,1.099,346.300,50.960,10.700,3.802,easy
1753.000,372.800,90.270,25.230,1580.000,353.200,80.750,19.410,120.100,14.940,3.172,1.113,347.800,51.180,10.600,3.845,easy
1771.000,373.700,90.560,25.280,1589.000,356.800,81.130,19.700,122.100,14.830,3.136,1.119,346.900,51.400,10.650,3.866,easy
1778.000,374.600,90.680,25.270,1588.000,354.600,81.550,19.710,120.600,15.030,3.140,1.110,350.900,51.640,10.690,3.831,easy
1756.000,374.200,89.890,24.990,1579.000,354.000,81.140,19.530,121.400,14.900,3.174,1.107,342.700,50.210,10.580,3.802,easy
1746.000,372.300,89.790,24.890,1593.000,353.200,81.240,19.590,120.700,14.960,3.130,1.098,343.300,50.350,10.660,3.748,easy
1764.000,368.700,89.630,25.090,1590.000,356.600,81.200,19.460,122.000,14.950,3.128,1.126,343.900,50.970,10.590,3.765,easy
1752.000,371.900,88.980,24.840,1583.000,352.400,81.740,19.450,124.000,14.930,3.193,1.125,343.100,50.880,10.560,3.727,easy
1750.000,372.000,89.970,25.130,1589.000,354.100,80.780,19.560,122.600,14.880,3.182,1.101,346.100,51.110,10.500,3.775,easy
1758.000,373.400,89.580,25.120,1593.000,359.800,81.510,19.770,121.700,15.090,3.140,1.111,345.000,51.040,10.780,3.803,easy
1763.000,371.000,90.830,25.200,1594.000,359.700,82.290,19.760,124.300,15.160,3.178,1.134,345.500,51.680,10.870,3.852,easy
1776.000,376.000,90.650,25.220,1597.000,356.400,81.400,19.820,121.000,15.050,3.205,1.114,348.200,52.300,10.850,3.877,easy
1762.000,375.400,90.920,25.240,1583.000,357.400,81.090,19.490,124.100,15.160,3.161,1.128,343.700,50.910,10.520,3.820,easy
1756.000,370.400,89.730,24.860,1589.000,354.700,81.580,19.640,121.500,15.120,3.191,1.097,343.700,50.300,10.620,3.746,easy
1766.000,372.600,89.530,24.850,1596.000,356.800,81.940,19.450,121.500,15.120,3.141,1.111,342.800,51.100,10.660,3.767,easy
1754.000,372.000,89.530,25.130,1579.000,356.000,81.380,19.640,121.700,15.220,3.212,1.128,344.600,50.240,10.550,3.803,easy
1751.000,373.600,89.740,25.150,1588.000,358.400,81.580,19.600,119.500,15.100,3.181,1.122,343.700,50.850,10.610,3.754,easy
1767.000,373.500,90.150,25.050,1586.000,356.300,82.110,19.720,119.300,15.060,3.232,1.095,345.600,50.830,10.650,3.807,easy
1756.000,371.300,90.440,25.360,1609.000,357.500,82.070,19.830,121.600,15.210,3.248,1.140,344.200,51.640,10.750,3.839,easy
1762.000,379.400,90.590,25.450,1605.000,359.400,82.670,19.740,121.300,15.050,3.203,1.127,347.300,50.980,10.640,3.835,easy
1785.000,374.300,90.970,25.490,1606.000,361.600,81.140,19.720,121.100,15.120,3.266,1.120,349.600,51.220,10.590,3.731,easy
1765.000,375.000,90.190,25.060,1595.000,356.400,81.250,19.530,122.500,15.090,3.210,1.124,341.200,50.130,10.490,3.703,easy
1764.000,370.000,89.470,24.770,1598.000,356.900,82.380,19.620,120.400,14.960,3.226,1.089,341.300,50.450,10.490,3.737,easy
1768.000,377.000,89.840,24.940,1609.000,359.500,81.830,19.740,122.200,15.110,3.263,1.114,341.400,50.460,10.490,3.734,easy
1759.000,373.600,90.130,24.970,1586.000,357.200,82.350,19.680,122.000,15.160,3.215,1.126,342.000,50.110,10.580,3.792,easy
1776.000,374.100,90.090,24.860,1599.000,358.100,81.900,19.830,121.200,14.890,3.193,1.128,344.900,51.580,10.550,3.777,easy
1765.000,375.400,89.940,24.950,1591.000,355.700,82.710,19.750,120.900,15.160,3.236,1.131,344.700,51.240,10.470,3.803,easy
1780.000,377.100,90.880,25.220,1598.000,360.500,82.240,19.770,120.200,15.030,3.270,1.147,347.000,51.160,10.750,3.788,easy
1766.000,378.600,90.390,25.470,1614.000,359.100,82.870,20.000,120.300,15.090,3.231,1.130,346.700,51.730,10.740,3.831,easy
1782.000,376.000,91.430,25.500,1620.000,359.200,82.220,19.960,122.600,15.340,3.208,1.137,347.200,51.410,10.620,3.745,easy
1779.000,375.100,89.760,25.250,1601.000,360.100,82.280,19.830,124.000,15.180,3.246,1.141,339.900,49.890,10.440,3.693,easy
1776.000,377.200,90.050,24.970,1602.000,361.000,82.580,19.800,121.600,15.100,3.156,1.129,343.700,50.520,10.720,3.784,easy
1771.000,371.300,90.170,25.380,1604.000,362.800,82.790,20.100,122.900,15.020,3.226,1.137,341.200,50.660,10.660,3.730,easy
1768.000,372.400,90.630,25.020,1609.000,357.200,82.530,19.920,121.700,14.960,3.238,1.163,342.400,50.430,10.520,3.773,easy
1770.000,372.200,90.210,24.950,1609.000,359.500,82.570,19.850,119.600,15.100,3.218,1.152,343.600,50.550,10.620,3.811,easy
1789.000,378.000,90.970,25.360,1610.000,362.200,82.470,19.980,123.200,15.060,3.269,1.146,345.000,51.670,10.800,3.768,easy
1789.000,378.600,90.850,25.540,1618.000,363.100,82.830,20.030,124.600,15.210,3.189,1.162,346.400,51.530,10.750,3.823,easy
1793.000,382.200,91.600,25.410,1623.000,364.600,82.450,20.020,121.000,14.990,3.185,1.134,349.600,51.670,10.710,3.814,easy
1791.000,379.200,90.930,25.260,1601.000,360.100,82.880,19.970,120.500,15.160,3.221,1.140,341.800,50.480,10.450,3.743,easy
1768.000,376.600,90.090,25.350,1588.000,359.800,83.640,19.940,120.100,14.860,3.256,1.129,338.600,49.800,10.490,3.735,easy
1778.000,374.200,90.960,25.090,1603.000,361.800,83.170,19.960,121.300,14.880,3.193,1.140,339.700,50.620,10.620,3.700,easy
1774.000,375.100,89.660,25.210,1584.000,361.200,83.130,20.030,121.800,14.930,3.203,1.121,341.700,49.920,10.610,3.719,easy
1779.000,375.100,90.510,25.240,1612.000,359.700,83.100,19.950,123.300,14.900,3.197,1.157,342.700,50.370,10.550,3.771,easy
1792.000,375.200,90.170,25.250,1616.000,362.400,83.060,20.030,121.300,15.040,3.206,1.130,342.200,50.700,10.650,3.739,easy
1791.000,378.200,91.610,25.420,1611.000,361.200,83.160,19.940,122.300,14.960,3.195,1.112,344.400,51.120,10.650,3.719,easy
1797.000,381.200,91.210,25.290,1613.000,364.700,83.170,20.060,123.400,15.060,3.245,1.142,344.300,51.390,10.770,3.779,easy
1789.000,378.600,91.450,25.400,1621.000,364.000,83.590,20.080,121.900,15.050,3.183,1.143,346.100,51.840,10.780,3.826,easy
1774.000,382.800,91.000,25.530,1607.000,362.200,82.930,20.100,122.000,15.040,3.208,1.125,342.000,50.170,10.390,3.666,easy
1792.000,372.400,91.380,24.900,1616.000,362.000,83.030,19.950,117.100,15.160,3.160,1.130,340.100,50.010,10.390,3.742,easy
1785.000,376.900,91.030,25.280,1604.000,357.200,83.100,19.990,121.000,14.910,3.172,1.128,339.100,49.520,10.500,3.731,easy
1774.000,374.300,90.130,25.000,1607.000,361.600,82.910,19.990,123.500,14.870,3.244,1.137,338.800,50.340,10.330,3.718,easy
1780.000,376.000,90.370,25.340,1609.000,361.000,82.800,19.850,124.200,14.930,3.205,1.143,342.300,50.080,10.480,3.795,easy
1772.000,374.500,91.000,25.270,1605.000,359.600,82.790,20.050,120.700,15.050,3.209,1.144,342.000,50.990,10.420,3.712,easy
1784.000,376.400,90.380,25.410,1610.000,360.600,82.900,20.080,125.000,14.890,3.160,1.123,344.100,50.880,10.490,3.780,easy
1799.000,378.900,91.520,25.570,1613.000,362.700,83.130,20.040,120.200,15.120,3.260,1.131,343.000,51.170,10.760,3.713,easy
1809.000,384.500,91.550,25.660,1613.000,363.600,82.560,20.150,121.500,15.110,3.193,1.129,344.800,51.600,10.760,3.716,easy
1795.000,378.000,91.460,25.340,1615.000,362.700,82.980,19.870,121.200,15.020,3.216,1.146,343.000,50.120,10.510,3.692,easy
1785.000,378.500,90.690,25.180,1612.000,362.100,82.890,20.100,122.100,15.060,3.221,1.127,339.600,49.910,10.260,3.655,easy
1777.000,374.200,90.220,25.280,1607.000,361.300,83.050,19.940,120.500,14.990,3.229,1.128,340.600,50.210,10.390,3.713,easy
1786.000,379.100,91.200,25.280,1605.000,359.900,82.760,19.890,122.700,14.870,3.152,1.127,340.400,50.060,10.350,3.730,easy
1778.000,373.400,89.680,25.520,1611.000,359.200,83.040,19.950,122.400,14.970,3.168,1.140,340.000,50.460,10.510,3.749,easy
1789.000,382.700,91.050,25.180,1608.000,361.600,83.050,20.020,121.700,14.870,3.209,1.141,345.200,50.230,10.550,3.746,easy
1797.000,380.400,90.850,25.610,1610.000,364.200,83.060,20.270,121.600,15.150,3.160,1.136,344.000,51.470,10.790,3.756,easy
1798.000,382.600,90.800,25.740,1607.000,361.400,83.790,20.180,124.400,14.880,3.179,1.145,345.300,50.630,10.590,3.748,easy
1818.000,379.100,92.190,25.700,1613.000,363.000,82.780,20.250,120.400,15.040,3.243,1.116,347.600,51.080,10.770,3.806,easy
1818.000,382.100,92.050,25.620,1626.000,362.700,83.250,20.200,121.800,15.140,3.202,1.128,346.400,51.100,10.770,3.745,easy
1817.000,380.400,91.020,25.640,1606.000,362.200,83.130,20.110,121.500,15.090,3.212,1.119,341.100,49.920,10.420,3.753,easy
1787.000,383.200,90.850,25.570,1619.000,360.800,83.300,20.060,120.700,14.890,3.151,1.129,338.000,49.930,10.400,3.709,easy
1803.000,375.800,90.730,25.260,1617.000,361.100,82.490,19.990,121.400,14.910,3.227,1.129,343.200,50.520,10.380,3.720,easy
1795.000,379.800,91.970,25.370,1605.000,359.800,83.150,19.940,120.000,14.860,3.150,1.140,341.400,50.180,10.460,3.680,easy
1793.000,378.500,91.690,25.460,1605.000,361.500,82.880,20.170,119.600,15.090,3.192,1.150,340.600,50.540,10.620,3.723,easy
1815.000,380.600,91.250,25.700,1609.000,362.700,83.590,20.100,121.200,14.880,3.222,1.157,346.400,51.320,10.570,3.779,easy
1820.000,377.800,92.010,25.830,1615.000,362.300,83.690,20.150,118.900,14.860,3.192,1.112,346.400,51.260,10.640,3.820,easy
1814.000,379.200,92.160,25.930,1617.000,362.300,83.710,20.270,122.800,15.040,3.190,1.111,347.400,51.690,10.750,3.816,easy
1835.000,387.100,94.100,25.790,1617.000,366.800,83.840,20.180,119.600,15.030,3.177,1.114,349.400,51.360,10.770,3.751,easy
1809.000,382.500,92.290,25.740,1619.000,362.600,83.110,20.110,120.400,15.100,3.196,1.150,343.200,50.700,10.470,3.768,easy
1793.000,379.400,90.990,25.630,1605.000,360.900,84.150,20.270,119.100,15.020,3.138,1.116,340.800,50.370,10.540,3.691,easy
1823.000,381.000,91.080,25.550,1629.000,364.400,83.240,20.070,123.000,14.960,3.203,1.115,342.500,50.920,10.530,3.748,easy
1809.000,379.600,91.950,25.590,1621.000,363.800,83.910,20.190,122.300,15.040,3.170,1.129,342.500,50.650,10.250,3.699,easy
1799.000,380.400,91.660,25.830,1615.000,362.200,83.480,20.340,120.700,14.870,3.128,1.117,342.100,50.620,10.410,3.751,easy
1818.000,381.600,92.600,25.860,1628.000,364.800,83.960,20.460,122.200,14.980,3.178,1.114,345.300,50.920,10.560,3.765,easy
1831.000,384.000,92.870,25.920,1624.000,367.000,84.630,20.280,120.000,14.920,3.134,1.117,347.200,51.580,10.750,3.788,easy
1823.000,385.000,93.560,26.100,1635.000,363.700,84.090,20.330,119.700,15.060,3.170,1.113,346.700,52.320,10.870,3.819,easy
1819.000,387.600,93.670,26.220,1635.000,368.300,84.260,20.460,122.400,15.080,3.201,1.114,348.100,52.490,10.850,3.817,easy
1838.000,386.000,93.790,26.210,1619.000,367.400,84.240,20.370,123.200,15.070,3.123,1.116,348.300,52.060,10.650,3.775,easy
1833.000,382.900,92.540,25.850,1624.000,362.700,83.970,20.260,121.300,14.940,3.166,1.123,344.000,49.970,10.330,3.706,easy
1824.000,380.800,92.290,25.870,1621.000,364.800,84.070,20.070,121.800,14.940,3.108,1.116,342.000,50.470,10.530,3.698,easy
1815.000,385.400,92.930,25.780,1620.000,365.500,84.100,20.230,121.400,15.030,3.136,1.104,344.600,50.490,10.430,3.704,easy
1802.000,383.500,92.370,25.550,1624.000,364.100,83.690,20.350,120.300,15.010,3.170,1.102,343.900,50.410,10.500,3.730,easy
1824.000,381.600,92.660,25.820,1626.000,365.300,83.750,20.420,120.500,15.000,3.145,1.102,344.700,51.430,10.560,3.777,easy
1822.000,381.500,92.370,26.180,1616.000,364.400,84.220,20.200,120.300,14.940,3.152,1.123,343.100,51.450,10.760,3.817,easy
1840.000,388.600,93.200,26.100,1633.000,363.900,84.430,20.310,121.900,14.900,3.104,1.107,346.800,51.410,10.670,3.726,easy
1840.000,389.300,93.330,26.190,1623.000,367.600,84.490,20.380,122.500,14.970,3.131,1.096,349.000,51.940,10.750,3.790,easy
1856.000,390.600,94.070,26.380,1628.000,365.400,84.810,20.180,121.400,15.160,3.165,1.103,349.300,52.130,10.780,3.818,easy
1840.000,385.700,93.010,25.770,1619.000,364.600,84.140,20.190,121.600,15.130,3.144,1.102,344.500,51.350,10.490,3.730,easy
1822.000,385.600,92.060,25.840,1615.000,364.700,84.000,20.180,120.500,14.640,3.133,1.103,341.700,49.770,10.330,3.757,easy
1820.000,383.200,92.270,25.780,1618.000,364.400,84.490,20.140,124.500,14.930,3.169,1.077,343.900,50.880,10.460,3.689,easy
1818.000,383.800,92.990,25.890,1614.000,365.400,83.850,20.170,120.200,14.870,3.129,1.059,342.300,51.300,10.510,3.707,easy
1803.000,381.100,92.930,25.890,1607.000,362.300,84.030,20.220,122.000,15.090,3.184,1.083,345.700,51.170,10.610,3.716,easy
1818.000,385.100,92.490,25.960,1629.000,365.200,83.500,20.220,121.000,14.820,3.170,1.095,347.100,50.900,10.680,3.787,easy
1823.000,384.400,92.920,25.950,1627.000,365.100,83.780,20.230,120.800,14.980,3.187,1.100,347.400,51.710,10.770,3.779,easy
1832.000,389.800,94.030,26.120,1614.000,363.500,83.950,20.390,122.700,15.040,3.090,1.085,348.900,52.510,10.750,3.762,easy
1843.000,391.500,94.330,26.230,1621.000,364.300,83.670,20.200,122.500,15.060,3.127,1.088,350.100,51.900,10.860,3.901,easy
1827.000,387.500,93.240,26.130,1610.000,362.200,83.780,20.160,122.000,14.980,3.099,1.090,345.000,51.090,10.570,3.720,easy
1831.000,383.100,92.530,25.800,1619.000,360.200,83.870,20.220,120.200,14.980,3.107,1.091,343.100,51.440,10.540,3.747,easy
1811.000,384.600,93.380,25.880,1617.000,361.000,82.690,20.160,120.000,14.990,3.112,1.076,347.000,51.380,10.650,3.775,easy
1821.000,384.200,92.240,25.830,1601.000,363.300,84.310,20.270,121.100,14.880,3.177,1.100,344.200,50.820,10.570,3.801,easy
1815.000,383.300,93.110,25.820,1610.000,366.600,83.270,20.200,120.600,14.860,3.119,1.102,344.100,51.860,10.580,3.760,easy
1839.000,387.700,93.400,26.190,1614.000,365.200,84.100,20.160,122.900,14.680,3.121,1.111,347.500,50.980,10.730,3.812,easy
1850.000,388.100,93.190,26.140,1621.000,366.300,84.240,20.290,124.100,14.960,3.098,1.095,347.100,51.810,10.720,3.808,easy
1836.000,391.800,93.780,26.300,1632.000,362.600,84.320,20.490,120.200,15.120,3.156,1.094,350.900,51.940,10.810,3.838,easy
1846.000,386.100,94.350,26.270,1627.000,363.100,84.080,20.290,120.700,15.180,3.150,1.078,348.800,51.560,10.660,3.786,easy
1828.000,382.900,92.600,25.840,1609.000,365.400,84.220,20.330,122.400,15.000,3.129,1.094,343.400,51.110,10.530,3.800,easy
1819.000,385.900,93.340,25.860,1619.000,367.100,83.490,20.410,120.000,14.830,3.094,1.105,341.900,50.750,10.640,3.720,easy
1825.000,383.100,93.790,26.120,1621.000,364.500,84.200,20.330,121.400,14.880,3.115,1.091,345.400,50.820,10.580,3.730,easy
1822.000,382.700,93.290,25.700,1616.000,365.500,83.990,20.260,122.400,14.760,3.135,1.081,345.100,51.430,10.520,3.728,easy
1826.000,383.000,92.990,26.000,1622.000,365.800,84.450,20.310,123.500,15.140,3.101,1.079,345.800,50.990,10.540,3.739,easy
1821.000,388.200,93.490,26.220,1615.000,364.400,84.020,20.460,122.800,14.870,3.086,1.085,348.100,51.280,10.630,3.744,easy
1846.000,391.400,93.790,26.240,1623.000,366.000,84.670,20.310,121.300,15.020,3.106,1.078,346.900,51.700,10.690,3.740,easy
1828.000,388.800,94.210,26.470,1624.000,364.500,83.460,20.290,122.600,14.970,3.166,1.078,350.900,51.970,10.810,3.768,easy
1825.000,380.700,93.410,25.810,1617.000,361.600,83.980,20.210,121.200,14.770,3.108,1.088,342.400,50.190,10.450,3.664,easy
1811.000,380.200,92.460,25.940,1612.000,363.100,83.130,20.190,118.800,14.990,3.126,1.098,343.300,50.610,10.580,3.704,easy
1821.000,381.500,92.630,25.650,1610.000,361.900,84.290,20.090,118.800,14.910,3.103,1.078,342.300,50.640,10.510,3.772,easy
1815.000,384.800,92.950,25.750,1602.000,364.100,83.210,20.250,123.600,15.160,3.111,1.081,343.500,51.100,10.550,3.711,easy
1810.000,383.100,92.070,25.910,1601.000,364.400,83.400,20.260,121.400,14.930,3.124,1.094,345.400,50.940,10.590,3.718,easy
1812.000,383.500,93.060,25.830,1614.000,361.600,83.630,20.210,121.500,15.160,3.152,1.084,344.600,51.980,10.670,3.755,easy
1814.000,385.600,92.070,25.700,1613.000,363.700,83.340,20.290,121.200,15.080,3.144,1.097,346.200,51.800,10.650,3.754,easy
1823.000,386.000,93.360,26.180,1619.000,362.800,84.280,20.250,123.100,15.010,3.110,1.117,348.600,52.180,10.730,3.820,easy
1819.000,384.900,92.650,25.630,1607.000,359.900,83.340,20.250,118.900,14.860,3.133,1.115,344.400,51.160,10.570,3.723,easy
1795.000,377.600,92.060,25.820,1604.000,360.300,82.990,19.990,121.800,14.890,3.163,1.096,343.100,50.240,10.530,3.713,easy
1803.000,376.200,91.350,25.480,1602.000,358.900,82.830,20.110,121.800,14.850,3.130,1.098,341.800,50.540,10.470,3.738,easy
1805.000,375.400,90.910,25.460,1599.000,359.700,82.710,20.080,122.300,15.050,3.131,1.098,344.000,50.680,10.560,3.779,easy
1796.000,379.600,90.670,25.570,1604.000,359.600,82.670,20.140,122.200,15.000,3.137,1.104,343.100,51.000,10.480,3.738,easy
1792.000,381.800,91.110,25.530,1607.000,361.300,83.210,20.170,122.300,14.790,3.167,1.103,346.000,50.440,10.530,3.774,easy
1796.000,380.300,92.150,25.400,1603.000,358.800,83.090,20.110,120.000,14.810,3.161,1.110,345.900,51.300,10.690,3.799,easy
1802.000,378.000,92.240,25.830,1600.000,359.600,82.720,20.140,122.800,15.180,3.156,1.111,347.600,52.120,10.730,3.791,easy
1802.000,383.000,90.840,25.800,1603.000,361.600,83.140,20.180,120.100,15.100,3.158,1.108,349.100,51.500,10.730,3.786,easy
1823.000,379.500,91.940,25.740,1591.000,360.400,83.330,19.980,122.700,15.070,3.175,1.109,344.600,51.090,10.640,3.707,easy
1786.000,377.000,91.150,25.630,1586.000,358.900,82.920,20.070,122.000,14.900,3.149,1.091,343.200,50.270,10.480,3.717,easy
1793.000,376.300,91.350,25.440,1579.000,358.400,82.620,19.950,121.100,15.170,3.160,1.123,342.100,50.900,10.460,3.744,easy
1781.000,376.900,91.150,25.430,1574.000,358.100,82.830,20.170,121.900,15.040,3.128,1.135,342.000,49.950,10.670,3.832,easy
1786.000,375.800,91.290,25.310,1599.000,359.000,82.350,20.100,123.600,14.950,3.200,1.125,342.300,50.960,10.540,3.739,easy
1783.000,375.500,90.420,25.400,1586.000,357.900,82.660,20.190,121.700,14.910,3.198,1.120,344.200,50.890,10.590,3.759,easy
1794.000,378.300,90.390,25.460,1597.000,359.200,82.960,20.090,124.400,15.160,3.175,1.123,346.300,50.790,10.630,3.801,easy
1791.000,377.100,91.260,25.450,1595.000,361.500,83.580,20.090,123.300,15.050,3.164,1.123,343.900,50.980,10.700,3.803,easy
1806.000,382.300,91.910,25.600,1604.000,361.000,83.970,20.200,121.800,15.060,3.226,1.121,347.700,51.440,10.590,3.798,easy
1800.000,379.500,91.370,25.600,1605.000,360.800,82.960,20.080,122.800,15.020,3.141,1.113,346.800,51.470,10.520,3.774,easy
1778.000,378.400,90.740,25.430,1590.000,358.100,82.780,20.180,124.400,15.230,3.197,1.110,341.200,50.230,10.550,3.658,easy
1773.000,373.500,89.780,25.190,1578.000,359.400,82.880,19.850,122.500,14.980,3.165,1.100,343.100,50.900,10.430,3.705,easy
1778.000,376.500,90.370,25.280,1596.000,354.800,82.800,19.970,123.900,14.870,3.232,1.101,344.000,50.010,10.530,3.690,easy
1785.000,371.100,90.970,25.260,1592.000,358.200,82.110,20.010,121.600,15.020,3.156,1.122,342.200,51.040,10.410,3.741,easy
1793.000,372.100,90.790,25.170,1598.000,358.800,83.080,19.990,121.100,14.910,3.143,1.109,341.400,50.670,10.580,3.735,easy
1782.000,371.500,90.660,25.570,1595.000,358.700,82.780,20.170,120.000,15.170,3.162,1.118,344.200,50.270,10.660,3.706,easy
1786.000,374.500,91.100,25.590,1600.000,357.800,83.010,20.150,120.800,15.130,3.149,1.120,343.500,51.060,10.630,3.762,easy
1786.000,378.300,90.550,25.530,1602.000,361.500,83.320,20.080,124.500,14.910,3.164,1.120,342.300,51.540,10.760,3.718,easy
1791.000,381.400,91.080,25.710,1609.000,356.800,83.470,20.090,123.500,15.050,3.181,1.120,345.500,50.860,10.570,3.706,easy
1761.000,374.700,90.450,25.510,1599.000,356.200,81.990,20.010,122.000,15.020,3.185,1.120,339.800,50.080,10.290,3.730,easy
1772.000,373.200,90.690,25.300,1593.000,356.600,83.150,19.870,118.300,14.940,3.147,1.107,339.700,49.980,10.290,3.689,easy
1772.000,374.300,91.130,25.260,1585.000,358.600,82.440,20.080,120.600,15.000,3.183,1.115,341.500,49.910,10.370,3.712,easy
1763.000,375.300,91.360,25.130,1595.000,360.800,82.600,20.050,120.000,15.020,3.169,1.103,340.700,50.030,10.440,3.640,easy
1775.000,375.100,90.120,25.400,1594.000,357.400,83.150,20.050,121.200,15.000,3.166,1.120,341.800,50.200,10.420,3.707,easy
1774.000,377.800,90.920,25.330,1589.000,356.900,82.550,19.920,120.400,15.100,3.166,1.118,344.300,50.770,10.350,3.716,easy
1782.000,378.000,90.960,25.560,1599.000,359.600,82.880,20.040,119.000,15.250,3.179,1.123,343.400,50.800,10.560,3.712,easy
1793.000,377.700,91.010,25.550,1603.000,358.800,82.610,20.090,119.500,14.960,3.195,1.108,343.900,51.100,10.700,3.711,easy
1785.000,378.100,91.000,25.320,1590.000,359.900,82.300,20.040,121.800,14.980,3.173,1.105,341.100,49.970,10.300,3.619,easy
1770.000,372.400,90.740,25.260,1587.000,356.900,82.890,19.860,120.900,15.020,3.181,1.111,339.800,50.100,10.240,3.655,easy
1767.000,370.900,90.650,25.360,1587.000,358.900,82.130,20.030,121.700,14.820,3.145,1.102,339.700,50.030,10.380,3.696,easy
1793.000,372.500,91.440,25.320,1598.000,357.200,81.970,19.920,122.800,15.090,3.194,1.130,339.400,50.090,10.310,3.696,easy
1770.000,370.100,90.780,25.190,1581.000,357.500,82.210,19.960,120.700,14.810,3.146,1.095,340.100,50.180,10.330,3.649,easy
1782.000,373.800,91.090,25.330,1598.000,357.800,82.360,20.050,122.000,15.160,3.130,1.122,340.700,50.750,10.540,3.664,easy
1797.000,378.100,90.120,25.240,1601.000,358.800,83.020,19.990,120.800,14.830,3.177,1.128,343.100,50.690,10.570,3.636,easy
1785.000,377.300,91.610,25.570,1592.000,358.400,82.950,20.000,117.700,14.880,3.136,1.109,344.000,50.640,10.480,3.728,easy
1795.000,379.000,90.980,25.580,1601.000,360.000,82.180,20.100,118.500,14.950,3.140,1.121,343.800,50.750,10.640,3.699,easy
1775.000,374.400,90.680,25.520,1583.000,356.600,82.490,19.780,121.700,14.950,3.165,1.102,338.500,49.910,10.270,3.599,easy
1771.000,376.500,91.050,25.180,1591.000,358.600,82.880,19.980,122.500,14.910,3.159,1.094,337.400,49.430,10.280,3.616,easy
1756.000,374.600,90.500,25.220,1584.000,358.700,82.630,19.780,118.700,14.750,3.095,1.093,338.400,49.430,10.370,3.674,easy
1770.000,374.500,90.690,25.290,1597.000,356.400,82.540,19.830,122.300,15.100,3.178,1.092,338.800,49.460,10.390,3.647,easy
1772.000,373.700,89.930,25.460,1587.000,356.600,82.480,19.740,121.800,14.920,3.162,1.102,339.700,49.470,10.280,3.657,easy
1769.000,373.600,90.660,25.300,1595.000,362.300,82.610,20.030,118.200,14.990,3.167,1.104,339.400,50.300,10.180,3.685,easy
1782.000,371.900,90.390,25.430,1589.000,360.600,82.430,19.970,121.100,14.980,3.133,1.121,340.100,50.610,10.490,3.706,easy
1798.000,378.000,91.200,25.450,1605.000,360.800,82.690,20.080,119.300,15.050,3.167,1.116,343.600,50.770,10.550,3.707,easy
1792.000,379.700,92.480,25.990,1617.000,366.400,85.140,20.390,120.700,15.010,3.152,1.118,342.400,51.380,10.750,3.805,easy
1810.000,380.600,92.430,26.110,1611.000,365.600,84.000,20.360,122.800,15.110,3.188,1.152,343.100,50.420,10.820,3.844,easy
1793.000,378.400,92.750,26.330,1601.000,363.400,85.500,20.660,120.200,14.970,3.285,1.179,333.700,49.130,10.750,3.991,easy
1757.000,385.300,95.390,26.890,1600.000,372.700,87.570,21.170,120.200,15.160,3.472,1.287,332.600,49.410,11.020,4.169,easy
1810.000,388.500,95.730,27.050,1590.000,371.500,87.000,20.950,120.500,15.340,3.473,1.322,330.000,49.440,10.890,4.096,easy
1811.000,389.500,94.730,26.880,1608.000,368.700,85.420,20.730,120.100,15.170,3.462,1.301,324.900,49.200,10.910,4.007,easy
1812.000,385.600,94.860,26.570,1651.000,371.400,86.050,20.750,120.500,14.830,3.364,1.236,325.000,49.310,10.680,3.940,easy
1854.000,394.900,95.390,26.590,1673.000,379.000,86.960,20.800,117.600,14.690,3.195,1.167,331.000,49.680,10.570,3.741,easy
1882.000,394.700,96.130,26.760,1682.000,376.000,86.590,20.880,120.000,14.870,3.148,1.159,335.600,49.960,10.620,3.737,easy
1889.000,398.600,96.080,26.940,1689.000,381.300,87.170,20.920,119.000,14.880,3.205,1.146,337.800,50.520,10.760,3.754,easy
1912.000,395.100,96.850,26.790,1691.000,377.000,86.440,20.630,117.800,15.000,3.184,1.093,339.200,50.160,10.290,3.715,easy
1877.000,394.000,94.400,26.300,1675.000,372.700,85.790,20.510,119.000,14.760,3.158,1.082,333.800,48.900,10.270,3.646,easy
1881.000,392.000,94.360,25.980,1673.000,372.800,85.330,20.460,121.900,14.730,3.205,1.087,331.300,48.840,10.330,3.568,easy
1861.000,388.000,93.340,26.090,1675.000,373.500,85.230,20.330,118.500,14.880,3.184,1.083,333.300,48.870,10.260,3.593,easy
1870.000,387.300,93.680,26.170,1652.000,372.100,84.370,20.280,120.900,15.030,3.222,1.100,332.900,49.350,10.410,3.653,easy
1875.000,386.600,93.850,26.050,1659.000,367.800,84.040,20.360,121.600,14.860,3.214,1.091,333.600,49.190,10.270,3.617,easy
1883.000,390.500,94.020,26.180,1657.000,369.700,84.500,20.220,120.700,14.920,3.187,1.083,336.200,49.950,10.560,3.659,easy
1878.000,388.200,94.150,26.130,1661.000,367.100,84.570,20.480,123.400,14.930,3.193,1.120,339.500,50.440,10.650,3.720,easy
1884.000,391.900,94.810,26.090,1649.000,371.900,85.190,20.310,122.800,15.060,3.210,1.106,340.400,50.410,10.650,3.747,easy
1875.000,393.400,94.870,26.360,1651.000,371.700,84.890,20.510,121.700,14.930,3.193,1.103,341.900,50.920,10.740,3.689,easy
1877.000,391.300,94.920,26.090,1661.000,367.200,85.010,20.330,121.100,15.040,3.257,1.118,340.000,50.350,10.480,3.655,easy
1860.000,389.000,93.420,25.900,1655.000,367.000,84.200,20.120,117.900,14.910,3.170,1.110,335.300,49.370,10.320,3.646,easy
1846.000,384.800,92.890,25.880,1667.000,368.000,84.490,20.190,122.000,15.030,3.171,1.110,335.000,48.730,10.420,3.654,easy
1852.000,383.300,93.050,26.000,1656.000,366.200,83.770,20.340,119.600,14.860,3.243,1.113,335.700,49.390,10.550,3.657,easy
1852.000,386.800,92.780,25.760,1645.000,368.100,84.430,20.290,120.200,15.000,3.193,1.115,336.400,49.880,10.640,3.640,easy
1861.000,387.700,93.350,26.140,1667.000,368.300,85.150,20.330,121.300,15.160,3.231,1.125,338.000,49.780,10.600,3.654,easy
1860.000,387.100,94.380,26.140,1671.000,370.700,84.610,20.350,123.100,15.080,3.258,1.121,338.800,50.660,10.550,3.707,easy
1887.000,388.200,93.710,26.080,1676.000,369.300,85.000,20.610,120.800,14.840,3.229,1.110,339.000,50.350,10.780,3.755,easy
1877.000,394.600,94.610,26.440,1679.000,377.000,85.930,20.500,119.300,14.970,3.191,1.125,340.400,50.450,10.660,3.760,easy
1877.000,393.400,95.330,26.490,1679.000,375.300,85.920,20.640,120.300,14.910,3.237,1.134,343.300,50.930,10.740,3.795,easy
1872.000,391.800,94.090,26.170,1677.000,372.600,85.070,20.420,119.300,14.990,3.183,1.115,335.500,49.270,10.640,3.699,easy
1877.000,393.700,94.080,25.890,1661.000,374.300,85.750,20.430,118.900,14.900,3.136,1.126,335.100,49.390,10.610,3.646,easy
1866.000,391.300,94.200,26.120,1663.000,370.200,85.030,20.490,117.900,14.720,3.257,1.133,335.900,49.470,10.560,3.719,easy
1864.000,391.700,93.570,26.250,1673.000,371.800,85.220,20.540,121.000,14.740,3.151,1.135,337.500,49.510,10.640,3.679,easy
1875.000,391.500,93.990,25.900,1668.000,373.200,85.730,20.480,121.100,15.130,3.171,1.140,337.800,50.150,10.490,3.714,easy
1872.000,388.700,94.240,26.030,1676.000,374.000,85.740,20.570,123.800,14.760,3.237,1.152,338.500,50.210,10.360,3.712,easy
1886.000,389.700,94.220,26.170,1673.000,373.000,86.110,20.510,123.300,14.820,3.192,1.127,340.000,50.840,10.520,3.727,easy
1887.000,390.200,94.280,26.430,1679.000,375.200,86.470,20.770,121.900,14.980,3.226,1.162,342.200,50.570,10.690,3.816,easy
1880.000,394.500,94.550,26.610,1673.000,374.900,85.040,20.700,120.300,14.960,3.253,1.101,343.900,51.120,10.680,3.781,easy
1879.000,390.300,94.560,26.470,1664.000,372.500,86.150,20.580,121.400,14.850,3.189,1.127,342.400,49.770,10.430,3.718,easy
1865.000,388.100,93.070,26.120,1662.000,374.700,85.900,20.600,122.300,14.860,3.186,1.137,336.100,49.610,10.460,3.720,easy
1874.000,386.400,93.420,26.170,1657.000,371.400,85.670,20.500,117.700,14.710,3.169,1.145,337.300,50.100,10.550,3.745,easy
1868.000,389.700,94.470,26.030,1670.000,373.000,85.820,20.630,120.400,14.820,3.225,1.136,337.200,50.240,10.740,3.762,easy
1856.000,390.300,93.940,25.960,1684.000,374.300,85.560,20.600,119.800,14.780,3.210,1.146,336.900,49.530,10.560,3.753,easy
1863.000,389.700,93.950,26.080,1662.000,374.800,85.870,20.750,119.900,15.010,3.184,1.129,339.900,50.610,10.780,3.810,easy
1865.000,389.700,94.280,26.510,1668.000,376.900,86.020,20.710,121.100,14.950,3.244,1.141,340.800,50.280,10.770,3.744,easy
1892.000,392.800,94.720,26.400,1669.000,375.400,86.200,20.850,118.700,14.950,3.218,1.146,341.000,51.330,10.840,3.784,easy
1885.000,395.100,94.880,26.600,1682.000,377.400,86.460,20.850,121.600,15.020,3.242,1.114,344.500,51.480,10.840,3.910,easy
1897.000,399.200,95.480,26.530,1685.000,378.200,86.140,20.790,120.900,14.880,3.225,1.125,346.800,51.640,10.950,3.861,easy
1886.000,396.400,95.030,26.350,1668.000,373.500,86.130,20.550,123.000,14.960,3.178,1.142,340.200,50.350,10.430,3.820,easy
1865.000,390.600,94.190,26.330,1662.000,375.400,86.120,20.580,118.400,14.710,3.278,1.139,336.300,49.920,10.540,3.753,easy
1870.000,390.000,93.640,26.210,1670.000,375.300,85.190,20.650,118.400,14.860,3.188,1.143,337.100,50.350,10.780,3.844,easy
1872.000,388.700,94.270,26.360,1671.000,375.500,85.500,20.740,118.400,14.940,3.228,1.134,338.600,50.440,10.710,3.819,easy
1855.000,391.000,94.930,26.170,1668.000,376.500,86.150,20.650,119.200,14.660,3.255,1.136,337.800,50.570,10.820,3.818,easy
1868.000,391.100,94.550,26.280,1661.000,373.700,86.410,20.750,118.600,14.830,3.246,1.130,342.100,50.950,10.830,3.807,easy
1852.000,396.200,94.670,26.570,1655.000,373.300,85.770,20.760,118.700,14.860,3.222,1.133,342.600,51.470,10.810,3.817,easy
1886.000,394.900,95.410,26.570,1661.000,376.600,86.440,20.610,119.600,15.050,3.284,1.134,344.200,50.620,11.010,3.899,easy
1889.000,397.100,94.690,26.650,1665.000,375.200,85.720,20.840,123.900,15.070,3.226,1.124,344.100,51.470,10.850,3.874,easy
1904.000,397.500,96.960,26.510,1666.000,375.600,86.530,20.700,124.000,15.000,3.230,1.130,346.700,52.040,10.910,3.887,easy
1902.000,395.900,95.260,26.640,1671.000,376.600,85.550,20.600,119.900,14.920,3.264,1.140,344.400,51.210,10.800,3.875,easy
1863.000,395.900,94.240,26.120,1650.000,374.300,85.960,20.740,120.200,14.920,3.203,1.108,341.200,50.390,10.740,3.774,easy
1868.000,398.600,94.410,26.170,1659.000,371.700,86.150,20.640,120.700,14.950,3.209,1.127,339.300,50.510,10.800,3.813,easy
1855.000,393.600,94.810,26.360,1656.000,374.100,85.960,20.740,119.300,14.680,3.234,1.148,342.100,50.360,10.710,3.805,easy
1883.000,394.100,94.740,26.480,1682.000,374.600,85.640,20.710,122.400,14.860,3.165,1.143,342.600,50.970,10.810,3.870,easy
1881.000,394.500,95.540,26.520,1665.000,375.300,85.680,20.760,119.400,14.780,3.192,1.145,342.900,50.990,10.890,3.877,easy
1881.000,395.700,95.210,26.730,1675.000,375.600,86.370,20.740,120.600,14.870,3.238,1.147,344.700,52.160,10.940,3.885,easy
1879.000,395.600,96.830,26.680,1685.000,377.800,86.990,20.830,117.600,15.050,3.220,1.163,347.100,51.740,11.040,3.918,easy
1887.000,397.400,96.670,26.610,1668.000,379.700,85.970,20.990,119.700,15.070,3.251,1.150,347.900,52.250,10.990,3.931,easy
1898.000,400.600,96.420,27.010,1677.000,379.100,86.940,21.020,119.200,15.160,3.185,1.137,349.100,52.580,11.190,4.028,easy
1911.000,402.200,97.140,27.150,1668.000,378.300,85.820,20.800,123.200,15.080,3.253,1.146,349.100,52.200,10.970,3.903,easy
1884.000,395.500,94.680,26.560,1669.000,377.300,86.450,20.680,122.600,14.920,3.195,1.100,342.900,51.120,10.830,3.949,easy
1874.000,392.900,95.120,26.470,1676.000,373.500,86.570,20.620,118.200,14.930,3.144,1.156,344.300,51.250,10.850,3.893,easy
1867.000,401.100,96.250,26.790,1663.000,377.100,85.680,20.850,122.300,14.890,3.193,1.148,344.800,51.270,10.730,3.860,easy
1878.000,398.000,95.720,26.670,1679.000,375.700,85.920,20.730,117.900,14.980,3.242,1.120,344.500,51.110,10.760,3.954,easy
1865.000,394.300,96.420,26.550,1668.000,376.400,85.050,20.760,122.100,14.740,3.223,1.127,344.100,52.180,11.000,3.910,easy
1882.000,396.400,96.390,26.780,1669.000,374.400,86.260,20.690,119.500,14.900,3.186,1.110,346.000,52.380,11.150,3.905,easy
1896.000,403.600,96.390,26.800,1675.000,376.600,86.710,21.020,122.500,14.870,3.213,1.143,348.100,52.280,11.130,3.909,easy
1884.000,400.200,97.110,27.040,1685.000,376.900,86.020,20.770,121.800,15.080,3.250,1.157,348.800,52.360,11.090,3.971,easy
1907.000,402.500,96.960,26.970,1668.000,373.000,85.880,20.780,121.500,15.020,3.216,1.125,350.200,52.780,11.090,3.944,easy
1878.000,399.500,94.530,26.540,1670.000,370.900,85.470,20.710,122.300,14.930,3.227,1.108,343.200,50.910,10.930,3.841,easy
1870.000,394.500,94.990,26.610,1679.000,373.400,85.590,20.580,121.600,14.910,3.140,1.126,342.700,50.900,10.870,3.829,easy
1866.000,396.700,95.730,26.490,1660.000,372.100,85.370,20.710,122.100,14.850,3.263,1.135,343.200,51.220,11.040,3.878,easy
1867.000,395.100,95.240,26.500,1663.000,375.900,85.820,20.610,120.400,14.990,3.167,1.122,343.200,51.470,10.990,3.905,easy
1872.000,393.800,95.040,26.650,1647.000,372.200,85.660,20.800,119.300,14.890,3.248,1.145,345.500,51.640,10.900,3.854,easy
1883.000,395.600,96.610,26.730,1666.000,375.700,86.200,20.620,121.900,15.040,3.185,1.143,347.300,51.630,10.980,3.956,easy
1871.000,397.900,96.160,26.830,1659.000,372.400,85.780,20.640,118.400,15.070,3.170,1.134,349.300,52.100,11.040,3.912,easy
1893.000,398.600,96.530,26.750,1670.000,376.800,85.500,20.790,121.400,15.030,3.208,1.130,348.600,53.000,11.170,3.951,easy
1896.000,399.300,97.770,26.970,1683.000,376.400,85.900,20.780,121.800,15.040,3.245,1.113,351.700,53.460,11.210,3.977,easy
1876.000,397.000,95.860,26.680,1662.000,372.900,85.870,20.540,122.800,15.150,3.270,1.126,345.800,51.620,10.840,3.897,easy
1868.000,398.500,95.350,26.600,1657.000,374.400,85.600,20.710,118.700,14.980,3.181,1.126,350.700,52.470,11.090,3.953,bogus
1858.000,398.700,95.910,26.840,1672.000,374.300,85.750,20.760,122.200,14.960,3.245,1.126,350.800,52.550,11.190,3.964,bogus
1877.000,396.200,95.800,26.850,1653.000,373.900,85.410,20.600,119.600,15.030,3.200,1.136,350.800,53.270,11.210,3.893,bogus
1884.000,397.100,95.500,26.830,1664.000,373.500,85.550,20.490,122.700,15.000,3.258,1.141,350.300,51.950,10.990,3.915,bogus
1846.000,393.700,95.660,26.330,1654.000,370.600,84.640,20.520,121.300,14.920,3.163,1.118,343.700,51.730,10.850,3.914,bogus
1682.000,355.300,84.850,23.660,1501.000,332.800,76.770,18.660,119.300,14.760,3.080,1.094,346.800,51.620,10.750,3.791,hard
1703.000,356.900,84.730,23.820,1501.000,331.500,76.530,18.640,120.500,14.680,3.084,1.088,347.100,51.280,10.570,3.701,hard
1683.000,350.600,83.780,23.240,1490.000,331.000,76.860,18.720,118.100,14.720,3.120,1.081,339.800,50.130,10.570,3.647,hard
1671.000,349.300,85.100,23.330,1496.000,329.900,76.270,18.470,119.100,14.420,3.140,1.081,339.100,50.530,10.570,3.719,hard
1672.000,350.400,83.950,23.420,1485.000,328.400,75.730,18.470,119.300,14.510,3.122,1.101,341.400,50.850,10.650,3.672,hard
1671.000,348.300,83.780,23.420,1485.000,329.900,76.480,18.630,118.500,14.500,3.117,1.104,339.300,49.860,10.310,3.689,hard
1667.000,351.700,84.470,23.460,1500.000,330.700,76.970,18.700,117.700,14.590,3.101,1.109,340.800,50.630,10.610,3.693,hard
1681.000,353.100,84.300,23.820,1499.000,329.500,76.970,18.750,119.200,14.610,3.105,1.118,342.300,51.140,10.630,3.738,hard
1674.000,355.900,85.140,23.670,1496.000,330.900,76.750,18.650,117.100,14.520,3.097,1.093,343.800,50.960,10.670,3.760,hard
1693.000,354.000,85.640,23.750,1508.000,334.000,77.300,18.800,118.800,14.560,3.100,1.101,343.900,51.280,10.720,3.755,hard
1700.000,357.000,84.850,23.750,1503.000,331.300,76.200,18.740,119.600,14.620,3.093,1.125,342.100,50.660,10.400,3.723,hard
1673.000,352.200,84.580,23.470,1488.000,330.300,76.180,18.610,117.200,14.660,3.148,1.107,336.300,49.840,10.510,3.690,hard
1681.000,350.800,84.920,23.490,1482.000,331.000,76.910,18.600,117.300,14.430,3.134,1.104,340.300,50.200,10.430,3.626,hard
1671.000,349.900,84.450,23.430,1479.000,330.600,75.970,18.480,120.800,14.550,3.120,1.096,338.100,49.720,10.580,3.692,hard
1664.000,349.200,85.000,23.450,1492.000,329.300,76.360,18.610,118.300,14.420,3.146,1.111,339.600,50.220,10.430,3.702,hard
1682.000,351.900,84.840,23.560,1491.000,327.700,77.110,18.600,119.300,14.510,3.107,1.095,338.400,50.430,10.490,3.661,hard
1672.000,354.400,84.620,23.650,1499.000,331.400,76.460,18.640,121.100,14.710,3.091,1.104,342.300,50.590,10.590,3.761,hard
1668.000,353.400,85.550,23.830,1507.000,331.800,76.840,18.730,120.500,14.650,3.089,1.122,342.500,51.070,10.760,3.815,hard
1696.000,353.700,85.800,23.780,1508.000,332.700,76.500,18.600,119.200,14.820,3.156,1.122,344.400,51.760,10.660,3.844,hard
1680.000,351.300,84.630,23.610,1491.000,330.300,76.600,18.560,120.200,14.720,3.173,1.109,339.100,50.300,10.650,3.677,hard
1642.000,348.200,83.170,23.200,1476.000,329.200,75.610,18.380,115.400,14.580,3.126,1.103,337.600,49.730,10.470,3.632,hard
1671.000,351.100,84.650,23.530,1479.000,331.500,76.270,18.570,118.300,14.520,3.114,1.122,337.400,49.840,10.550,3.636,hard
1648.000,348.200,83.770,23.380,1481.000,329.600,76.160,18.550,117.600,14.650,3.148,1.127,338.600,49.920,10.500,3.705,hard
1656.000,347.600,84.520,23.550,1494.000,332.200,76.360,18.670,117.100,14.530,3.176,1.107,338.000,50.200,10.390,3.630,hard
1667.000,350.500,84.690,23.600,1490.000,329.700,77.240,18.710,120.000,14.540,3.190,1.120,339.600,50.660,10.690,3.692,hard
1674.000,352.700,85.590,23.860,1486.000,331.400,77.390,18.770,122.100,14.630,3.196,1.126,340.000,51.540,10.540,3.779,hard
1667.000,355.000,84.930,24.020,1494.000,330.500,76.690,18.660,118.500,14.640,3.155,1.129,342.600,50.640,10.610,3.793,hard
1680.000,353.200,85.580,24.110,1506.000,332.500,77.000,18.650,121.100,14.650,3.202,1.101,345.600,51.340,10.680,3.635,hard
1664.000,351.600,84.580,23.520,1488.000,328.900,76.090,18.730,119.700,14.720,3.180,1.139,336.300,49.500,10.500,3.665,hard
1651.000,349.400,83.640,23.450,1490.000,329.300,75.840,18.650,119.300,14.530,3.121,1.101,335.200,49.860,10.440,3.629,hard
1660.000,347.100,84.170,23.470,1479.000,329.300,76.860,18.670,118.500,14.460,3.109,1.124,335.600,49.870,10.760,3.697,hard
1647.000,345.200,84.070,23.620,1489.000,327.500,76.660,18.680,120.300,14.450,3.202,1.116,336.200,49.660,10.630,3.766,hard
1650.000,345.400,84.100,23.550,1499.000,331.600,76.740,18.710,118.000,14.640,3.133,1.118,337.400,50.120,10.670,3.670,hard
1645.000,348.000,84.430,23.680,1490.000,329.500,76.630,18.830,117.200,14.760,3.238,1.128,337.200,50.130,10.700,3.692,hard
1674.000,352.800,84.670,23.900,1498.000,333.000,76.970,18.820,117.400,14.720,3.119,1.115,340.200,50.550,10.630,3.787,hard
1661.000,351.000,85.520,24.170,1501.000,332.300,77.050,18.790,119.800,14.790,3.194,1.117,340.300,50.870,10.800,3.780,hard
1690.000,355.500,85.150,23.950,1500.000,329.800,76.850,18.710,117.600,14.680,3.182,1.144,341.000,50.680,10.540,3.664,hard
1651.000,348.000,83.930,23.490,1481.000,331.900,76.110,18.770,117.900,14.450,3.190,1.128,337.200,49.750,10.520,3.650,hard
1649.000,346.800,84.010,23.340,1482.000,331.700,76.850,18.610,117.000,14.580,3.184,1.128,334.900,49.790,10.410,3.682,hard
1638.000,350.000,84.380,23.390,1481.000,333.600,76.790,18.630,119.000,14.720,3.201,1.131,337.500,49.170,10.570,3.671,hard
1659.000,345.100,84.280,23.600,1491.000,331.400,76.200,18.660,116.000,14.490,3.171,1.129,335.600,49.710,10.450,3.715,hard
1656.000,346.400,84.140,23.660,1493.000,332.100,76.670,18.660,115.500,14.700,3.194,1.153,336.200,49.990,10.370,3.746,hard
1668.000,353.100,84.960,23.930,1492.000,331.700,77.180,18.750,116.900,14.660,3.164,1.126,338.300,50.090,10.660,3.741,hard
1674.000,352.500,84.810,23.870,1510.000,336.800,77.430,18.900,117.500,14.590,3.199,1.130,337.000,50.720,10.680,3.770,hard
1681.000,354.800,85.840,23.820,1503.000,331.800,77.030,18.830,120.100,14.700,3.195,1.140,342.400,49.880,10.530,3.702,hard
1661.000,350.200,84.410,23.550,1496.000,328.400,76.510,18.660,119.400,14.710,3.217,1.127,336.000,49.510,10.420,3.649,hard
1645.000,346.600,83.290,23.610,1489.000,331.100,76.990,18.690,120.700,14.670,3.148,1.141,332.200,49.160,10.350,3.630,hard
1642.000,351.400,83.710,23.620,1490.000,333.200,77.110,18.780,115.700,14.610,3.166,1.125,333.400,49.330,10.440,3.692,hard
1632.000,345.600,85.250,23.530,1491.000,332.700,77.080,18.830,121.200,14.530,3.205,1.159,333.100,49.020,10.520,3.681,hard
1651.000,347.300,84.000,23.610,1492.000,335.100,76.830,18.770,118.500,14.530,3.181,1.132,334.300,48.910,10.450,3.667,hard
1660.000,353.700,84.870,23.700,1496.000,335.300,77.100,18.950,117.900,14.620,3.155,1.136,335.600,49.530,10.530,3.702,hard
1661.000,352.100,84.430,23.730,1497.000,333.500,77.370,18.960,117.600,14.470,3.174,1.150,336.900,50.390,10.560,3.714,hard
1671.000,349.600,85.310,23.950,1502.000,334.900,78.120,18.970,115.100,14.630,3.175,1.136,338.900,50.030,10.760,3.756,hard
1676.000,353.000,85.900,23.960,1510.000,335.100,77.030,18.950,118.700,14.670,3.195,1.137,338.100,49.910,10.580,3.700,hard
1660.000,344.500,84.340,23.580,1500.000,334.900,77.800,18.730,117.600,14.620,3.128,1.142,331.900,48.710,10.320,3.658,hard
1647.000,348.100,84.180,23.580,1491.000,335.400,77.470,18.780,117.600,14.540,3.171,1.138,331.000,48.600,10.390,3.708,hard
1644.000,346.700,84.350,23.550,1486.000,332.400,76.980,18.800,117.200,14.630,3.186,1.127,333.000,49.150,10.290,3.740,hard
1640.000,348.500,84.180,23.540,1490.000,334.200,76.530,18.870,116.000,14.390,3.174,1.141,333.500,49.030,10.370,3.679,hard
1645.000,350.600,83.710,23.690,1500.000,334.800,77.120,18.990,116.600,14.500,3.185,1.165,333.600,48.980,10.390,3.631,hard
1659.000,350.200,84.280,23.650,1508.000,332.000,77.660,18.850,118.100,14.520,3.173,1.144,334.900,49.230,10.440,3.663,hard
1659.000,347.400,84.800,23.900,1507.000,335.400,77.610,19.020,117.600,14.620,3.200,1.132,334.400,49.490,10.520,3.751,hard
1685.000,353.400,84.800,24.000,1517.000,336.500,77.740,19.000,118.100,14.520,3.147,1.137,338.900,49.940,10.650,3.655,hard
1679.000,354.800,85.850,23.940,1531.000,335.600,78.110,19.030,116.800,14.590,3.194,1.147,341.600,49.920,10.510,3.724,hard
1667.000,351.400,85.290,23.610,1511.000,337.300,77.120,18.970,119.300,14.570,3.222,1.132,334.000,49.110,10.500,3.699,hard
1660.000,350.500,84.170,23.680,1506.000,336.100,77.560,18.920,118.400,14.530,3.260,1.128,328.900,48.800,10.470,3.640,hard
1643.000,354.000,84.940,23.900,1508.000,337.600,77.950,18.900,118.600,14.520,3.172,1.146,332.300,49.090,10.370,3.704,hard
1658.000,349.400,84.330,23.550,1498.000,334.300,77.570,18.780,117.100,14.370,3.217,1.173,331.100,49.140,10.430,3.701,hard
1666.000,348.700,84.760,23.620,1521.000,337.400,78.210,18.960,118.400,14.590,3.205,1.144,331.700,48.970,10.420,3.640,hard
1656.000,354.200,85.160,23.750,1507.000,337.000,77.370,18.970,118.300,14.580,3.182,1.162,333.600,48.940,10.410,3.690,hard
1665.000,349.700,84.990,23.650,1520.000,338.900,77.820,19.050,119.800,14.550,3.241,1.146,336.100,49.460,10.500,3.786,hard
1670.000,353.100,85.920,23.920,1511.000,341.600,78.650,19.230,115.800,14.670,3.241,1.145,336.500,49.660,10.470,3.776,hard
1686.000,356.600,86.260,24.040,1520.000,339.100,78.380,18.950,115.900,14.630,3.264,1.163,337.700,49.880,10.640,3.747,hard
1655.000,352.900,85.410,23.730,1524.000,339.100,78.420,19.000,116.400,14.590,3.152,1.131,331.400,48.510,10.430,3.663,hard
1667.000,349.200,85.380,23.750,1513.000,341.200,77.770,19.060,116.900,14.520,3.150,1.167,330.100,48.900,10.390,3.682,hard
1671.000,352.500,84.620,23.710,1526.000,339.500,78.680,18.990,116.900,14.520,3.181,1.165,332.100,48.810,10.360,3.708,hard
1668.000,352.200,85.020,23.720,1514.000,336.500,77.710,18.980,117.400,14.560,3.281,1.140,331.800,48.750,10.400,3.705,hard
1658.000,352.200,85.060,23.830,1527.000,340.000,77.930,19.010,118.200,14.430,3.226,1.166,331.200,48.840,10.280,3.743,hard
1670.000,353.700,84.920,23.760,1535.000,340.100,77.690,19.050,116.600,14.610,3.228,1.153,335.900,49.480,10.460,3.706,hard
1680.000,356.800,85.640,24.030,1531.000,341.000,78.520,19.070,117.900,14.540,3.206,1.145,337.000,49.650,10.680,3.727,hard
1698.000,356.400,86.490,24.060,1542.000,343.200,78.670,19.130,118.900,14.680,3.230,1.152,337.400,49.950,10.810,3.797,hard
1694.000,356.500,86.830,24.140,1540.000,341.600,79.050,19.030,119.100,14.740,3.210,1.160,335.400,49.620,10.730,3.763,hard
1674.000,355.300,84.710,23.810,1527.000,340.400,78.290,19.040,116.200,14.580,3.174,1.120,329.200,48.480,10.430,3.697,hard
1681.000,354.900,85.760,23.910,1524.000,341.700,79.100,19.160,115.700,14.650,3.225,1.159,331.100,48.670,10.360,3.691,hard
1681.000,356.300,85.110,23.950,1522.000,343.400,78.830,19.130,115.100,14.510,3.176,1.155,333.100,49.180,10.480,3.749,hard
1686.000,357.500,85.100,23.930,1526.000,344.900,79.570,19.320,113.700,14.500,3.176,1.163,329.900,49.160,10.520,3.731,hard
1686.000,356.300,85.550,24.120,1530.000,346.100,79.490,19.370,117.900,14.380,3.171,1.164,332.600,48.970,10.530,3.809,hard
1701.000,356.100,86.850,24.180,1557.000,347.100,79.620,19.430,117.600,14.620,3.235,1.190,338.800,50.850,10.870,3.822,hard
1716.000,359.300,87.790,24.280,1558.000,348.800,81.170,19.760,119.400,14.910,3.273,1.187,340.600,50.670,10.690,3.931,hard
1714.000,361.000,88.220,24.540,1561.000,349.100,81.310,19.830,121.300,14.800,3.299,1.195,342.100,50.990,10.950,3.824,hard
1710.000,366.200,87.920,24.520,1562.000,348.900,80.620,19.410,119.600,14.870,3.288,1.174,339.000,49.750,10.640,3.793,hard
1710.000,355.200,86.290,24.110,1547.000,352.100,81.060,19.550,118.300,14.880,3.218,1.163,334.400,49.260,10.560,3.746,hard
1710.000,360.300,86.670,24.170,1571.000,348.700,80.610,19.520,120.000,14.570,3.220,1.170,330.900,49.300,10.510,3.771,hard
1699.000,357.800,86.000,24.180,1556.000,348.700,80.290,19.470,117.000,14.620,3.237,1.181,333.800,48.880,10.530,3.714,hard
1702.000,359.600,86.960,23.860,1554.000,348.900,79.960,19.370,116.800,14.780,3.208,1.199,337.400,49.720,10.640,3.807,hard
1713.000,358.400,86.600,23.890,1547.000,348.000,80.340,19.530,121.400,14.920,3.249,1.187,340.400,50.330,10.590,3.852,hard
1695.000,364.100,86.390,24.170,1543.000,351.200,80.240,19.530,119.200,15.090,3.240,1.181,340.200,50.400,10.820,3.838,hard
1721.000,361.900,86.830,24.570,1562.000,353.900,81.380,19.720,121.600,15.030,3.222,1.171,342.200,50.630,10.740,3.871,hard
1727.000,362.200,88.110,24.560,1557.000,353.100,81.090,19.730,120.200,14.900,3.300,1.200,339.400,50.320,10.670,3.794,hard
1705.000,363.200,86.880,24.210,1562.000,353.800,80.830,19.770,123.200,15.130,3.313,1.195,335.800,49.010,10.650,3.865,hard
1707.000,363.800,86.830,24.230,1541.000,349.600,81.450,19.530,119.900,14.840,3.321,1.185,329.000,48.650,10.760,3.884,hard
1701.000,358.300,86.850,24.120,1549.000,351.700,80.430,19.510,119.200,14.820,3.374,1.213,329.500,48.740,10.560,3.804,hard
1708.000,356.200,87.180,24.030,1559.000,350.600,80.630,19.580,119.100,14.810,3.279,1.198,331.700,49.750,10.800,3.810,hard
1712.000,361.500,86.770,24.100,1554.000,351.700,79.890,19.550,118.900,14.880,3.265,1.170,337.100,50.220,10.530,3.839,hard
1709.000,360.300,86.600,24.230,1552.000,351.300,80.630,19.720,118.000,15.030,3.316,1.198,340.900,51.080,10.840,3.899,hard
1706.000,364.500,87.610,24.370,1560.000,353.700,81.230,19.640,121.100,15.270,3.324,1.181,342.700,50.340,10.820,3.844,hard
1718.000,363.900,86.240,24.120,1561.000,349.200,80.480,19.570,118.600,15.030,3.267,1.198,336.400,49.070,10.590,3.809,hard
1696.000,362.000,86.300,24.170,1545.000,349.000,80.500,19.560,120.700,14.710,3.257,1.192,331.400,49.100,10.560,3.805,hard
1696.000,362.900,87.100,24.240,1552.000,351.100,80.800,19.690,123.100,14.980,3.293,1.188,335.400,49.510,10.680,3.841,hard
1710.000,360.500,87.610,24.290,1557.000,352.200,80.030,19.700,119.700,15.020,3.400,1.176,334.300,49.740,10.670,3.882,hard
1699.000,360.700,87.110,24.120,1551.000,350.400,81.090,19.710,121.100,14.870,3.285,1.183,336.000,49.090,10.870,3.949,hard
1705.000,360.400,87.210,24.420,1551.000,352.100,80.790,19.750,116.700,15.080,3.313,1.199,339.300,50.160,10.820,3.932,hard
1733.000,364.600,87.800,24.600,1560.000,352.500,81.600,19.750,123.600,15.260,3.329,1.225,340.500,51.230,11.140,3.876,hard
1733.000,367.100,87.760,24.400,1559.000,352.000,81.090,19.770,123.900,15.210,3.361,1.226,339.100,50.510,10.650,3.870,hard
1708.000,362.900,87.550,24.330,1542.000,350.300,81.040,19.630,120.100,14.840,3.389,1.214,335.100,49.860,10.840,3.890,hard
1694.000,364.600,87.460,24.370,1554.000,351.400,81.720,19.670,119.300,14.980,3.400,1.207,335.300,49.950,10.720,3.895,hard
1715.000,360.900,87.390,24.560,1553.000,350.900,81.300,19.710,120.800,14.980,3.341,1.213,334.400,49.480,10.840,3.954,hard
1699.000,362.300,87.920,24.310,1557.000,350.900,80.650,19.820,120.900,15.130,3.379,1.202,337.300,49.910,10.750,3.958,hard
1729.000,365.600,88.160,24.620,1569.000,353.900,81.730,19.660,123.200,15.000,3.394,1.220,338.400,50.360,11.000,3.927,hard
1732.000,370.600,88.930,24.940,1558.000,352.800,81.260,19.920,119.500,15.010,3.434,1.214,342.000,51.010,10.910,3.997,hard
1744.000,371.000,89.540,24.980,1571.000,354.100,81.840,19.680,121.300,15.200,3.373,1.231,342.700,50.950,10.920,4.017,hard
1718.000,365.100,88.510,24.500,1562.000,349.000,81.570,19.650,121.900,15.200,3.347,1.233,335.800,50.200,10.580,3.917,hard
1723.000,368.600,89.550,24.730,1561.000,352.100,81.650,19.760,121.700,14.910,3.338,1.216,333.500,50.190,10.720,3.985,hard
1721.000,369.200,88.440,24.630,1563.000,353.700,81.400,19.690,119.400,15.000,3.331,1.204,337.700,50.280,10.740,4.007,hard
1748.000,368.800,88.550,24.720,1572.000,355.300,82.340,19.810,121.000,15.040,3.331,1.203,336.400,49.670,10.880,3.961,hard
1735.000,369.400,89.180,24.990,1575.000,352.200,81.360,19.840,120.600,15.150,3.352,1.218,338.300,50.540,10.900,3.951,hard
1751.000,370.700,89.440,25.070,1577.000,358.400,81.710,19.750,121.600,14.980,3.290,1.220,340.800,50.510,11.000,3.992,hard
1751.000,371.500,90.900,25.220,1580.000,356.100,81.510,19.720,121.100,15.160,3.370,1.226,343.300,50.800,11.050,3.951,hard
1747.000,372.300,89.200,24.930,1561.000,356.100,81.680,19.690,121.700,15.050,3.355,1.205,337.200,50.120,10.680,3.954,hard
1744.000,372.400,89.730,25.080,1568.000,354.300,81.660,19.680,120.200,15.110,3.297,1.195,335.800,49.470,10.740,3.906,hard
1734.000,370.600,89.310,25.190,1567.000,354.100,81.660,19.790,119.500,14.940,3.319,1.212,337.400,50.230,10.820,4.008,hard
1748.000,374.400,89.820,25.040,1573.000,355.500,81.880,19.590,122.700,15.090,3.361,1.199,338.500,50.380,10.870,3.939,hard
1731.000,370.700,89.460,25.300,1573.000,355.200,81.720,19.700,120.800,15.090,3.292,1.185,337.000,50.160,10.820,3.986,hard
1752.000,372.900,90.060,25.240,1588.000,356.600,81.060,19.660,120.400,15.180,3.307,1.196,340.100,51.240,10.880,3.946,hard
1767.000,375.900,91.020,25.280,1581.000,354.100,81.500,19.780,121.200,15.130,3.374,1.199,343.100,51.730,11.190,4.091,hard
1770.000,373.600,90.480,25.150,1566.000,355.000,81.220,19.610,121.400,15.180,3.378,1.197,336.900,50.270,10.900,3.977,hard
1758.000,372.000,90.580,25.160,1575.000,352.400,80.980,19.600,119.600,15.030,3.353,1.205,337.800,50.120,10.930,3.948,hard
1751.000,374.200,89.670,25.370,1577.000,354.900,80.200,19.720,125.700,14.940,3.340,1.207,339.400,50.950,11.030,3.923,hard
1754.000,375.000,90.020,25.440,1564.000,355.900,81.680,19.700,120.500,15.270,3.318,1.197,338.800,50.970,10.960,3.989,hard
1769.000,373.200,90.210,25.540,1575.000,354.400,81.090,19.640,119.800,14.990,3.325,1.213,339.500,50.670,10.930,4.002,hard
1768.000,373.800,91.490,25.560,1592.000,355.600,81.560,19.730,123.100,15.180,3.401,1.209,340.200,51.120,11.150,4.034,hard
1782.000,377.500,91.520,25.600,1592.000,356.200,81.090,19.680,121.400,15.070,3.346,1.188,343.500,51.380,11.190,4.020,hard
1785.000,379.800,91.670,25.430,1569.000,355.500,81.530,19.570,121.400,15.160,3.328,1.187,339.100,50.350,11.020,3.982,hard
1777.000,374.900,90.240,25.340,1592.000,353.800,81.240,19.380,124.500,14.910,3.316,1.208,335.900,50.530,10.960,3.980,hard
1753.000,375.200,91.020,25.570,1589.000,354.500,80.620,19.550,120.200,14.860,3.353,1.182,338.100,50.230,11.090,4.025,hard
1769.000,373.100,91.610,25.310,1581.000,354.100,81.140,19.610,121.300,15.190,3.376,1.189,340.100,50.880,10.990,4.025,hard
1781.000,374.700,91.490,25.380,1582.000,354.200,81.580,19.590,121.100,14.930,3.327,1.182,340.400,50.740,11.060,3.984,hard
1776.000,378.500,92.430,25.690,1592.000,356.400,81.590,19.440,118.300,15.220,3.372,1.189,342.600,51.570,11.340,4.026,hard
1785.000,379.600,92.280,25.890,1586.000,356.900,81.640,19.620,120.200,15.160,3.365,1.205,343.600,51.800,11.170,4.057,hard
1792.000,374.300,91.660,25.340,1571.000,357.000,81.290,19.510,118.300,15.100,3.344,1.188,337.600,50.580,10.980,4.023,hard
1777.000,377.200,90.230,25.350,1574.000,353.600,80.940,19.470,119.700,14.890,3.357,1.168,337.300,50.410,10.890,3.988,hard
1795.000,381.800,91.170,25.410,1575.000,355.900,81.030,19.580,118.300,15.180,3.346,1.181,336.600,51.040,11.190,3.972,hard
1784.000,376.900,91.330,25.580,1577.000,352.800,80.580,19.500,121.800,15.160,3.273,1.169,342.500,50.510,11.110,3.975,hard
1782.000,378.700,91.150,25.850,1582.000,357.300,81.200,19.430,121.800,15.100,3.341,1.178,340.700,50.970,11.230,4.039,hard
1799.000,378.500,91.470,25.530,1580.000,354.600,81.360,19.580,120.000,14.930,3.237,1.194,345.600,51.120,11.230,4.060,hard
1790.000,380.200,91.990,25.850,1588.000,356.600,81.180,19.690,120.200,15.250,3.414,1.200,346.800,52.450,11.150,4.057,hard
1785.000,379.100,90.730,25.400,1592.000,353.900,80.980,19.300,123.300,15.110,3.313,1.178,339.600,50.520,11.010,4.052,hard
1775.000,377.200,91.720,25.460,1570.000,354.600,81.410,19.590,121.100,15.010,3.263,1.173,337.900,50.100,11.070,4.000,hard
1771.000,374.400,91.370,25.380,1597.000,352.800,80.890,19.480,119.000,14.970,3.309,1.177,337.700,50.740,11.090,4.013,hard
1782.000,380.400,91.010,25.430,1574.000,354.100,80.200,19.510,121.300,14.850,3.289,1.168,340.600,51.330,10.980,4.023,hard
1776.000,376.600,92.320,25.710,1592.000,355.600,81.130,19.560,121.400,15.060,3.275,1.195,342.700,51.430,11.170,4.051,hard
1802.000,381.500,92.250,25.850,1578.000,356.900,80.750,19.670,120.600,15.320,3.332,1.183,344.000,51.360,11.210,4.051,hard
1775.000,378.600,92.450,25.910,1584.000,355.400,81.540,19.560,122.000,15.110,3.315,1.179,346.500,52.010,11.340,4.142,hard
1803.000,381.700,92.410,25.820,1598.000,353.200,81.010,19.510,121.600,15.280,3.303,1.194,349.000,52.130,11.160,4.058,hard
1791.000,378.700,91.140,25.550,1580.000,351.800,80.330,19.460,120.800,15.160,3.342,1.189,339.600,50.550,10.990,3.973,hard
1763.000,374.900,90.720,25.470,1578.000,352.600,80.420,19.320,118.900,14.970,3.295,1.192,339.200,49.900,10.900,3.990,hard
1784.000,376.000,91.290,25.540,1570.000,351.000,80.560,19.340,118.200,14.900,3.349,1.199,341.400,51.120,11.060,3.982,hard
1797.000,379.700,91.190,25.530,1565.000,350.600,80.130,19.360,120.600,15.210,3.303,1.196,342.900,50.940,11.200,4.008,hard
1780.000,374.300,91.040,25.530,1591.000,352.000,80.480,19.560,118.900,15.200,3.335,1.197,342.000,51.360,11.110,4.077,hard
1808.000,376.800,92.230,25.570,1591.000,353.200,81.110,19.340,120.000,15.130,3.312,1.192,346.200,52.140,11.250,4.073,hard
1800.000,381.100,92.130,25.850,1585.000,354.200,81.340,19.470,119.000,15.220,3.339,1.185,348.900,51.630,11.410,4.119,hard
1802.000,382.600,92.320,25.650,1581.000,351.900,79.970,19.370,120.600,15.320,3.339,1.197,346.100,51.260,11.120,4.037,hard
1787.000,377.100,91.370,25.460,1560.000,351.200,80.460,19.300,121.800,15.010,3.314,1.178,340.600,50.600,11.110,3.970,hard
1777.000,379.800,90.660,25.500,1566.000,350.400,80.890,19.280,120.200,15.090,3.243,1.186,339.600,50.280,11.150,3.963,hard
1791.000,378.200,90.920,25.490,1580.000,351.200,80.720,19.210,121.300,15.140,3.315,1.174,340.300,51.040,11.210,4.078,hard
1796.000,373.000,92.190,25.280,1574.000,351.600,80.340,19.290,127.000,15.210,3.329,1.175,342.400,51.570,11.280,4.016,hard
1785.000,379.200,91.420,25.330,1577.000,351.900,79.890,19.410,121.800,14.950,3.332,1.202,347.100,51.490,11.470,4.020,hard
1789.000,377.200,91.670,25.690,1567.000,352.900,80.460,19.420,122.100,15.210,3.359,1.179,348.200,51.960,11.250,4.058,hard
1810.000,382.700,92.480,25.860,1575.000,349.800,80.270,19.380,123.000,15.330,3.296,1.177,352.900,52.730,11.590,4.107,hard
1807.000,378.800,92.240,25.620,1568.000,349.600,79.390,19.280,123.100,15.470,3.311,1.152,350.300,51.810,11.220,4.056,hard
1785.000,375.000,92.110,25.490,1574.000,348.700,79.860,19.180,123.700,15.200,3.376,1.151,341.900,51.200,11.110,3.987,hard
1787.000,375.300,91.100,25.530,1581.000,349.800,79.880,19.180,121.800,15.060,3.292,1.185,342.300,50.820,11.150,4.047,hard
1794.000,375.200,92.020,25.400,1568.000,349.800,79.900,19.240,122.100,15.320,3.321,1.168,344.100,50.560,11.140,4.010,hard
1794.000,377.300,91.330,25.610,1577.000,351.100,80.290,19.300,121.900,15.170,3.343,1.177,347.000,51.250,11.330,4.093,hard
1802.000,383.700,91.980,25.660,1579.000,353.200,80.400,19.440,121.100,15.190,3.287,1.176,350.300,52.520,11.400,4.109,hard
1803.000,380.500,92.500,25.850,1587.000,352.400,80.340,19.450,121.100,15.320,3.323,1.159,350.300,52.840,11.420,4.074,hard
1795.000,383.200,93.230,26.070,1582.000,352.200,79.820,19.280,120.900,15.200,3.307,1.180,353.200,52.550,11.640,4.094,hard
1815.000,378.000,92.150,25.560,1574.000,350.900,80.040,19.300,121.900,15.400,3.269,1.180,347.100,50.690,11.120,3.960,hard
1812.000,378.700,91.340,25.520,1569.000,353.400,79.510,19.240,120.000,14.980,3.331,1.172,346.300,50.990,11.250,4.011,hard
1809.000,377.400,91.510,25.670,1569.000,350.100,80.400,19.110,119.400,15.170,3.319,1.178,347.400,51.390,11.210,4.070,hard
1795.000,383.500,91.240,25.780,1579.000,350.500,79.520,19.370,120.500,15.020,3.335,1.183,348.000,52.330,11.290,4.064,hard
1803.000,381.600,91.420,25.700,1571.000,352.000,79.230,19.310,123.200,15.070,3.307,1.152,347.100,51.980,11.460,4.037,hard
1803.000,381.300,91.650,25.890,1581.000,349.400,80.390,19.310,124.800,15.050,3.298,1.164,349.700,52.220,11.540,4.185,hard
1808.000,380.300,93.520,26.060,1594.000,353.200,80.720,19.300,119.700,15.180,3.293,1.174,353.000,52.990,11.450,4.204,hard
1819.000,384.000,92.700,25.890,1575.000,352.100,79.160,19.400,125.000,15.240,3.359,1.175,353.000,52.750,11.250,4.090,hard
1808.000,382.200,91.180,25.540,1575.000,349.600,80.230,19.230,124.900,15.170,3.315,1.167,346.800,51.480,11.160,4.021,hard
1793.000,380.700,90.800,25.620,1578.000,348.500,79.670,19.150,123.800,15.160,3.249,1.150,346.700,52.160,11.320,4.039,hard
1805.000,380.400,91.880,25.590,1577.000,351.700,80.190,19.360,120.900,15.170,3.279,1.208,346.700,51.940,11.310,4.071,hard
1796.000,380.200,92.750,25.640,1574.000,351.900,79.710,19.200,122.700,15.190,3.321,1.152,351.100,52.460,11.440,4.079,hard
1808.000,380.300,92.450,25.960,1580.000,352.800,79.820,19.270,124.500,15.160,3.258,1.173,350.800,52.580,11.380,4.101,hard
1833.000,379.200,92.310,25.930,1577.000,354.300,80.310,19.370,126.200,15.310,3.330,1.157,353.600,53.120,11.480,4.131,hard
1827.000,385.900,93.790,26.220,1599.000,353.400,80.840,19.300,121.800,15.210,3.335,1.165,354.600,53.600,11.600,4.179,hard
1817.000,386.000,92.690,26.120,1567.000,348.800,79.680,19.380,123.800,15.350,3.291,1.173,351.600,52.120,11.400,4.070,hard
1792.000,380.300,91.960,25.740,1566.000,348.400,80.100,19.380,122.300,15.010,3.274,1.151,346.300,51.980,11.320,4.059,hard
1807.000,382.500,92.030,25.820,1570.000,352.000,79.920,19.290,124.700,15.220,3.263,1.156,348.900,52.420,11.180,4.116,hard
1807.000,380.400,92.160,25.650,1560.000,348.800,79.600,19.230,121.400,15.130,3.329,1.187,349.000,52.840,11.370,4.055,hard
1800.000,378.100,92.500,25.580,1569.000,350.200,79.740,19.320,120.900,15.190,3.325,1.180,349.000,52.140,11.330,4.012,hard
1815.000,379.400,92.590,25.840,1569.000,350.200,79.460,19.210,122.300,15.310,3.243,1.174,354.500,52.780,11.470,4.120,hard
1822.000,384.000,92.710,26.030,1584.000,348.400,79.740,19.320,124.500,15.040,3.307,1.146,349.200,53.430,11.630,4.103,hard
1827.000,389.000,92.830,26.200,1573.000,349.900,80.310,19.270,121.300,15.060,3.297,1.170,356.300,53.710,11.470,4.089,hard
1824.000,385.400,92.190,25.540,1568.000,349.200,79.410,19.160,123.300,15.360,3.304,1.160,349.900,51.490,11.320,4.086,hard
1791.000,377.700,91.490,25.640,1559.000,350.100,79.910,19.140,120.100,15.110,3.299,1.149,347.500,51.680,11.180,4.006,hard
1804.000,380.900,91.930,25.600,1563.000,349.300,79.160,19.040,121.700,15.240,3.279,1.163,346.900,52.030,11.150,4.006,hard
1803.000,383.700,91.840,25.590,1565.000,346.500,79.570,19.190,124.400,15.360,3.293,1.160,349.200,52.460,11.370,4.102,hard
1807.000,377.500,91.440,25.640,1555.000,350.200,79.510,19.130,121.500,15.060,3.286,1.158,349.700,52.050,11.340,4.026,hard
1804.000,377.300,91.350,25.690,1570.000,346.800,79.550,19.300,123.400,15.200,3.326,1.119,349.100,52.460,11.410,4.112,hard
1830.000,382.900,91.890,25.970,1563.000,349.700,80.410,19.390,122.700,15.320,3.341,1.184,355.300,53.430,11.570,4.169,hard
1826.000,380.700,92.500,25.660,1565.000,349.300,79.280,19.090,123.400,15.280,3.308,1.157,354.000,53.510,11.660,4.108,hard
1792.000,379.400,90.910,25.250,1552.000,347.300,79.600,19.060,121.400,15.240,3.251,1.164,349.800,51.750,11.230,4.072,hard
1809.000,377.400,90.920,25.400,1548.000,346.800,79.100,19.140,120.600,15.200,3.278,1.151,345.300,51.300,11.390,4.066,hard
1787.000,379.100,91.120,25.350,1559.000,346.300,79.210,19.150,123.800,15.150,3.296,1.167,349.900,51.820,11.240,4.124,hard
1803.000,382.200,90.810,25.610,1545.000,346.200,78.890,19.150,121.900,15.030,3.297,1.175,350.800,52.390,11.320,4.043,hard
1794.000,376.400,91.010,25.320,1572.000,349.200,79.700,19.080,120.100,15.090,3.343,1.178,351.400,52.520,11.390,4.039,hard
1798.000,378.400,91.550,25.590,1570.000,350.400,80.180,19.170,121.900,15.250,3.364,1.174,349.800,53.560,11.600,4.067,hard
1808.000,382.200,92.410,25.710,1568.000,348.400,79.570,19.120,121.300,15.230,3.325,1.159,355.800,53.720,11.550,4.146,hard
1796.000,378.800,91.520,25.640,1551.000,345.500,79.410,19.180,122.300,15.260,3.303,1.183,350.800,52.220,11.320,4.052,hard
1795.000,373.900,91.420,24.990,1552.000,345.900,79.010,19.080,120.900,14.950,3.302,1.173,345.300,52.400,11.310,4.002,hard
1784.000,376.700,90.690,25.360,1561.000,344.400,79.300,19.240,124.200,15.200,3.352,1.156,348.900,52.090,11.320,4.035,hard
1780.000,374.800,90.850,25.270,1554.000,346.600,79.830,19.090,121.300,15.160,3.327,1.171,349.500,52.110,11.210,4.025,hard
1797.000,374.600,90.330,25.240,1571.000,346.200,78.940,19.330,122.900,15.170,3.308,1.172,348.000,52.170,11.330,4.051,hard
1792.000,375.700,90.890,25.580,1565.000,349.100,79.810,19.190,125.100,15.110,3.281,1.193,350.000,52.760,11.340,4.073,hard
1801.000,379.800,92.050,25.540,1554.000,347.000,80.360,19.260,123.800,15.220,3.349,1.160,350.700,53.040,11.480,4.119,hard
1794.000,381.200,91.310,25.700,1567.000,347.000,79.610,19.270,123.700,15.320,3.342,1.176,353.800,53.260,11.350,4.074,hard
1774.000,376.900,89.960,25.130,1554.000,342.800,79.460,19.170,123.900,15.120,3.354,1.161,346.600,51.460,11.240,4.107,hard
1778.000,372.500,89.600,25.080,1557.000,347.100,79.290,19.190,122.900,15.110,3.316,1.159,346.900,52.120,11.250,4.003,hard
1782.000,372.100,89.880,25.060,1544.000,347.400,79.310,19.220,123.900,15.180,3.296,1.167,348.000,51.770,11.210,4.093,hard
1793.000,375.200,89.850,24.910,1553.000,346.300,79.530,19.120,120.700,15.010,3.316,1.179,348.400,51.930,11.330,4.021,hard
1772.000,375.400,89.990,25.100,1539.000,344.100,79.680,19.060,119.700,15.240,3.313,1.214,347.300,52.040,11.180,4.013,hard
1778.000,374.800,91.070,25.340,1550.000,345.000,79.940,19.260,121.400,15.190,3.242,1.193,351.200,52.570,11.350,4.086,hard
1784.000,376.200,90.940,25.440,1566.000,345.800,80.190,19.250,124.200,15.310,3.288,1.180,352.800,53.570,11.420,4.047,hard
1792.000,376.200,89.940,25.170,1554.000,345.600,78.790,19.070,120.900,15.420,3.282,1.191,351.400,52.130,11.260,3.997,hard
1766.000,363.900,89.110,24.830,1541.000,341.800,79.240,19.220,124.200,15.160,3.277,1.178,344.700,51.320,11.020,4.004,hard
1764.000,368.900,90.580,24.780,1550.000,344.700,79.040,19.120,120.900,14.930,3.318,1.184,344.900,51.550,10.980,3.958,hard
1761.000,370.600,89.250,24.830,1531.000,345.800,78.620,18.960,122.500,14.990,3.307,1.171,345.800,51.580,11.000,3.929,hard
1757.000,370.300,88.510,24.840,1531.000,347.600,78.100,19.050,122.300,15.320,3.282,1.182,345.900,51.200,11.140,3.963,hard
1762.000,370.500,89.300,24.660,1548.000,344.800,78.580,19.150,119.700,15.040,3.287,1.188,346.600,51.230,11.260,3.960,hard
1759.000,369.400,88.700,24.770,1539.000,344.800,79.100,19.160,122.300,15.170,3.329,1.155,350.200,52.120,11.120,4.067,hard
1766.000,373.200,89.440,24.920,1543.000,343.400,78.950,19.300,120.700,15.180,3.294,1.181,351.000,52.530,11.070,3.978,hard
1745.000,368.500,88.710,24.530,1529.000,343.200,79.030,19.090,121.900,15.180,3.278,1.183,346.900,50.900,11.030,3.932,hard
1738.000,364.100,88.220,24.420,1535.000,343.500,77.820,18.980,122.400,15.110,3.332,1.181,341.500,51.120,10.790,3.955,hard
1728.000,362.400,87.590,24.330,1532.000,345.200,78.610,19.030,120.900,14.930,3.293,1.165,342.100,50.760,11.100,3.904,hard
1739.000,367.100,87.600,24.250,1529.000,345.200,78.120,18.930,121.900,15.300,3.272,1.180,342.300,51.000,10.940,3.875,hard
1726.000,362.500,88.280,24.280,1533.000,342.400,78.670,19.040,123.500,15.070,3.329,1.172,343.500,51.250,11.020,3.924,hard
