A-DC1,A-DC2,A-DC3,A-DC4,A-DC5,A-DC6,A-DC7,A-DC8,B-DC1,B-DC2,B-DC3,B-DC4,B-DC5,B-DC6,B-DC7,B-DC8,condition
882.000,312.700,102.400,36.350,882.400,255.600,89.890,30.930,251.600,62.020,21.440,8.905,438.500,116.500,39.970,17.900,baseline
885.400,313.100,102.100,36.520,881.700,256.700,89.910,31.060,250.200,62.440,21.470,8.891,441.500,117.000,40.170,18.000,baseline
880.200,313.300,102.900,36.690,878.100,257.700,89.530,30.920,250.300,62.630,21.540,8.950,443.900,117.400,40.320,17.980,baseline
882.800,312.900,102.000,36.280,873.000,255.600,89.610,30.790,250.600,62.370,21.440,8.868,437.100,115.600,39.750,17.690,baseline
878.300,314.300,101.600,36.280,878.800,255.600,89.310,30.800,249.900,62.030,21.280,8.867,435.000,115.500,39.540,17.720,baseline
873.900,311.200,101.800,36.200,875.600,256.200,89.460,30.780,249.200,61.960,21.320,8.869,434.700,115.100,39.340,17.650,baseline
878.100,313.800,101.800,36.230,878.000,256.300,89.520,30.810,249.700,61.920,21.280,8.844,433.100,115.100,39.450,17.640,baseline
885.000,310.600,102.000,36.180,876.100,256.500,89.360,30.740,247.700,61.810,21.250,8.868,432.700,115.200,39.410,17.580,baseline
882.900,312.000,101.600,36.160,878.700,256.500,89.630,30.810,248.800,62.000,21.330,8.852,435.000,115.600,39.570,17.690,baseline
879.700,313.300,102.200,36.470,885.300,256.700,89.670,30.910,248.700,61.940,21.320,8.900,435.700,115.600,39.790,17.820,baseline
880.100,314.500,102.700,36.650,883.800,257.400,90.350,31.130,251.000,62.180,21.470,8.945,438.000,116.800,40.270,18.040,baseline
888.900,316.000,103.700,36.980,885.400,258.800,91.010,31.450,251.300,62.560,21.700,9.050,441.300,117.700,40.800,18.220,baseline
894.500,317.100,104.400,37.280,888.900,260.600,91.330,31.540,250.600,62.890,21.850,9.085,444.100,118.200,40.950,18.370,baseline
896.900,318.200,105.200,37.520,889.600,259.900,91.670,31.650,250.300,63.180,22.060,9.151,444.300,119.000,41.170,18.550,baseline
895.300,319.800,105.200,37.690,889.400,260.100,91.900,31.890,250.900,63.200,22.080,9.201,446.400,119.800,41.440,18.550,baseline
897.100,320.500,105.400,37.740,883.000,260.200,91.540,31.560,251.900,63.660,22.150,9.190,447.000,119.300,41.170,18.380,baseline
889.100,318.300,104.800,37.210,875.800,258.200,91.540,31.590,253.200,63.120,21.920,9.078,439.600,117.500,40.690,18.210,baseline
880.000,315.000,104.500,37.150,876.800,258.900,91.260,31.560,249.100,62.710,21.910,9.077,438.000,116.800,40.460,18.130,baseline
878.300,315.000,103.600,37.010,875.200,258.100,90.690,31.390,251.200,62.760,21.760,9.054,434.600,116.100,40.100,17.960,baseline
882.300,313.400,103.500,36.920,877.800,256.700,90.460,31.450,248.300,62.480,21.780,9.001,434.000,115.900,40.090,17.990,baseline
881.300,313.900,103.200,36.880,870.600,258.800,90.730,31.410,248.100,62.370,21.680,9.008,433.000,115.900,40.110,18.000,baseline
877.200,314.000,103.600,36.980,873.600,258.000,90.560,31.410,247.900,62.270,21.790,9.024,433.900,116.300,40.140,17.980,baseline
879.900,313.900,103.600,36.930,876.200,257.200,90.890,31.420,248.300,62.290,21.680,9.027,434.100,116.900,40.300,18.090,baseline
879.800,315.100,103.400,37.080,873.300,258.000,90.940,31.450,249.600,62.630,21.820,9.040,436.200,117.100,40.560,18.200,baseline
886.700,316.000,104.000,37.020,876.800,258.100,90.450,31.200,248.000,62.740,21.780,9.060,439.200,117.400,40.490,18.080,baseline
883.100,313.400,103.000,36.680,879.200,255.700,89.590,30.960,249.000,62.380,21.500,8.911,439.600,117.300,40.270,17.970,baseline
885.400,313.400,102.900,36.740,877.200,256.900,90.190,31.010,249.600,62.210,21.450,8.911,442.900,118.000,40.540,18.130,baseline
890.500,315.200,103.400,37.090,885.600,258.400,90.450,31.190,251.100,62.580,21.610,8.945,446.000,118.900,40.880,18.220,baseline
893.800,317.100,104.200,37.110,884.100,259.200,90.340,31.110,251.900,62.760,21.580,8.955,448.100,119.400,40.950,18.290,baseline
898.800,315.300,103.300,36.680,882.200,257.300,89.340,30.870,252.600,62.690,21.570,8.901,443.000,117.500,40.070,18.060,baseline
895.700,312.700,102.600,36.520,883.300,257.000,89.820,30.870,250.500,62.160,21.420,8.849,439.000,116.900,39.950,17.840,baseline
882.300,312.700,102.700,36.350,881.300,256.400,89.650,30.800,250.900,62.160,21.360,8.847,438.300,116.400,39.970,17.850,baseline
885.500,313.500,102.000,36.390,875.300,256.300,89.660,30.820,249.000,62.130,21.340,8.888,437.600,116.300,39.890,17.830,baseline
883.000,313.900,102.200,36.350,879.100,256.000,89.870,30.790,251.300,62.190,21.300,8.856,437.400,116.400,39.830,17.800,baseline
885.800,313.300,102.500,36.420,883.200,255.500,89.760,30.780,250.200,61.860,21.320,8.891,436.500,117.000,39.950,17.890,baseline
890.000,313.000,102.000,36.420,880.600,257.100,89.510,30.810,249.600,62.170,21.290,8.833,439.900,117.100,40.000,17.910,baseline
890.200,313.400,102.600,36.560,880.500,256.700,89.930,30.930,249.500,62.070,21.350,8.886,440.600,117.500,40.330,18.000,baseline
889.400,315.700,102.700,36.680,880.000,257.700,89.890,30.900,250.300,62.390,21.400,8.873,443.700,117.800,40.450,18.020,baseline
892.400,316.500,102.900,36.800,885.000,257.500,90.350,30.960,252.300,62.400,21.480,8.917,443.000,118.500,40.560,18.180,baseline
893.100,318.000,103.300,37.090,884.900,258.800,90.690,31.140,253.000,62.510,21.510,8.936,447.500,119.500,40.990,18.340,baseline
895.400,317.800,103.500,36.820,883.300,256.500,89.510,30.990,254.300,62.740,21.560,8.918,444.400,118.300,40.460,17.990,baseline
895.600,315.400,102.800,36.570,884.700,257.200,89.980,30.800,253.600,62.210,21.430,8.893,441.400,117.200,40.100,17.930,baseline
888.600,315.100,103.000,36.580,885.700,256.400,89.580,30.770,251.200,62.290,21.370,8.880,440.800,117.100,40.190,17.930,baseline
893.100,315.500,102.700,36.450,881.000,257.400,89.760,30.850,251.200,62.310,21.330,8.902,440.700,117.800,40.230,17.940,baseline
882.000,315.200,102.700,36.660,884.100,256.500,90.120,30.770,251.100,62.430,21.350,8.871,442.100,117.600,40.130,17.990,baseline
892.400,315.900,102.900,36.580,884.000,257.500,89.940,31.020,251.200,62.280,21.450,8.907,441.800,117.600,40.320,18.100,baseline
894.800,316.000,103.500,36.800,885.400,257.800,90.030,30.990,250.300,62.330,21.480,8.971,442.900,118.000,40.490,18.120,baseline
893.900,316.400,103.500,36.840,883.700,258.200,90.230,31.030,252.800,62.430,21.520,8.923,444.300,119.000,40.930,18.230,baseline
897.400,318.500,103.400,36.840,884.400,258.900,90.330,31.000,250.800,62.400,21.490,8.929,446.300,119.200,40.840,18.230,baseline
900.300,319.700,103.800,37.080,887.200,258.700,90.510,31.140,252.300,62.560,21.570,8.958,448.800,119.200,41.120,18.320,baseline
900.700,321.200,104.500,37.310,892.600,259.400,90.710,31.220,253.100,62.770,21.610,8.976,451.400,120.100,41.200,18.520,baseline
900.000,320.100,104.000,37.000,885.500,257.800,90.370,30.970,254.200,63.020,21.700,8.990,447.700,119.400,40.840,18.210,baseline
897.900,317.600,103.100,36.710,883.500,257.500,90.290,30.960,252.700,62.490,21.450,8.918,443.900,118.000,40.500,18.050,baseline
892.300,316.300,103.000,36.600,885.600,257.300,89.860,30.780,253.300,62.470,21.440,8.884,441.000,117.200,40.240,17.950,baseline
893.400,315.400,102.700,36.600,881.200,257.000,89.940,30.830,251.700,62.180,21.310,8.876,439.700,117.700,40.050,18.010,baseline
893.200,316.100,102.600,36.510,880.900,257.900,89.700,30.810,250.500,62.230,21.400,8.861,439.900,117.200,40.280,17.950,baseline
887.700,314.900,102.600,36.660,878.300,256.800,89.960,30.820,251.400,62.000,21.290,8.874,440.800,117.500,40.290,17.960,baseline
887.900,315.000,102.600,36.550,881.100,256.900,90.120,30.820,251.800,62.190,21.380,8.871,441.000,117.600,40.470,18.070,baseline
892.300,317.500,102.800,36.840,886.800,257.600,89.870,30.910,249.600,62.190,21.370,8.862,444.000,118.300,40.720,18.140,baseline
897.100,317.500,103.100,36.790,888.600,257.700,89.730,30.920,253.600,62.350,21.400,8.916,445.700,118.600,40.880,18.160,baseline
897.000,317.400,103.700,36.900,882.200,257.600,90.450,30.980,250.300,62.570,21.440,8.918,446.000,119.200,41.110,18.220,baseline
900.300,318.700,103.800,37.050,885.100,258.600,90.100,31.070,250.600,62.670,21.580,8.925,449.100,119.700,41.220,18.430,baseline
903.500,318.000,104.200,37.160,888.200,259.400,90.760,31.090,254.200,62.770,21.600,8.963,452.700,120.900,41.340,18.520,baseline
907.300,320.400,104.100,37.290,887.400,258.600,90.290,30.950,254.100,63.100,21.610,8.950,452.400,120.200,41.060,18.300,baseline
899.000,317.200,103.100,36.770,881.800,257.400,90.070,30.930,251.800,62.570,21.410,8.910,446.000,118.600,40.630,18.120,baseline
890.700,315.600,103.400,36.840,882.800,255.900,89.650,30.860,253.000,62.240,21.500,8.893,442.800,118.000,40.320,18.050,baseline
892.700,315.500,103.100,36.730,881.200,256.800,90.010,30.860,251.700,62.230,21.290,8.882,441.700,117.800,40.490,18.030,baseline
898.700,315.700,103.200,36.890,882.300,257.400,89.790,30.870,250.200,62.300,21.320,8.815,440.600,118.000,40.480,18.060,baseline
892.500,316.300,102.600,36.690,875.900,256.500,90.080,30.880,252.200,62.240,21.370,8.900,441.100,117.900,40.460,18.060,baseline
897.100,316.300,103.200,36.880,880.100,257.400,90.280,31.000,250.500,62.180,21.410,8.846,441.800,117.600,40.590,18.160,baseline
891.600,316.400,103.400,36.990,881.000,257.100,89.940,31.050,251.100,62.190,21.420,8.930,445.000,118.900,40.740,18.280,baseline
899.600,316.700,103.800,37.090,883.300,257.900,90.650,30.990,250.200,62.320,21.470,8.942,445.200,119.300,40.970,18.290,baseline
899.300,318.700,104.200,37.330,883.300,258.400,90.770,31.110,250.000,62.350,21.510,8.944,447.400,119.500,41.300,18.420,baseline
902.900,320.100,104.100,37.370,884.000,258.600,90.690,31.120,253.700,62.620,21.530,8.964,448.100,120.500,41.360,18.470,baseline
907.600,318.200,104.300,37.010,883.700,257.500,90.290,30.880,252.600,62.440,21.560,8.933,445.300,118.800,40.690,18.180,baseline
892.700,315.800,103.600,36.880,882.200,256.100,89.800,30.870,249.500,62.070,21.420,8.882,442.300,118.000,40.670,18.170,baseline
898.400,317.000,102.900,36.820,878.500,256.300,89.610,30.900,252.000,61.790,21.410,8.839,440.800,117.900,40.540,18.140,baseline
896.400,316.500,103.400,36.940,877.000,257.100,89.810,30.960,249.500,62.100,21.400,8.873,440.100,117.700,40.610,18.080,baseline
892.100,316.000,102.900,36.830,874.600,256.900,89.510,30.840,249.900,61.980,21.270,8.868,442.100,117.900,40.540,18.100,baseline
895.600,317.300,103.600,36.920,881.800,256.400,89.860,30.780,250.000,62.110,21.400,8.845,442.300,118.200,40.600,18.120,baseline
891.500,317.000,103.600,37.060,875.800,255.700,90.120,30.880,248.800,62.080,21.340,8.849,443.000,118.000,40.850,18.220,baseline
896.000,317.700,104.000,37.010,882.800,256.700,89.850,30.940,249.400,62.160,21.360,8.888,445.200,119.000,40.790,18.260,baseline
897.300,318.500,103.900,37.110,883.700,257.600,89.920,30.890,251.200,62.260,21.400,8.868,447.600,119.500,41.060,18.420,baseline
899.400,318.600,103.500,37.310,884.200,258.100,89.930,30.990,252.100,62.380,21.420,8.904,449.300,120.200,41.170,18.380,baseline
900.700,319.900,104.500,37.440,884.400,258.700,90.130,30.980,252.000,62.530,21.470,8.906,450.500,120.500,41.400,18.510,baseline
899.100,319.400,103.900,37.150,880.200,256.200,89.740,30.730,252.000,62.340,21.460,8.890,446.600,119.300,40.850,18.150,baseline
891.600,317.800,103.200,36.960,876.100,256.000,89.550,30.790,248.600,62.080,21.400,8.832,441.500,118.100,40.500,18.070,baseline
890.300,317.100,103.100,36.890,876.100,257.000,89.490,30.710,249.700,62.030,21.300,8.846,441.400,117.500,40.340,18.040,baseline
893.200,315.500,102.800,36.990,878.700,255.800,89.610,30.740,249.500,61.740,21.270,8.814,439.300,117.400,40.350,18.050,baseline
894.400,314.400,103.100,36.930,877.100,255.900,89.330,30.790,249.300,61.870,21.250,8.813,440.400,117.400,40.470,18.030,baseline
896.500,316.200,103.100,36.970,878.500,256.200,89.440,30.840,250.700,61.940,21.230,8.842,440.000,117.600,40.380,18.140,baseline
891.800,315.600,103.700,37.110,874.900,255.700,89.670,30.840,249.800,61.770,21.320,8.825,441.000,118.000,40.490,18.190,baseline
894.000,315.700,104.100,37.230,881.200,256.400,89.890,30.810,250.000,61.870,21.280,8.830,443.700,118.900,40.790,18.260,baseline
897.900,317.300,103.600,37.260,883.000,257.100,90.100,30.830,248.900,62.110,21.390,8.885,446.400,119.000,40.990,18.360,baseline
900.900,316.900,104.400,37.360,879.000,257.600,89.970,30.990,249.800,62.280,21.400,8.909,447.300,119.500,41.300,18.440,baseline
900.800,319.900,104.700,37.400,881.300,258.400,90.050,30.990,251.400,62.430,21.490,8.924,449.600,120.200,41.450,18.510,baseline
899.800,319.400,104.900,37.570,888.100,258.700,90.300,31.040,251.800,62.470,21.470,8.932,450.900,121.000,41.560,18.570,baseline
906.700,321.900,105.200,37.810,887.200,257.200,90.550,30.910,253.100,62.730,21.540,8.986,453.900,121.300,41.610,18.600,baseline
905.400,318.200,104.000,37.340,878.100,256.200,89.480,30.850,251.500,62.560,21.460,8.908,446.100,119.400,40.930,18.200,baseline
901.100,317.400,103.900,37.170,879.100,256.500,89.250,30.780,250.500,62.130,21.350,8.839,442.600,118.400,40.650,18.170,baseline
890.800,315.400,103.500,36.890,875.200,255.800,89.190,30.650,247.900,61.960,21.230,8.815,442.300,117.900,40.510,18.080,baseline
896.100,315.500,103.000,37.000,873.100,255.500,89.160,30.650,249.900,61.920,21.190,8.800,440.500,117.600,40.490,18.000,baseline
889.100,315.000,103.000,36.940,874.200,255.600,89.300,30.690,248.300,61.690,21.290,8.835,440.000,117.900,40.510,18.060,baseline
895.400,315.800,103.400,36.950,874.500,255.100,89.140,30.540,248.900,61.640,21.240,8.828,441.000,117.900,40.470,18.120,baseline
896.900,315.400,103.300,36.880,878.400,255.000,89.400,30.680,248.200,61.680,21.270,8.855,442.600,118.100,40.750,18.170,baseline
894.800,316.000,103.400,37.160,879.400,254.700,89.040,30.730,250.200,61.870,21.300,8.834,444.100,118.600,40.740,18.290,baseline
897.700,318.200,103.700,37.150,876.700,255.500,89.140,30.780,248.000,61.890,21.270,8.866,446.700,119.100,40.920,18.290,baseline
896.000,317.200,103.700,37.160,883.800,255.700,89.580,30.690,250.200,62.180,21.230,8.879,447.900,119.400,41.050,18.440,baseline
902.300,318.000,104.300,37.370,878.500,256.000,89.200,30.790,249.900,62.220,21.370,8.860,449.900,120.100,41.260,18.480,baseline
906.000,318.400,104.500,37.510,880.700,256.400,89.420,30.790,252.900,62.080,21.350,8.920,451.600,120.500,41.610,18.620,baseline
908.600,320.900,105.200,37.600,881.800,257.500,89.900,30.860,250.600,62.570,21.470,8.951,456.500,121.500,41.820,18.700,baseline
903.400,320.300,105.400,37.760,880.900,257.200,89.640,30.750,253.400,62.470,21.500,8.973,455.500,121.600,41.850,18.630,baseline
900.700,319.400,104.000,37.270,876.200,255.400,89.430,30.680,251.700,62.210,21.410,8.881,449.500,119.800,40.990,18.250,baseline
897.400,317.200,103.500,37.120,878.700,254.700,89.180,30.560,250.400,62.040,21.270,8.837,445.100,119.000,40.750,18.180,baseline
897.900,316.100,103.400,37.140,875.000,254.300,88.990,30.540,251.000,62.030,21.190,8.804,444.000,118.900,40.640,18.160,baseline
896.400,316.500,103.500,37.070,867.200,254.800,89.020,30.500,248.800,61.760,21.250,8.804,443.500,118.400,40.640,18.100,baseline
895.000,314.300,103.200,36.890,875.200,254.200,88.990,30.440,250.500,61.870,21.250,8.824,442.100,118.200,40.560,18.120,baseline
892.400,314.700,103.200,36.940,875.800,253.700,89.000,30.500,246.300,61.800,21.240,8.792,443.900,118.000,40.610,18.180,baseline
889.500,317.000,103.600,37.040,875.300,254.200,88.650,30.520,249.900,61.790,21.180,8.800,444.900,118.700,40.730,18.190,baseline
897.600,316.900,103.400,37.190,874.300,255.100,89.220,30.530,250.800,61.850,21.190,8.813,446.800,119.000,40.940,18.280,baseline
895.000,317.300,103.700,37.120,870.400,255.700,89.250,30.600,249.800,61.850,21.270,8.828,448.300,119.700,41.150,18.320,baseline
895.600,317.600,103.800,37.390,878.100,255.700,89.160,30.660,249.500,62.170,21.310,8.853,449.800,120.000,41.180,18.440,baseline
903.200,319.000,104.500,37.460,874.500,255.400,89.590,30.690,252.700,62.070,21.310,8.893,452.000,120.300,41.340,18.490,baseline
898.500,317.500,104.500,37.560,875.500,256.900,89.510,30.820,251.500,62.330,21.450,8.920,453.500,121.400,41.720,18.560,baseline
906.600,320.300,105.100,37.590,875.700,256.800,89.350,30.600,252.100,62.480,21.500,8.920,455.000,121.400,41.570,18.480,baseline
900.000,316.800,103.800,37.170,873.900,253.700,89.230,30.490,249.100,62.320,21.310,8.840,448.200,119.000,40.860,18.310,baseline
893.500,314.800,103.700,36.980,869.200,254.200,88.690,30.440,248.700,61.770,21.230,8.785,445.500,118.800,40.630,18.130,baseline
890.900,316.500,102.900,36.880,870.000,253.500,88.870,30.420,248.300,61.690,21.230,8.810,444.100,118.000,40.460,18.130,baseline
888.200,315.000,103.200,36.960,870.700,253.900,88.430,30.400,247.900,61.560,21.160,8.779,444.500,118.300,40.530,18.100,baseline
891.600,314.800,102.900,36.820,871.800,253.300,88.560,30.360,248.100,61.660,21.180,8.758,443.100,117.700,40.370,18.120,baseline
887.700,316.300,102.500,36.880,869.500,252.600,88.360,30.340,248.200,61.720,21.050,8.804,443.800,118.200,40.650,18.110,baseline
884.400,315.700,103.400,36.970,870.900,254.600,88.530,30.510,251.100,61.610,21.180,8.820,445.900,118.700,40.780,18.190,baseline
891.000,315.500,103.300,36.970,868.800,254.400,88.520,30.440,248.200,61.940,21.260,8.828,446.700,118.900,41.010,18.200,baseline
896.500,317.000,103.500,37.080,874.000,254.300,88.860,30.510,249.400,62.010,21.300,8.811,448.300,119.900,41.100,18.280,baseline
896.700,316.900,103.600,37.200,871.600,254.800,88.770,30.520,249.900,62.060,21.310,8.880,449.500,120.600,41.290,18.390,baseline
898.800,318.100,104.100,37.340,881.300,254.600,89.080,30.610,250.800,62.120,21.410,8.872,451.900,120.700,41.440,18.550,baseline
900.000,319.500,104.300,37.500,874.500,256.200,89.600,30.640,251.200,62.210,21.450,8.897,454.200,121.400,41.710,18.600,baseline
904.800,319.100,104.800,37.690,876.700,256.100,89.380,30.770,251.300,62.720,21.500,8.935,456.100,122.600,42.070,18.770,baseline
912.200,320.200,104.900,37.460,873.900,254.600,89.200,30.470,252.900,62.600,21.510,8.932,456.000,121.600,41.650,18.490,baseline
897.000,315.800,103.500,36.990,872.100,253.900,88.670,30.430,250.900,62.070,21.310,8.855,448.600,119.000,41.010,18.300,baseline
892.200,315.900,103.200,36.840,872.200,253.000,89.040,30.420,249.500,61.810,21.300,8.842,446.200,118.400,40.780,18.170,baseline
886.100,313.100,102.700,36.770,870.100,253.100,88.520,30.340,248.200,61.840,21.270,8.777,445.300,118.800,40.580,18.150,baseline
885.300,314.300,102.700,36.820,867.400,252.900,88.150,30.290,248.000,61.700,21.160,8.786,444.500,118.300,40.480,18.070,baseline
885.600,313.200,103.100,36.700,867.200,253.300,88.390,30.270,248.200,61.680,21.200,8.798,443.000,118.800,40.580,18.090,baseline
888.600,313.800,102.600,36.770,866.600,253.300,88.460,30.330,248.200,61.650,21.140,8.822,444.900,118.500,40.670,18.170,baseline
885.000,315.100,102.900,36.770,867.000,252.900,88.420,30.380,249.800,61.890,21.230,8.846,446.300,119.300,40.810,18.320,baseline
891.200,314.700,103.600,37.000,869.500,253.100,88.850,30.390,249.000,61.950,21.280,8.851,447.100,119.200,41.050,18.350,baseline
891.900,315.400,103.300,37.060,871.700,253.900,88.810,30.450,248.100,62.140,21.380,8.858,449.400,120.000,41.210,18.420,baseline
890.100,315.400,103.800,37.170,871.500,253.500,89.020,30.510,252.000,62.040,21.360,8.890,450.100,120.500,41.460,18.500,baseline
896.400,317.100,104.000,37.250,870.700,254.400,89.190,30.570,249.200,62.320,21.400,8.914,454.200,120.900,41.690,18.620,baseline
901.000,318.000,104.800,37.370,875.000,254.800,89.430,30.560,250.200,62.410,21.510,8.945,455.000,121.600,41.690,18.670,baseline
905.700,319.700,104.400,37.620,879.200,256.700,89.030,30.670,252.400,62.540,21.560,8.963,457.100,122.300,42.110,18.770,baseline
901.400,317.800,104.300,37.310,873.900,254.500,88.710,30.320,254.100,62.520,21.540,8.965,453.800,121.000,41.320,18.450,baseline
892.100,315.800,103.300,36.870,867.900,253.100,88.440,30.420,250.800,62.010,21.350,8.846,447.000,119.500,41.080,18.250,baseline
884.800,313.600,103.100,36.750,871.200,252.800,88.280,30.300,248.700,61.910,21.270,8.866,446.100,118.500,40.770,18.170,baseline
888.300,315.200,102.500,36.630,870.000,253.400,88.230,30.360,248.400,61.820,21.270,8.856,445.800,118.400,40.770,18.130,baseline
888.800,314.100,102.600,36.630,863.600,252.600,88.060,30.290,249.200,61.650,21.280,8.836,444.700,118.500,40.590,18.200,baseline
886.400,314.700,102.600,36.690,866.000,251.900,88.080,30.260,250.100,61.840,21.240,8.825,443.700,118.700,40.640,18.100,baseline
882.600,313.400,103.000,36.590,864.200,252.500,88.510,30.280,248.600,61.570,21.180,8.811,444.100,118.600,40.560,18.190,baseline
886.600,313.700,102.500,36.660,866.600,252.200,88.200,30.380,249.300,61.730,21.300,8.840,446.000,119.000,40.830,18.270,baseline
886.200,314.400,102.800,36.820,866.600,253.500,88.510,30.430,247.000,61.950,21.270,8.876,446.200,119.400,40.940,18.330,baseline
894.000,315.300,103.100,36.990,865.400,253.400,88.890,30.510,248.300,61.980,21.340,8.856,448.900,119.900,41.040,18.360,baseline
890.400,316.800,103.600,37.010,870.800,253.500,88.890,30.480,251.100,62.040,21.410,8.886,449.200,120.700,41.290,18.520,baseline
894.300,317.400,103.700,37.160,873.300,253.900,88.930,30.530,250.400,62.010,21.390,8.915,451.600,120.800,41.610,18.500,baseline
897.200,318.500,104.100,37.220,869.000,254.700,88.980,30.560,248.800,62.500,21.530,8.974,454.600,121.700,41.670,18.640,baseline
897.000,319.100,104.300,37.390,873.500,254.800,89.070,30.490,249.800,62.390,21.510,8.953,455.000,122.100,41.540,18.500,baseline
894.000,316.100,103.100,36.800,872.600,252.700,87.940,30.320,251.500,62.120,21.350,8.877,447.800,119.700,40.880,18.260,baseline
884.400,314.200,103.100,36.690,866.700,252.500,88.170,30.310,246.900,61.840,21.330,8.846,444.200,118.900,40.710,18.160,baseline
891.100,313.900,102.500,36.450,862.200,251.800,88.160,30.350,250.100,61.610,21.190,8.817,444.000,118.400,40.460,18.100,baseline
886.000,313.300,102.500,36.600,865.000,251.400,87.920,30.300,248.400,61.460,21.260,8.815,444.200,118.000,40.550,18.080,baseline
884.600,313.400,102.400,36.460,860.300,250.900,87.640,30.280,247.800,61.610,21.200,8.797,442.600,118.000,40.610,18.060,baseline
879.500,313.500,102.300,36.590,864.200,252.000,88.260,30.260,249.700,61.640,21.200,8.816,443.600,117.800,40.610,18.130,baseline
884.100,312.200,102.500,36.640,862.500,252.100,88.140,30.360,246.400,61.730,21.190,8.847,445.000,118.900,40.710,18.170,baseline
887.000,314.400,102.900,36.700,863.700,252.800,87.900,30.320,250.000,61.730,21.290,8.857,445.000,119.000,40.770,18.220,baseline
881.300,313.800,102.900,36.690,865.600,252.800,87.990,30.410,247.700,61.850,21.270,8.886,447.300,119.300,40.980,18.340,baseline
886.600,313.900,103.000,36.720,865.900,251.900,88.390,30.380,251.400,62.030,21.360,8.893,448.700,119.900,41.190,18.370,baseline
882.900,314.400,102.900,36.870,867.800,251.800,88.400,30.510,249.400,61.930,21.380,8.859,448.400,120.400,41.450,18.450,baseline
894.200,316.900,103.600,37.040,870.000,252.400,88.700,30.520,249.600,62.130,21.420,8.937,450.800,120.900,41.480,18.520,baseline
900.500,317.800,103.800,37.120,870.400,253.300,88.550,30.380,249.500,62.300,21.460,8.959,452.200,121.400,41.590,18.400,baseline
886.700,315.300,102.400,36.630,860.600,251.400,88.440,30.240,248.300,62.260,21.330,8.861,445.700,118.600,40.820,18.180,baseline
883.100,312.400,102.200,36.590,862.300,250.400,87.920,30.220,246.400,61.540,21.290,8.866,442.900,118.300,40.660,18.140,baseline
880.900,313.100,102.000,36.500,863.800,251.500,88.020,30.240,248.000,61.680,21.310,8.830,442.600,118.100,40.540,18.130,baseline
884.600,310.900,102.400,36.470,859.500,251.000,87.850,30.270,247.100,61.550,21.210,8.815,441.900,117.800,40.730,18.080,baseline
878.400,312.000,102.300,36.410,860.600,250.900,88.070,30.180,246.000,61.660,21.200,8.835,441.700,118.200,40.350,18.080,baseline
881.100,311.800,102.000,36.570,863.100,251.000,87.780,30.240,247.600,61.690,21.300,8.841,441.600,118.000,40.690,18.080,baseline
880.300,312.900,102.300,36.490,861.200,251.100,87.880,30.260,248.200,61.620,21.250,8.848,442.500,118.400,40.640,18.180,baseline
878.500,314.600,102.500,36.630,860.000,251.000,88.100,30.260,248.800,61.780,21.320,8.871,443.700,118.100,40.890,18.250,baseline
884.400,313.500,102.600,36.620,862.200,251.600,88.330,30.330,247.600,61.910,21.350,8.883,446.000,119.100,40.990,18.340,baseline
885.500,315.100,102.800,36.730,862.000,253.000,88.350,30.340,247.000,61.990,21.420,8.865,447.000,119.300,41.080,18.390,baseline
884.000,314.300,103.200,36.870,864.900,252.200,88.360,30.340,249.000,62.020,21.490,8.933,448.500,119.900,41.190,18.440,baseline
890.900,316.300,103.400,36.960,864.800,253.500,88.470,30.310,249.100,62.130,21.370,8.925,450.300,120.700,41.570,18.440,baseline
892.400,317.000,103.200,37.020,865.600,253.800,88.310,30.380,249.000,62.380,21.500,8.978,452.700,121.200,41.770,18.560,baseline
887.000,314.800,102.800,36.690,862.200,250.000,87.500,30.130,249.400,62.150,21.440,8.894,445.600,118.800,40.870,18.200,baseline
882.800,311.800,102.200,36.450,861.600,250.700,87.980,30.090,248.500,61.870,21.310,8.833,442.600,118.700,40.670,18.130,baseline
879.000,310.800,102.000,36.440,857.800,250.000,87.510,30.110,247.100,61.670,21.300,8.823,441.300,118.100,40.660,18.130,baseline
880.100,312.200,102.000,36.310,861.000,250.900,87.810,30.140,247.900,61.670,21.270,8.846,441.700,118.000,40.640,18.090,baseline
875.600,312.100,101.900,36.410,855.000,249.900,87.430,30.130,247.700,61.690,21.260,8.805,440.200,117.700,40.500,18.040,baseline
874.700,312.100,102.200,36.410,855.900,249.600,87.570,30.130,246.400,61.620,21.240,8.851,440.700,118.100,40.450,18.080,baseline
878.000,311.800,102.000,36.310,853.800,249.700,87.670,30.160,247.300,61.420,21.270,8.843,440.700,117.900,40.570,18.080,baseline
881.200,312.200,101.900,36.560,860.000,249.800,87.930,30.180,246.500,61.780,21.260,8.841,441.900,118.500,40.780,18.140,baseline
882.900,312.100,102.400,36.570,861.300,250.600,87.750,30.120,249.500,61.890,21.340,8.855,444.400,118.700,40.880,18.280,baseline
876.900,312.500,102.500,36.560,861.800,250.400,87.750,30.240,249.100,61.690,21.360,8.893,445.800,119.000,40.900,18.300,baseline
886.600,314.100,102.600,36.720,860.300,250.300,87.710,30.200,248.700,61.710,21.410,8.898,447.700,119.600,41.040,18.400,baseline
890.200,315.700,103.100,36.750,862.900,251.600,88.120,30.200,250.000,61.910,21.470,8.920,448.000,120.100,41.360,18.540,baseline
888.700,314.700,103.200,36.760,860.900,251.500,88.260,30.290,250.000,61.910,21.420,8.923,449.900,120.600,41.490,18.500,baseline
890.900,316.200,103.300,36.710,861.200,250.900,87.520,30.020,249.700,62.200,21.430,8.905,447.700,119.900,41.030,18.240,baseline
878.100,311.700,102.100,36.370,855.600,250.000,87.570,30.020,246.400,61.840,21.300,8.844,441.400,118.000,40.730,18.080,baseline
879.200,311.100,101.900,36.130,857.700,248.800,87.150,29.860,248.500,61.600,21.240,8.818,440.400,117.400,40.510,18.040,baseline
873.300,310.200,101.500,36.270,854.600,249.100,87.340,30.040,247.300,61.560,21.230,8.818,439.600,117.400,40.390,18.070,baseline
873.900,310.100,101.400,36.220,854.000,248.900,87.040,29.900,247.500,61.390,21.190,8.761,439.000,117.300,40.180,17.930,baseline
874.400,309.100,101.200,36.090,856.000,249.100,87.150,29.900,245.800,61.220,21.130,8.763,438.600,116.900,40.190,17.900,baseline
877.700,311.500,101.000,36.200,856.400,248.000,87.020,29.890,246.400,61.150,21.010,8.770,440.800,117.200,40.270,18.010,baseline
876.300,310.600,101.300,36.230,853.700,249.200,86.920,29.870,245.200,61.250,21.090,8.790,441.600,117.000,40.450,18.020,baseline
878.400,311.200,101.400,36.300,852.400,248.600,87.270,29.890,248.500,61.520,21.190,8.780,441.700,118.000,40.450,18.100,baseline
880.700,312.600,101.900,36.400,854.900,248.400,87.160,29.960,247.200,61.340,21.180,8.816,443.100,118.100,40.820,18.190,baseline
876.800,312.200,102.100,36.350,854.100,248.900,87.310,29.900,249.800,61.530,21.220,8.802,444.300,118.700,40.900,18.280,baseline
879.900,312.700,101.800,36.490,857.700,249.600,87.400,29.960,248.000,61.590,21.220,8.819,446.600,119.300,40.820,18.240,baseline
882.900,313.600,102.100,36.560,861.000,250.500,87.570,29.920,247.200,61.750,21.300,8.850,447.800,120.000,41.120,18.340,baseline
883.200,312.600,102.600,36.620,860.000,250.800,87.780,30.000,246.900,61.610,21.270,8.840,450.500,120.000,41.370,18.410,baseline
885.200,312.900,101.900,36.220,855.600,248.600,86.980,29.650,249.300,61.810,21.240,8.814,446.600,118.300,40.720,18.140,baseline
876.300,311.600,101.400,36.010,853.400,248.700,86.860,29.770,245.400,61.230,21.200,8.759,440.000,117.500,40.360,18.010,baseline
877.200,309.100,101.300,35.940,852.700,248.200,86.900,29.620,247.300,61.090,21.100,8.733,438.600,117.100,40.310,17.940,baseline
870.900,309.700,101.200,35.950,853.900,248.000,86.860,29.680,246.200,61.260,21.070,8.723,438.100,117.000,40.030,17.920,baseline
870.900,308.600,100.800,35.980,852.200,248.500,86.650,29.620,246.400,61.230,21.080,8.702,436.800,117.000,40.070,17.920,baseline
872.700,309.100,101.100,36.140,850.800,247.900,86.510,29.660,244.500,60.980,21.000,8.740,438.200,116.900,40.050,17.940,baseline
876.200,308.600,101.200,36.110,849.800,248.100,86.310,29.700,246.300,61.100,21.050,8.754,439.300,117.100,40.180,17.940,baseline
874.400,310.900,101.400,36.160,853.600,248.700,86.890,29.730,245.300,61.220,21.090,8.764,439.500,117.500,40.280,18.030,baseline
872.600,309.600,101.400,36.070,850.200,249.000,86.700,29.690,245.700,61.040,21.150,8.784,440.700,117.800,40.400,18.030,baseline
878.500,308.900,101.800,36.200,852.100,248.700,86.820,29.690,245.800,61.230,21.120,8.772,442.300,117.400,40.520,18.150,baseline
879.900,310.100,101.600,36.300,855.800,248.100,86.770,29.750,247.300,61.480,21.110,8.799,443.300,118.200,40.830,18.210,baseline
877.100,311.400,102.000,36.390,857.000,249.300,86.950,29.750,248.100,61.390,21.200,8.824,445.600,118.900,40.830,18.240,baseline
880.100,311.600,101.900,36.270,856.600,247.400,86.380,29.490,248.400,61.550,21.190,8.755,445.300,118.700,40.570,18.020,baseline
876.500,307.800,100.400,35.840,850.900,247.200,86.080,29.510,246.200,61.250,21.010,8.682,439.000,116.800,40.080,17.860,baseline
871.100,309.200,100.300,35.870,847.700,246.600,86.040,29.440,244.700,61.000,20.880,8.690,437.700,116.300,40.020,17.830,baseline
866.600,306.600,100.600,35.820,848.900,246.900,86.000,29.510,246.400,61.010,20.910,8.694,436.800,116.600,39.910,17.790,baseline
866.300,307.300,100.500,35.770,845.800,247.200,86.050,29.500,245.500,60.690,20.910,8.701,438.300,116.000,39.770,17.750,baseline
866.000,306.100,100.300,35.760,850.600,246.200,86.410,29.450,246.100,60.800,20.860,8.707,436.700,116.300,39.840,17.770,baseline
869.300,307.700,100.200,35.810,845.000,246.900,86.020,29.400,243.600,60.800,20.900,8.650,437.600,116.100,39.890,17.780,baseline
864.800,307.100,100.400,35.870,845.600,246.400,86.290,29.500,245.700,60.750,20.860,8.669,438.700,116.400,39.960,17.800,baseline
867.800,307.300,100.300,35.960,848.200,246.700,86.120,29.520,246.000,61.040,20.950,8.694,440.900,116.900,40.170,17.930,baseline
876.100,309.800,100.700,35.950,846.100,246.600,86.210,29.550,247.600,61.140,20.970,8.706,441.900,117.300,40.300,17.950,baseline
874.500,308.900,100.800,35.970,851.300,247.700,86.370,29.560,245.400,61.090,21.000,8.709,443.800,118.200,40.480,18.050,baseline
875.400,310.400,100.800,36.040,852.500,246.700,86.420,29.650,247.500,61.050,21.050,8.751,444.400,117.800,40.470,18.130,baseline
871.300,310.600,101.500,36.240,855.900,247.500,86.550,29.550,246.700,61.440,21.090,8.769,447.000,118.900,40.900,18.120,baseline
878.000,310.400,100.700,35.830,845.000,246.400,85.850,29.400,248.400,61.400,21.120,8.748,442.800,117.400,40.160,17.830,baseline
864.400,307.600,100.200,35.630,847.000,246.000,86.020,29.410,247.100,60.940,20.900,8.677,438.200,115.800,39.860,17.710,baseline
867.000,306.400,99.430,35.460,843.900,244.500,85.480,29.320,247.500,60.760,20.870,8.682,435.500,115.900,39.630,17.650,baseline
862.700,305.000,99.630,35.590,843.000,245.900,85.590,29.340,244.900,60.940,20.850,8.650,434.700,115.200,39.610,17.660,baseline
862.800,304.700,99.890,35.510,842.100,245.300,85.330,29.290,244.800,60.610,20.790,8.622,433.100,115.100,39.450,17.580,baseline
861.400,304.200,99.040,35.420,842.400,244.900,85.730,29.340,242.400,60.710,20.820,8.655,433.100,114.700,39.500,17.610,baseline
862.900,304.500,99.410,35.480,844.700,245.700,85.550,29.370,242.400,60.490,20.820,8.684,434.100,115.100,39.550,17.640,baseline
861.200,305.800,99.870,35.540,843.900,245.200,85.700,29.370,243.100,60.540,20.820,8.661,435.600,115.600,39.770,17.700,baseline
866.600,306.300,99.760,35.480,844.300,245.500,85.750,29.350,244.400,60.850,20.950,8.684,436.600,115.700,39.760,17.770,baseline
861.500,305.700,99.350,35.470,848.900,244.900,85.520,29.320,244.800,61.020,20.860,8.704,436.900,116.500,39.680,17.790,baseline
865.000,306.300,99.950,35.520,841.500,245.200,85.730,29.370,245.900,60.780,20.930,8.693,439.700,116.800,40.130,17.840,baseline
864.100,307.100,100.100,35.690,845.100,245.200,86.040,29.430,245.000,61.180,20.950,8.757,441.200,117.200,40.360,17.910,baseline
869.500,307.400,100.400,35.810,844.400,246.600,86.140,29.510,245.600,61.220,21.070,8.734,442.200,117.600,40.470,18.010,baseline
867.600,309.000,100.500,35.840,853.100,246.500,86.340,29.500,250.100,61.470,21.120,8.773,444.800,118.400,40.620,18.060,baseline
867.200,307.800,100.100,35.610,844.900,245.000,85.340,29.220,248.300,61.440,21.070,8.734,439.700,117.400,39.810,17.730,baseline
862.500,303.800,99.360,35.270,846.600,244.400,85.600,29.250,245.300,60.890,20.930,8.674,436.700,115.600,39.490,17.530,baseline
856.600,303.800,98.770,35.260,840.100,244.900,85.370,29.270,243.200,60.660,20.850,8.641,433.900,115.000,39.350,17.510,baseline
857.700,301.400,98.780,35.010,844.100,243.300,85.280,29.220,243.300,60.570,20.780,8.619,431.100,114.800,39.300,17.470,baseline
858.700,303.200,98.490,35.220,837.700,243.800,85.120,29.200,242.600,60.530,20.820,8.665,431.400,114.100,39.120,17.470,baseline
856.800,302.100,98.600,35.010,840.400,243.800,85.270,29.170,243.700,60.270,20.740,8.627,430.300,114.300,39.180,17.480,baseline
858.600,302.100,98.730,35.140,842.500,243.100,85.080,29.220,244.300,60.500,20.740,8.674,430.800,114.400,39.270,17.480,baseline
854.400,304.400,99.090,35.240,837.800,244.000,85.540,29.200,244.100,60.340,20.760,8.633,432.200,115.300,39.310,17.570,baseline
856.000,303.500,99.440,35.230,839.000,245.100,85.340,29.240,243.500,60.580,20.800,8.675,434.800,115.400,39.470,17.600,baseline
859.800,304.300,99.010,35.270,839.800,245.200,85.490,29.290,245.500,60.760,20.860,8.671,434.200,115.300,39.490,17.590,baseline
853.800,303.100,99.100,35.320,841.100,245.200,85.350,29.340,245.100,60.710,20.910,8.700,435.600,115.700,39.680,17.670,baseline
858.000,305.400,99.310,35.450,844.600,245.200,85.570,29.290,245.100,60.860,20.910,8.694,437.000,116.100,39.970,17.760,baseline
860.900,305.000,99.560,35.580,845.300,245.300,85.680,29.290,244.400,60.890,21.060,8.748,440.600,116.700,39.970,17.870,baseline
864.100,303.500,99.360,35.190,839.700,243.400,85.150,29.100,247.500,60.920,20.870,8.697,435.300,115.400,39.480,17.530,baseline
857.700,301.500,98.360,35.050,835.900,243.500,84.960,29.130,243.900,60.540,20.880,8.642,432.600,114.600,39.250,17.430,baseline
850.100,302.400,98.280,34.950,839.700,242.800,84.790,29.160,243.400,60.460,20.830,8.630,431.100,114.200,39.060,17.390,baseline
852.600,302.300,98.490,35.010,840.400,242.800,84.840,29.090,242.400,60.550,20.780,8.661,432.200,113.800,39.000,17.440,baseline
847.400,300.300,98.070,34.970,836.400,243.200,85.120,29.150,242.900,60.480,20.730,8.655,429.900,114.000,38.960,17.430,baseline
854.700,301.600,98.450,35.080,837.600,243.400,85.240,29.140,244.700,60.370,20.840,8.641,430.100,114.300,39.040,17.390,baseline
850.800,302.000,98.840,35.030,836.500,243.700,85.390,29.130,242.100,60.550,20.790,8.651,430.300,114.300,39.200,17.430,baseline
853.000,302.100,98.660,35.190,837.900,243.300,85.270,29.230,244.800,60.580,20.860,8.663,431.500,115.000,39.230,17.550,baseline
855.200,302.200,98.860,35.160,836.400,243.700,85.270,29.290,243.700,60.620,20.930,8.650,433.900,115.100,39.560,17.590,baseline
855.500,303.400,98.890,35.320,843.300,244.900,85.330,29.340,243.800,60.920,20.990,8.750,435.200,115.300,39.590,17.600,baseline
856.800,304.500,99.470,35.300,839.100,245.300,86.030,29.350,245.100,61.080,21.010,8.726,436.000,116.300,39.790,17.640,baseline
857.400,305.800,99.090,35.430,838.600,245.700,85.330,29.350,246.900,61.080,21.080,8.748,437.600,116.300,39.900,17.750,baseline
852.100,302.300,98.710,35.050,839.000,243.900,85.150,29.120,245.200,60.920,21.020,8.728,433.000,114.600,39.130,17.420,baseline
848.300,302.500,98.320,34.940,836.900,243.200,85.020,29.200,244.000,60.820,20.910,8.662,428.700,113.700,38.920,17.320,baseline
843.800,300.300,97.990,34.910,833.700,243.300,84.660,29.090,243.100,60.490,20.880,8.631,428.100,113.300,38.640,17.250,baseline
849.800,297.100,97.850,34.710,835.000,242.900,85.390,29.470,242.500,60.220,20.830,8.642,426.400,113.600,38.950,17.550,baseline
844.100,303.300,98.740,35.230,837.800,242.900,85.420,29.400,241.100,60.990,21.290,8.859,424.400,113.000,38.940,17.440,baseline
840.500,301.700,98.610,35.050,832.900,244.100,85.370,29.390,241.300,60.450,20.990,8.724,425.300,112.800,38.870,17.340,baseline
848.200,301.000,98.240,35.140,835.700,243.200,85.090,29.410,243.400,60.520,20.970,8.706,426.000,113.500,38.910,17.390,baseline
845.200,301.500,98.780,35.210,837.900,244.200,85.560,29.400,242.100,60.610,21.070,8.757,429.300,113.800,39.110,17.530,baseline
845.700,301.800,98.820,35.160,836.000,244.500,85.360,29.310,242.600,60.610,21.030,8.774,430.100,113.900,39.210,17.530,baseline
846.700,302.500,98.610,35.090,839.800,243.900,85.580,29.360,243.800,60.900,21.060,8.764,431.400,115.000,39.240,17.570,baseline
852.400,302.500,99.070,35.220,840.200,244.700,85.680,29.380,244.100,60.990,21.130,8.785,433.000,114.900,39.450,17.630,baseline
854.300,303.400,98.880,35.370,841.000,243.600,85.670,29.460,245.800,61.110,21.110,8.812,434.500,115.600,39.720,17.690,baseline
856.200,303.400,99.310,35.450,838.800,245.600,85.850,29.480,244.900,61.230,21.210,8.835,436.900,115.900,39.760,17.900,baseline
853.900,305.400,99.400,35.440,844.900,246.300,85.800,29.480,244.700,61.230,21.240,8.836,440.000,116.800,40.060,17.930,baseline
864.800,304.600,99.090,35.350,843.600,244.700,85.130,29.190,249.300,61.450,21.190,8.807,438.500,115.700,39.410,17.550,baseline
846.600,301.400,98.260,34.990,836.800,244.000,85.260,29.160,244.000,61.020,21.120,8.710,432.400,114.400,39.080,17.400,baseline
844.400,299.600,97.940,34.800,833.300,243.400,84.880,29.160,243.400,60.720,20.940,8.718,428.300,113.700,38.860,17.400,baseline
841.200,299.200,97.870,34.850,835.000,243.800,85.060,29.160,243.600,60.590,20.940,8.702,426.300,112.700,38.570,17.250,baseline
847.700,299.800,97.430,34.790,833.300,244.000,85.080,29.160,243.300,60.550,20.940,8.673,426.800,112.600,38.750,17.220,baseline
840.900,299.100,97.220,34.650,831.000,242.600,85.160,29.140,244.300,60.450,20.860,8.661,425.000,112.400,38.480,17.130,baseline
844.500,298.500,97.600,34.820,834.700,243.300,84.970,29.220,242.700,60.350,20.860,8.647,426.900,112.800,38.510,17.150,baseline
844.800,299.000,97.480,34.720,835.600,242.000,84.870,29.240,241.500,60.550,20.920,8.658,426.400,113.000,38.600,17.360,baseline
842.400,300.300,97.570,34.760,834.800,244.400,85.230,29.260,242.100,60.340,20.830,8.672,430.300,113.200,38.980,17.410,baseline
845.800,301.100,97.790,34.860,837.000,242.900,85.260,29.230,242.700,60.780,20.930,8.700,429.800,114.000,38.900,17.430,baseline
844.900,299.900,98.220,34.970,833.100,243.800,85.480,29.270,243.600,60.810,20.950,8.732,431.400,114.300,39.130,17.490,baseline
846.600,300.900,98.290,34.970,839.800,244.000,85.420,29.300,245.900,60.940,20.990,8.710,434.600,115.300,39.370,17.620,baseline
850.600,301.600,98.680,35.090,844.100,245.300,85.620,29.360,244.700,60.880,21.080,8.774,435.400,115.500,39.470,17.670,baseline
850.100,303.600,98.820,35.280,841.600,245.600,85.530,29.380,244.700,61.250,21.100,8.800,437.100,116.100,39.640,17.720,baseline
853.800,303.000,98.990,35.200,847.100,245.200,85.790,29.440,246.100,61.330,21.170,8.805,438.900,116.800,39.900,17.810,baseline
858.600,302.900,99.110,35.080,844.000,245.200,85.170,29.150,245.800,61.430,21.200,8.778,437.500,115.700,39.410,17.520,baseline
848.000,301.300,97.920,34.860,838.900,244.600,85.190,29.230,244.800,60.780,20.990,8.723,431.700,113.800,39.050,17.430,baseline
845.400,300.700,98.100,34.790,838.600,243.500,85.220,29.180,244.400,60.660,20.990,8.671,427.800,113.700,38.860,17.330,baseline
839.500,299.900,97.880,34.700,842.000,243.800,85.370,29.190,242.800,60.690,20.930,8.663,426.300,113.500,38.820,17.260,baseline
843.200,299.100,97.780,34.710,837.100,243.900,84.930,29.190,241.900,60.660,20.920,8.665,426.100,113.000,38.770,17.290,baseline
844.600,299.100,97.400,34.690,836.500,243.700,85.180,29.220,242.300,60.410,20.840,8.677,426.900,112.900,38.650,17.210,baseline
845.100,299.000,97.930,34.650,837.900,243.800,85.330,29.250,242.800,60.490,20.770,8.696,426.300,113.100,38.720,17.380,baseline
844.200,300.200,97.800,34.760,839.800,243.700,85.440,29.240,242.800,60.710,20.850,8.692,427.100,113.500,38.860,17.400,baseline
845.500,300.900,98.090,34.900,839.600,244.700,85.140,29.270,242.800,60.790,20.900,8.707,428.500,113.400,39.100,17.440,baseline
847.800,301.100,97.980,34.880,840.200,244.300,85.340,29.390,245.300,60.790,20.970,8.693,429.800,114.300,39.010,17.500,baseline
851.500,301.100,97.970,34.920,843.100,244.500,85.650,29.370,243.000,60.900,21.040,8.712,431.900,114.200,39.310,17.500,baseline
852.300,302.400,98.410,35.070,844.500,245.700,85.590,29.360,246.300,61.090,21.050,8.742,434.500,115.000,39.430,17.580,baseline
853.400,301.600,98.420,35.170,842.200,246.500,85.790,29.440,245.300,61.100,21.120,8.756,434.900,115.600,39.710,17.720,baseline
854.100,303.700,99.140,35.300,845.100,245.800,85.640,29.280,244.700,61.120,21.140,8.792,437.100,115.700,39.580,17.590,baseline
848.300,299.400,98.250,34.760,838.200,243.800,85.590,29.210,244.700,61.000,20.940,8.723,429.500,114.000,38.880,17.410,baseline
848.000,300.300,97.680,34.570,838.700,243.800,85.190,29.240,243.200,60.600,20.940,8.670,428.000,113.600,38.720,17.280,baseline
844.500,298.400,97.580,34.610,834.900,243.700,84.810,29.250,244.200,60.470,20.890,8.639,424.400,112.800,38.540,17.160,baseline
843.200,298.000,97.200,34.690,835.200,243.700,84.970,29.200,242.500,60.560,20.780,8.668,424.200,112.200,38.520,17.180,baseline
834.800,298.900,97.090,34.520,835.000,243.100,84.870,29.190,241.700,60.300,20.750,8.640,424.500,111.900,38.350,17.180,baseline
840.200,298.400,97.430,34.520,839.800,242.600,85.330,29.140,242.200,60.370,20.810,8.643,423.900,112.200,38.570,17.170,baseline
841.200,299.300,97.090,34.570,831.400,242.800,85.290,29.200,240.500,60.380,20.820,8.652,425.300,112.700,38.610,17.270,baseline
842.100,298.200,97.440,34.720,835.900,243.600,85.170,29.170,241.900,60.430,20.920,8.678,426.700,113.100,38.710,17.310,baseline
842.700,300.000,97.340,34.750,837.600,243.300,85.320,29.250,240.700,60.610,20.890,8.652,428.500,113.300,38.940,17.340,baseline
842.400,300.400,98.040,34.870,835.900,244.500,85.330,29.370,242.200,60.690,20.920,8.698,428.100,113.900,39.070,17.470,baseline
844.000,301.700,97.930,34.810,836.700,244.200,85.670,29.380,243.400,60.780,20.990,8.712,432.400,114.600,39.220,17.500,baseline
846.400,301.300,98.390,35.010,846.100,245.000,85.640,29.350,243.300,61.030,21.060,8.740,433.500,115.000,39.480,17.640,baseline
851.500,303.900,98.520,35.130,842.000,245.400,85.930,29.540,246.100,61.200,21.130,8.781,434.800,115.800,39.680,17.770,baseline
856.500,302.300,98.820,35.190,843.900,246.500,86.090,29.500,247.900,61.410,21.140,8.809,437.300,116.300,39.760,17.780,baseline
854.900,304.800,99.700,35.300,847.200,246.800,85.860,29.430,246.400,61.480,21.270,8.812,438.700,117.000,39.940,17.740,baseline
853.200,301.600,98.470,34.880,844.500,245.200,85.550,29.320,247.000,61.320,21.130,8.764,433.600,114.400,39.140,17.420,baseline
846.300,301.800,97.970,34.730,839.400,244.900,85.370,29.330,243.100,60.730,21.010,8.710,428.500,113.400,38.910,17.320,baseline
845.000,299.200,97.810,34.720,840.100,244.300,85.470,29.340,246.000,60.820,20.960,8.663,427.000,113.200,38.690,17.270,baseline
841.100,298.300,97.520,34.600,840.000,244.200,85.710,29.300,244.100,60.630,20.950,8.679,426.800,112.700,38.620,17.270,baseline
841.400,299.100,97.290,34.660,837.300,244.100,85.340,29.350,243.400,60.520,20.880,8.645,425.900,112.600,38.530,17.210,baseline
842.900,298.700,97.140,34.670,836.500,244.000,85.230,29.350,244.200,60.650,20.900,8.672,426.400,112.400,38.570,17.250,baseline
845.100,298.800,97.660,34.660,840.300,243.300,85.550,29.310,241.500,60.550,20.890,8.668,425.800,112.700,38.810,17.330,baseline
842.300,299.100,97.840,34.650,843.500,244.400,85.240,29.390,243.300,60.810,20.860,8.634,426.900,113.500,38.830,17.340,baseline
839.900,300.200,98.070,34.830,839.800,244.800,85.620,29.420,243.900,60.700,20.920,8.736,430.200,113.900,39.130,17.430,baseline
839.100,300.100,98.220,34.920,844.200,244.300,85.540,29.460,243.400,60.810,20.990,8.716,430.800,114.100,39.100,17.430,baseline
846.500,301.100,98.240,35.000,845.600,245.100,85.600,29.510,246.000,61.100,21.020,8.735,431.200,114.700,39.230,17.620,baseline
849.100,303.200,98.550,35.060,845.000,245.900,85.640,29.550,244.000,61.180,21.140,8.770,433.800,115.000,39.450,17.680,baseline
850.900,303.300,98.530,35.200,845.700,245.700,85.890,29.490,246.300,61.350,21.120,8.760,434.800,116.000,39.830,17.720,baseline
839.800,300.700,98.080,34.730,841.100,245.500,85.460,29.420,245.300,60.720,20.970,8.692,428.700,113.900,38.860,17.350,easy
844.900,300.600,97.550,34.760,842.500,244.100,85.650,29.470,241.700,60.920,20.970,8.690,427.700,113.700,38.760,17.380,easy
847.000,299.000,97.830,34.760,839.100,245.100,86.170,29.470,242.300,60.700,20.940,8.688,426.400,113.500,38.800,17.340,easy
846.200,299.300,97.790,34.680,841.300,245.300,85.980,29.530,242.400,60.890,20.980,8.705,428.000,113.700,38.900,17.390,easy
844.200,301.400,97.750,34.880,843.900,244.600,86.080,29.570,242.000,60.780,20.980,8.749,429.000,114.000,39.100,17.450,easy
845.400,300.300,97.890,34.900,847.200,245.900,85.990,29.550,244.000,60.860,21.040,8.737,431.100,114.400,39.080,17.500,easy
844.000,303.500,98.070,35.110,846.300,245.900,86.200,29.650,243.600,61.110,21.060,8.757,431.500,114.500,39.410,17.500,easy
848.500,302.000,98.670,34.950,845.900,246.100,86.200,29.580,245.500,61.170,21.140,8.750,433.400,114.900,39.480,17.630,easy
849.700,303.500,99.130,35.030,849.900,246.100,86.290,29.680,246.100,61.360,21.200,8.791,434.500,115.500,39.610,17.750,easy
851.900,303.700,99.150,35.180,846.000,246.200,86.100,29.540,245.600,61.470,21.240,8.826,437.000,115.900,39.780,17.670,easy
848.400,301.000,98.000,34.720,838.800,244.600,85.800,29.440,244.700,61.380,21.170,8.732,431.500,114.300,39.070,17.450,easy
846.500,300.500,98.080,34.780,840.800,245.100,85.930,29.500,244.200,60.780,20.980,8.674,428.700,113.700,39.040,17.340,easy
840.600,299.000,97.460,34.740,841.200,243.800,85.890,29.460,244.100,60.950,20.980,8.690,425.800,113.200,38.720,17.330,easy
836.400,299.800,97.610,34.750,840.000,245.300,85.730,29.500,242.700,60.900,20.940,8.714,427.800,113.300,38.660,17.360,easy
840.400,299.800,97.300,34.840,841.700,245.000,85.740,29.490,243.800,60.770,20.940,8.701,425.900,112.900,38.690,17.380,easy
837.700,299.300,97.450,34.740,838.600,244.700,85.730,29.530,244.200,60.850,21.030,8.693,428.200,113.300,38.820,17.300,easy
846.800,298.900,97.670,34.800,841.100,245.500,86.120,29.550,243.200,60.700,20.980,8.716,427.700,113.300,38.940,17.340,easy
842.800,300.400,97.850,34.940,839.200,246.000,86.010,29.620,241.500,60.780,21.000,8.705,429.200,113.700,39.080,17.430,easy
843.400,301.900,98.260,35.000,840.000,244.800,85.930,29.550,246.000,61.060,21.080,8.743,430.600,114.100,39.180,17.490,easy
843.900,301.400,98.380,35.000,841.600,246.400,86.480,29.710,244.000,61.060,21.150,8.740,432.400,114.800,39.230,17.570,easy
846.900,302.400,98.830,35.020,844.300,245.600,86.140,29.750,244.000,61.170,21.200,8.812,434.700,115.400,39.520,17.620,easy
848.900,302.100,98.710,35.180,846.900,246.900,86.810,29.850,247.800,61.230,21.220,8.836,435.100,116.500,39.730,17.720,easy
849.400,302.900,98.840,35.440,846.500,246.600,86.470,29.860,248.400,61.400,21.300,8.825,437.800,116.800,39.910,17.720,easy
855.800,304.200,99.230,35.440,850.100,247.900,86.800,29.880,247.000,61.880,21.350,8.872,439.800,116.800,40.030,17.940,easy
858.800,305.300,99.890,35.560,849.700,248.300,86.550,29.740,248.300,62.020,21.410,8.893,441.000,117.400,39.990,17.750,easy
856.400,302.300,98.720,34.960,844.100,246.100,85.970,29.560,245.200,61.800,21.270,8.810,434.600,115.000,39.420,17.530,easy
846.600,301.500,98.090,34.850,846.700,245.600,85.960,29.660,246.400,61.350,21.160,8.774,430.700,114.100,39.110,17.450,easy
845.000,300.200,98.280,34.750,841.900,245.700,85.800,29.580,242.600,61.070,21.110,8.740,427.800,113.900,38.960,17.320,easy
841.500,299.200,97.980,34.740,841.400,245.900,86.320,29.580,242.600,61.010,21.050,8.715,427.900,113.400,38.710,17.310,easy
842.500,299.200,97.840,34.800,841.500,245.800,86.030,29.540,242.900,60.960,21.080,8.733,426.900,113.500,38.700,17.330,easy
846.500,299.300,97.810,34.680,842.600,244.900,85.850,29.570,243.700,60.830,21.010,8.707,427.000,113.200,38.590,17.250,easy
840.000,300.200,97.670,34.800,844.800,245.300,86.190,29.640,243.800,60.860,21.050,8.717,427.600,113.800,38.930,17.360,easy
840.600,299.500,97.590,34.830,841.500,245.200,86.090,29.650,244.200,60.890,21.080,8.732,429.500,113.900,39.080,17.480,easy
845.100,300.500,98.350,34.850,842.100,245.100,86.040,29.720,242.300,60.940,21.130,8.781,430.600,114.000,39.170,17.520,easy
846.200,301.900,98.180,34.890,843.800,246.100,86.400,29.680,245.400,61.270,21.100,8.774,431.500,114.800,39.270,17.510,easy
845.200,302.700,98.690,35.130,842.500,245.800,86.440,29.790,243.400,61.180,21.100,8.770,432.700,115.000,39.500,17.640,easy
851.700,303.700,98.710,35.140,849.500,245.500,86.600,29.750,244.200,61.170,21.240,8.819,435.500,115.200,39.620,17.730,easy
848.100,302.900,99.310,35.280,848.500,246.200,86.660,29.840,243.300,61.620,21.320,8.831,436.500,116.100,39.740,17.820,easy
850.900,304.700,99.340,35.320,848.200,248.200,86.790,29.820,245.300,61.600,21.360,8.852,438.400,116.600,39.950,17.810,easy
854.000,305.100,99.610,35.510,854.300,247.500,86.920,29.840,247.700,61.940,21.370,8.884,440.800,117.200,40.080,17.800,easy
853.200,304.100,98.970,35.140,848.800,246.300,86.230,29.670,246.300,61.700,21.310,8.806,434.100,115.100,39.440,17.600,easy
845.300,301.800,98.490,35.000,844.900,246.300,86.600,29.720,245.500,61.220,21.120,8.781,430.900,114.600,39.150,17.500,easy
844.400,300.900,98.180,34.950,843.400,246.100,86.200,29.660,244.100,61.050,21.110,8.730,428.800,114.300,39.030,17.410,easy
845.900,301.000,97.980,35.010,842.400,246.500,86.160,29.710,243.200,60.870,21.020,8.709,428.400,113.700,38.820,17.380,easy
843.100,300.700,97.840,34.810,844.300,245.200,86.020,29.670,242.300,60.950,21.020,8.733,427.500,113.200,38.790,17.370,easy
845.700,301.500,97.970,34.870,842.100,244.900,86.200,29.710,243.500,60.710,20.960,8.734,426.900,113.400,38.960,17.380,easy
842.400,300.200,97.860,34.890,841.600,246.200,86.470,29.620,242.700,60.930,20.990,8.726,427.800,113.600,38.930,17.420,easy
846.600,300.000,98.440,34.900,845.400,245.400,86.270,29.710,242.700,60.970,21.090,8.697,429.500,114.000,39.080,17.440,easy
847.200,300.300,98.580,34.990,845.700,246.000,86.300,29.730,242.800,60.850,21.000,8.754,429.600,114.200,39.130,17.500,easy
843.000,302.200,98.610,35.070,838.200,246.700,86.420,29.790,242.800,61.020,21.080,8.767,430.800,114.600,39.220,17.510,easy
849.700,303.300,98.600,35.170,841.500,246.900,86.420,29.800,244.600,61.050,21.110,8.806,432.200,115.100,39.400,17.620,easy
848.000,302.500,98.850,35.280,850.400,246.500,86.650,29.770,243.200,61.260,21.140,8.797,434.900,115.700,39.690,17.760,easy
852.100,302.400,99.180,35.180,842.800,245.400,86.450,29.730,245.000,61.500,21.200,8.795,434.800,115.600,39.440,17.580,easy
850.200,299.600,98.280,34.940,843.600,245.400,86.080,29.640,244.900,61.100,21.120,8.718,428.400,114.000,38.840,17.350,easy
842.900,300.300,98.240,34.870,844.300,245.100,85.900,29.590,244.200,60.860,21.010,8.674,426.600,113.400,38.640,17.250,easy
841.300,299.500,97.800,34.810,844.000,244.900,85.810,29.570,245.400,60.640,20.940,8.697,426.300,112.700,38.680,17.180,easy
837.400,299.000,97.680,34.630,840.500,245.100,85.780,29.530,243.100,60.620,20.970,8.669,424.200,112.400,38.450,17.200,easy
839.800,298.700,97.780,34.770,838.400,244.600,86.070,29.550,240.400,60.470,20.880,8.664,423.400,112.200,38.510,17.270,easy
839.900,299.300,97.710,34.770,839.200,244.700,85.800,29.570,240.200,60.500,20.900,8.675,424.400,112.700,38.750,17.260,easy
840.200,299.800,97.650,34.820,836.700,245.500,85.760,29.630,242.000,60.580,20.860,8.703,424.800,112.900,38.630,17.240,easy
840.200,298.500,97.860,34.870,839.300,245.400,85.740,29.590,242.500,60.710,20.850,8.723,427.600,113.300,38.820,17.310,easy
844.800,299.100,98.160,34.930,845.800,245.400,86.340,29.660,241.700,60.690,21.000,8.756,427.800,113.500,39.020,17.390,easy
840.800,300.200,98.480,34.980,838.600,245.700,86.330,29.680,244.000,60.760,21.080,8.740,429.100,113.700,39.140,17.460,easy
848.800,302.100,98.390,35.110,843.700,246.600,86.530,29.830,241.500,60.970,21.120,8.760,430.400,114.600,39.310,17.540,easy
846.100,302.500,99.040,35.220,846.600,247.100,86.760,29.900,246.500,61.200,21.150,8.831,432.500,115.300,39.490,17.650,easy
847.900,301.400,99.270,35.410,852.500,247.500,86.480,29.880,245.600,61.350,21.260,8.832,435.900,115.800,39.730,17.750,easy
854.300,304.300,99.550,35.550,855.400,248.200,86.970,29.990,243.700,61.710,21.280,8.840,437.700,116.100,39.890,17.850,easy
857.700,304.300,99.740,35.590,852.600,247.500,87.100,29.920,246.300,61.720,21.380,8.844,439.400,116.700,40.110,17.890,easy
850.300,304.400,99.260,35.260,847.800,246.200,86.730,29.820,246.800,61.670,21.260,8.803,434.200,115.400,39.320,17.540,easy
850.300,301.600,98.960,35.140,849.900,246.300,86.250,29.880,244.700,61.050,21.210,8.771,430.200,114.000,39.060,17.440,easy
848.700,301.000,98.240,35.090,844.700,246.000,86.340,29.770,243.500,60.960,21.070,8.758,427.600,113.400,38.800,17.340,easy
843.300,301.000,98.130,34.970,846.800,245.500,85.930,29.680,241.900,60.720,21.000,8.706,426.100,113.300,38.680,17.290,easy
842.100,299.800,98.220,34.960,845.500,245.700,85.830,29.690,241.700,60.740,20.970,8.692,426.400,112.800,38.700,17.280,easy
842.800,299.900,97.780,34.840,843.800,245.500,86.390,29.670,243.000,60.640,20.910,8.683,424.300,112.900,38.720,17.290,easy
839.700,299.400,98.020,34.880,843.900,246.600,85.780,29.610,241.300,60.720,20.970,8.669,426.300,113.200,38.720,17.330,easy
843.700,300.800,98.210,35.000,845.100,245.700,86.310,29.660,242.300,60.440,20.880,8.714,427.200,113.300,38.820,17.350,easy
845.100,299.400,98.610,34.960,845.200,244.900,86.100,29.700,243.000,60.730,20.970,8.687,427.800,113.700,38.930,17.360,easy
846.500,300.700,98.100,35.030,843.600,245.900,86.390,29.710,242.500,60.880,21.010,8.719,429.100,114.300,39.060,17.410,easy
844.800,301.000,98.510,35.210,844.300,245.800,86.430,29.730,243.800,60.800,21.010,8.734,431.000,114.400,39.180,17.540,easy
851.300,302.400,98.820,35.300,849.600,246.500,86.430,29.820,244.900,60.990,21.120,8.712,432.300,114.800,39.250,17.570,easy
844.900,303.200,99.150,35.340,851.000,247.500,86.210,29.900,244.600,61.050,21.120,8.765,435.000,115.400,39.500,17.690,easy
855.700,304.800,99.540,35.470,843.000,246.500,86.620,29.670,245.100,61.310,21.180,8.817,436.000,115.500,39.400,17.640,easy
845.500,301.400,98.770,34.990,836.200,245.200,86.290,29.690,244.200,60.910,20.990,8.784,429.400,114.000,38.820,17.390,easy
846.800,300.200,98.540,35.070,840.000,245.200,85.980,29.680,243.000,60.740,20.950,8.710,426.900,113.300,38.860,17.370,easy
843.800,299.300,98.070,34.970,842.000,245.400,86.190,29.670,242.500,60.650,20.950,8.697,425.200,113.200,38.760,17.260,easy
844.600,300.000,98.130,34.940,841.800,245.100,86.230,29.670,240.800,60.570,20.880,8.694,425.300,113.100,38.590,17.310,easy
842.300,298.800,97.830,34.930,841.400,245.500,86.070,29.660,242.600,60.570,20.810,8.661,425.500,112.500,38.620,17.280,easy
838.000,300.700,98.210,34.910,842.300,245.200,85.920,29.710,242.400,60.620,20.810,8.669,425.100,112.800,38.670,17.310,easy
843.500,300.000,98.060,35.040,843.600,245.800,86.280,29.660,242.200,60.480,20.890,8.698,425.700,113.300,38.730,17.270,easy
845.000,299.600,98.170,35.060,842.000,245.600,86.380,29.710,242.500,60.560,20.970,8.676,426.400,113.600,38.830,17.370,easy
844.200,301.000,98.750,35.210,845.900,246.500,86.260,29.770,241.000,60.690,21.000,8.732,429.100,113.700,39.040,17.430,easy
845.400,302.200,98.790,35.250,846.700,246.900,86.210,29.800,243.300,60.720,21.030,8.754,429.700,114.400,39.200,17.530,easy
846.000,303.700,99.000,35.180,849.600,246.800,86.630,29.870,242.500,61.140,21.100,8.777,432.100,114.500,39.350,17.590,easy
850.200,303.200,99.350,35.410,847.900,247.600,86.370,29.900,243.700,61.150,21.090,8.791,433.700,115.300,39.600,17.690,easy
853.400,304.600,99.380,35.550,851.900,247.900,87.140,29.900,246.000,61.260,21.180,8.822,435.500,115.900,39.750,17.700,easy
852.700,303.100,98.950,35.210,848.400,247.200,86.600,29.850,246.000,61.210,21.110,8.755,430.700,114.800,39.100,17.450,easy
842.200,301.500,98.970,35.070,845.600,246.400,86.480,29.690,242.200,60.900,21.050,8.709,427.700,113.800,38.810,17.330,easy
843.800,300.800,98.140,35.010,845.100,245.400,86.100,29.660,242.800,60.470,20.940,8.643,424.300,112.100,38.570,17.190,easy
846.500,299.700,97.880,34.970,840.900,245.900,86.140,29.680,242.600,60.370,20.890,8.681,423.100,112.300,38.470,17.210,easy
840.900,300.600,97.710,34.870,841.700,244.100,85.990,29.570,241.400,60.370,20.900,8.648,422.200,112.000,38.240,17.110,easy
841.900,300.800,97.600,34.940,841.600,245.300,86.240,29.730,243.800,60.270,20.830,8.647,422.600,112.100,38.440,17.270,easy
843.200,299.500,97.680,34.940,843.000,247.000,86.270,29.690,241.000,60.470,20.900,8.655,422.100,112.200,38.470,17.200,easy
844.800,299.200,98.030,35.060,841.600,246.100,86.400,29.710,242.200,60.360,20.870,8.664,425.200,112.400,38.750,17.320,easy
845.600,300.200,98.450,35.070,844.200,246.000,86.180,29.730,244.800,60.550,20.980,8.680,425.000,112.800,38.770,17.320,easy
844.300,300.100,98.540,35.110,846.700,246.400,86.280,29.820,242.600,60.610,20.970,8.740,427.200,113.600,38.940,17.440,easy
847.100,299.600,98.910,35.190,846.200,246.300,86.510,29.850,243.200,60.740,21.030,8.710,429.200,114.100,39.090,17.500,easy
848.900,303.100,98.670,35.320,846.400,246.900,86.780,29.800,242.500,60.740,21.050,8.769,431.100,114.700,39.280,17.500,easy
851.200,303.300,99.050,35.350,848.700,247.600,86.880,29.980,245.300,61.120,21.100,8.779,432.900,115.200,39.370,17.670,easy
857.000,302.000,99.370,35.460,851.700,247.900,87.240,29.970,245.500,61.220,21.190,8.815,433.700,116.000,39.720,17.730,easy
855.000,305.300,100.100,35.690,855.300,248.300,87.070,30.070,244.900,61.450,21.200,8.859,436.800,116.300,39.740,17.830,easy
856.200,306.100,100.200,35.680,851.100,249.200,87.040,29.920,246.000,61.530,21.280,8.862,438.200,116.600,39.720,17.780,easy
852.700,302.900,99.160,35.380,847.400,246.600,86.380,29.890,244.900,61.210,21.170,8.788,431.900,114.600,39.310,17.500,easy
846.300,303.200,98.500,35.210,845.500,247.200,86.470,29.860,242.600,60.770,21.120,8.782,429.500,113.900,39.020,17.420,easy
844.700,300.800,98.610,35.130,846.600,246.700,86.450,29.830,245.100,60.900,20.980,8.716,426.600,113.200,38.670,17.250,easy
846.600,300.900,98.390,34.980,844.100,245.800,86.320,29.810,243.500,60.540,20.940,8.690,425.700,113.100,38.680,17.210,easy
845.600,299.900,98.220,34.940,851.400,246.400,86.240,29.720,242.200,60.630,20.940,8.696,425.100,112.800,38.490,17.210,easy
846.100,300.100,98.580,34.980,846.200,246.400,86.550,29.800,242.200,60.650,20.960,8.679,424.700,112.700,38.570,17.210,easy
845.400,300.600,98.050,35.070,846.500,246.600,86.560,29.770,243.500,60.650,20.960,8.702,426.100,113.300,38.770,17.310,easy
843.300,299.700,98.360,35.240,845.400,247.100,86.570,29.830,243.200,60.850,21.030,8.682,427.100,113.500,38.800,17.400,easy
845.700,301.200,98.360,35.200,846.600,246.300,86.500,29.820,242.600,60.800,20.990,8.725,428.300,114.000,38.980,17.310,easy
846.500,300.600,98.820,35.210,848.700,246.100,86.380,29.850,243.300,60.820,21.020,8.731,430.000,113.900,39.130,17.490,easy
853.300,302.500,99.290,35.300,851.000,247.000,86.950,29.930,244.100,60.910,21.020,8.760,430.700,114.200,39.340,17.530,easy
848.400,304.300,99.010,35.410,853.000,247.300,87.170,29.960,245.400,61.080,21.160,8.763,433.200,115.000,39.480,17.580,easy
850.900,304.400,99.530,35.480,852.000,247.800,86.970,29.910,243.900,61.250,21.160,8.819,433.700,115.300,39.670,17.710,easy
854.000,306.200,99.900,35.530,850.600,249.100,86.730,29.880,245.600,61.430,21.230,8.844,434.300,115.600,39.560,17.550,easy
858.000,302.400,99.100,35.170,847.600,246.400,86.420,29.940,242.700,60.980,21.080,8.755,428.700,113.800,39.010,17.400,easy
846.900,302.000,98.710,35.190,849.700,248.100,86.550,29.880,243.500,61.010,21.130,8.751,427.200,113.200,38.750,17.350,easy
844.100,299.900,98.800,35.030,844.800,246.200,86.530,29.860,241.700,60.870,21.020,8.728,426.400,112.900,38.660,17.290,easy
843.800,300.600,98.690,35.120,849.300,248.000,86.660,29.860,242.300,60.700,21.010,8.703,425.600,112.800,38.630,17.300,easy
843.500,302.200,98.550,35.150,846.500,247.400,86.390,29.890,242.900,60.760,21.010,8.705,425.200,113.000,38.560,17.290,easy
845.900,301.000,98.410,35.100,850.500,246.600,86.480,29.920,241.500,60.620,20.990,8.750,426.700,113.200,38.860,17.330,easy
847.400,301.100,98.920,35.260,851.300,247.300,86.780,29.870,244.200,60.800,21.100,8.742,426.700,113.700,38.860,17.350,easy
850.500,302.100,98.650,35.140,849.600,247.500,86.800,29.910,245.000,60.860,21.180,8.760,429.500,114.200,39.040,17.400,easy
852.400,303.100,98.950,35.320,850.600,247.800,86.900,29.940,243.700,60.880,21.100,8.738,429.800,114.200,39.160,17.460,easy
848.600,303.400,99.020,35.450,850.900,247.800,86.860,30.050,243.600,61.100,21.150,8.797,431.200,114.500,39.250,17.610,easy
854.400,304.600,99.280,35.370,851.500,248.100,86.930,30.000,244.300,61.220,21.190,8.822,433.800,115.200,39.460,17.560,easy
853.700,305.100,99.400,35.560,853.800,247.600,87.240,30.070,246.200,61.670,21.230,8.843,434.600,115.700,39.830,17.730,easy
855.700,306.400,99.740,35.670,855.400,249.300,87.570,30.030,245.200,61.650,21.280,8.902,436.900,116.400,39.760,17.880,easy
856.400,307.900,99.980,35.780,854.600,249.700,87.520,30.080,245.800,61.730,21.390,8.893,437.200,116.200,40.040,17.920,easy
864.300,308.000,100.300,35.600,852.000,247.700,87.010,29.840,248.200,61.750,21.390,8.884,437.400,116.500,39.740,17.660,easy
852.600,303.100,98.830,35.170,852.400,247.800,86.850,29.920,246.200,61.300,21.190,8.791,431.000,114.600,39.300,17.430,easy
855.200,303.100,98.750,35.190,849.500,247.700,86.720,29.880,244.800,61.200,21.160,8.809,429.300,114.200,38.950,17.410,easy
850.800,300.900,98.320,35.120,848.100,247.900,86.980,29.920,243.800,61.130,21.110,8.766,427.200,113.600,38.900,17.360,easy
847.300,302.500,98.550,35.220,850.100,247.000,86.660,29.880,242.400,60.970,21.010,8.772,426.600,112.500,38.650,17.320,easy
847.900,300.700,98.510,35.080,849.400,247.400,86.930,29.900,241.900,60.800,21.100,8.741,425.800,112.900,38.670,17.360,easy
844.200,302.000,98.710,35.200,848.800,246.900,86.580,29.920,241.000,60.880,21.020,8.739,425.600,113.300,38.800,17.380,easy
846.100,301.700,98.520,35.220,851.300,247.300,86.570,29.860,243.900,60.700,21.040,8.765,426.900,113.300,38.820,17.340,easy
847.300,304.000,98.590,35.210,848.600,248.200,86.770,29.940,243.400,60.940,21.130,8.773,428.800,113.600,38.960,17.400,easy
850.000,303.300,98.610,35.220,849.200,247.300,86.860,29.940,243.100,61.080,21.150,8.762,429.800,114.100,39.080,17.490,easy
849.600,301.900,98.610,35.340,850.400,248.200,86.870,29.950,242.400,61.110,21.110,8.825,430.400,114.500,39.060,17.560,easy
846.600,303.000,99.150,35.300,851.800,248.000,87.290,29.960,243.200,61.170,21.220,8.823,433.000,114.900,39.330,17.590,easy
857.800,304.200,99.180,35.350,853.300,249.300,86.790,29.970,244.200,61.390,21.240,8.826,433.900,115.600,39.440,17.670,easy
855.400,304.700,99.500,35.460,853.200,248.700,87.130,30.020,247.200,61.520,21.340,8.875,436.300,115.700,39.760,17.860,easy
855.300,305.000,99.480,35.610,856.500,249.200,87.330,30.000,245.800,61.600,21.350,8.890,437.700,116.500,39.770,17.900,easy
859.600,306.500,99.900,35.660,855.300,250.200,87.510,30.170,245.900,61.860,21.430,8.927,438.800,116.700,40.130,17.920,easy
863.600,306.300,100.700,35.720,855.900,249.300,87.470,29.920,248.500,62.080,21.420,8.889,440.400,116.600,39.800,17.740,easy
853.600,302.900,98.890,35.240,852.900,248.000,86.800,29.810,246.400,61.780,21.280,8.813,432.200,114.400,39.450,17.530,easy
853.100,303.700,98.540,35.140,850.100,247.100,86.970,29.790,245.400,61.300,21.210,8.818,430.100,114.000,39.050,17.530,easy
846.900,301.600,98.900,35.050,849.700,247.000,86.860,29.850,246.300,61.250,21.200,8.783,428.600,114.000,38.980,17.430,easy
851.300,303.300,99.110,35.230,849.300,247.500,87.350,29.900,244.900,61.280,21.200,8.768,427.800,113.500,38.930,17.490,easy
848.600,303.300,98.780,35.110,848.200,247.800,87.010,29.900,244.500,60.940,21.160,8.791,427.800,113.500,38.990,17.430,easy
851.400,303.000,99.070,35.210,846.200,247.900,87.030,29.950,245.200,61.200,21.100,8.796,429.600,113.400,39.060,17.510,easy
851.600,302.500,98.730,35.230,853.200,247.800,86.800,29.950,244.000,61.150,21.170,8.798,428.000,113.900,39.240,17.520,easy
854.100,303.400,99.350,35.230,846.800,247.600,86.730,29.950,245.400,61.190,21.200,8.787,428.400,114.600,39.340,17.540,easy
848.600,302.500,99.060,35.300,852.900,247.200,87.190,30.020,244.900,61.270,21.220,8.815,431.200,114.800,39.480,17.690,easy
852.400,304.600,99.500,35.460,854.900,248.200,87.040,30.030,246.100,61.460,21.210,8.842,431.000,115.200,39.440,17.630,easy
853.700,304.400,99.450,35.590,853.900,249.200,87.340,30.010,245.500,61.440,21.240,8.852,433.300,115.300,39.700,17.740,easy
853.100,305.500,99.560,35.550,856.500,249.100,87.520,30.000,245.900,61.530,21.320,8.867,435.200,116.100,39.690,17.830,easy
857.200,306.700,100.100,35.540,857.700,249.500,87.180,30.120,245.000,61.700,21.400,8.897,437.600,116.600,40.190,17.960,easy
856.100,306.600,99.980,35.670,856.900,249.100,87.340,30.000,244.600,61.810,21.410,8.906,438.300,116.900,39.780,17.820,easy
856.300,303.700,99.330,35.270,853.900,248.800,86.830,29.910,245.700,61.640,21.300,8.873,432.400,114.900,39.320,17.590,easy
850.700,303.500,99.340,35.270,847.700,248.000,87.150,29.810,246.400,61.320,21.230,8.828,431.700,114.400,39.390,17.580,easy
848.000,303.100,99.100,35.260,853.100,248.700,87.030,29.930,245.000,61.290,21.240,8.832,429.900,114.400,39.290,17.570,easy
850.400,303.700,98.920,35.310,851.600,247.300,87.010,29.990,244.500,61.420,21.260,8.809,429.700,114.200,39.490,17.530,easy
848.700,303.000,98.850,35.240,852.600,247.200,87.100,29.940,244.000,61.340,21.190,8.812,429.800,114.400,39.390,17.600,easy
849.300,302.800,98.720,35.190,850.700,246.700,86.950,30.000,244.100,61.280,21.270,8.807,429.800,114.500,39.450,17.610,easy
852.300,304.000,98.940,35.320,855.000,249.100,87.230,30.020,243.500,61.470,21.230,8.842,431.700,114.900,39.480,17.680,easy
852.600,303.500,99.440,35.370,850.700,247.800,86.820,29.970,245.200,61.320,21.310,8.858,433.000,115.500,39.720,17.800,easy
857.700,304.900,99.260,35.490,856.200,247.800,87.440,30.010,246.000,61.520,21.180,8.852,434.700,115.300,39.630,17.830,easy
856.000,305.100,99.600,35.490,857.400,248.100,86.970,30.030,246.200,61.550,21.280,8.877,435.500,116.000,39.750,17.800,easy
857.600,306.300,99.640,35.570,855.600,249.000,87.400,30.040,246.300,61.780,21.360,8.882,436.400,116.100,40.040,17.970,easy
857.000,305.200,99.830,35.650,854.600,249.100,87.730,30.130,245.800,61.740,21.310,8.906,438.800,116.800,40.260,17.980,easy
861.600,307.900,100.300,35.780,856.700,250.000,87.730,30.200,248.400,61.890,21.410,8.916,441.000,117.300,40.460,18.140,easy
860.500,308.300,100.500,35.850,861.300,250.400,87.880,30.200,247.100,62.090,21.430,8.973,442.600,118.000,40.590,18.180,easy
866.000,307.700,100.100,35.610,858.200,249.100,86.940,29.860,247.000,62.120,21.420,8.890,438.700,116.700,40.000,17.880,easy
853.800,303.700,99.210,35.370,850.000,248.000,87.040,29.850,246.300,61.460,21.220,8.846,434.600,115.800,39.690,17.720,easy
846.200,303.600,98.950,35.290,849.000,248.300,86.730,29.830,244.900,61.610,21.250,8.817,431.800,115.200,39.560,17.650,easy
848.700,302.800,98.660,35.150,849.200,247.000,86.550,29.820,245.000,61.330,21.220,8.808,430.600,114.800,39.500,17.610,easy
846.300,304.400,98.570,35.200,849.200,247.100,86.920,29.860,244.500,61.410,21.260,8.811,430.400,114.400,39.360,17.650,easy
850.500,302.700,98.840,35.170,850.900,247.600,86.670,29.840,244.100,61.330,21.080,8.815,430.300,114.300,39.420,17.650,easy
844.800,303.200,98.750,35.150,845.900,246.600,86.970,29.830,244.500,61.220,21.220,8.807,429.500,114.700,39.420,17.710,easy
844.600,303.800,99.060,35.360,852.800,247.600,86.950,29.910,243.300,61.220,21.150,8.809,431.200,115.200,39.510,17.710,easy
849.700,303.400,99.200,35.260,845.400,248.100,87.030,29.880,244.300,61.360,21.200,8.816,432.900,115.300,39.640,17.870,easy
846.300,303.000,99.110,35.460,851.100,248.000,86.840,29.950,242.900,61.530,21.230,8.811,434.300,115.900,39.800,17.830,easy
853.500,304.900,98.990,35.500,855.200,248.700,86.950,30.020,245.900,61.310,21.250,8.848,435.500,115.900,39.970,17.930,easy
851.400,304.500,99.270,35.600,855.000,247.900,87.300,29.980,244.900,61.450,21.330,8.866,436.400,116.800,40.070,17.940,easy
855.500,306.500,99.560,35.690,857.400,249.600,87.520,30.060,245.100,61.690,21.300,8.840,439.500,116.900,40.290,18.080,easy
854.100,305.700,100.200,35.730,855.500,249.200,87.180,30.090,245.400,61.800,21.400,8.889,440.500,117.300,40.520,18.130,easy
865.500,306.300,100.700,35.810,859.000,250.200,87.710,30.120,247.700,62.050,21.330,8.919,442.700,118.100,40.730,18.210,easy
864.800,309.000,100.500,35.970,858.700,250.100,87.990,30.190,246.200,62.020,21.430,8.950,444.400,118.900,40.970,18.230,easy
866.500,310.600,100.700,35.940,859.600,249.100,87.490,29.940,247.500,62.110,21.470,8.897,443.700,118.200,40.440,18.030,easy
863.400,305.900,99.270,35.380,855.100,247.800,87.060,29.900,247.400,61.780,21.320,8.819,436.900,116.400,39.900,17.880,easy
853.300,304.600,99.320,35.380,852.500,248.300,86.990,29.850,245.600,61.530,21.250,8.815,434.200,116.300,39.740,17.830,easy
853.900,305.000,99.160,35.140,850.800,248.200,86.730,29.820,246.200,61.530,21.260,8.800,435.000,115.600,39.680,17.750,easy
852.300,303.500,98.710,35.230,852.900,248.100,86.760,29.740,244.500,61.440,21.170,8.814,433.000,115.200,39.790,17.760,easy
849.900,302.200,98.820,35.230,855.500,247.900,86.680,29.800,245.100,61.440,21.110,8.780,431.300,115.300,39.650,17.760,easy
855.000,302.900,98.920,35.250,846.900,247.900,86.870,29.850,246.500,61.390,21.160,8.809,431.600,115.800,39.710,17.750,easy
850.500,303.900,99.150,35.360,850.900,247.700,87.160,29.880,245.400,61.290,21.220,8.815,433.600,115.100,39.850,17.790,easy
857.100,304.800,99.140,35.420,849.900,248.000,87.000,29.880,243.600,61.300,21.200,8.824,434.500,116.100,39.920,17.850,easy
860.200,305.500,99.570,35.430,853.100,248.000,86.830,29.910,244.000,61.280,21.150,8.812,434.900,116.200,39.990,17.900,easy
857.500,304.700,99.690,35.540,853.300,248.500,86.800,30.020,243.500,61.520,21.230,8.829,436.400,116.300,40.180,17.940,easy
856.700,305.500,99.460,35.570,856.200,248.100,87.140,29.940,245.400,61.630,21.240,8.854,438.900,117.000,40.230,18.000,easy
858.700,306.400,99.910,35.620,857.700,249.600,87.410,29.990,246.600,61.650,21.310,8.861,439.200,117.300,40.450,18.100,easy
861.500,307.600,100.200,35.730,855.400,247.900,86.900,29.840,245.300,61.660,21.390,8.843,439.900,117.200,40.280,17.940,easy
853.300,304.600,99.310,35.280,851.400,247.000,86.750,29.760,243.700,61.430,21.210,8.803,434.500,115.700,39.820,17.810,easy
857.900,303.900,98.790,35.280,850.700,247.200,86.640,29.790,243.300,61.290,21.140,8.833,432.300,115.100,39.630,17.700,easy
850.000,303.500,98.860,35.320,849.000,247.400,86.500,29.780,244.500,61.270,21.100,8.783,431.500,115.000,39.600,17.710,easy
849.400,302.400,98.510,35.290,851.000,247.100,86.630,29.830,244.200,61.290,21.140,8.790,430.900,114.700,39.560,17.670,easy
854.200,303.600,98.820,35.300,846.500,247.500,86.700,29.840,245.500,61.210,21.150,8.775,430.400,115.200,39.440,17.690,easy
851.200,304.100,99.110,35.290,852.900,247.100,86.900,29.880,243.500,61.160,21.190,8.805,431.700,114.800,39.620,17.740,easy
850.900,304.200,99.200,35.440,846.400,247.400,86.540,29.920,243.000,61.290,21.160,8.823,432.300,115.700,39.820,17.770,easy
848.700,304.300,99.230,35.510,848.000,246.500,86.960,29.860,245.400,61.150,21.210,8.834,433.800,116.000,39.900,17.770,easy
848.000,304.900,99.460,35.410,851.900,247.500,86.960,29.870,242.900,61.350,21.280,8.834,435.700,115.900,40.050,17.900,easy
855.300,305.500,99.230,35.590,852.700,248.300,87.020,29.990,244.200,61.460,21.240,8.841,436.200,116.400,40.090,17.940,easy
855.000,305.200,99.380,35.630,852.500,249.000,86.900,30.020,245.300,61.500,21.290,8.875,437.400,116.500,40.230,18.010,easy
860.700,304.800,100.000,35.700,856.400,249.300,87.330,29.960,245.300,61.600,21.400,8.903,440.900,117.300,40.420,18.060,easy
861.100,306.800,100.200,35.790,855.700,249.000,87.740,30.070,247.100,61.850,21.390,8.885,441.500,117.600,40.580,18.140,easy
861.900,308.900,100.300,35.910,857.000,250.200,87.590,30.110,247.400,62.110,21.390,8.933,443.000,118.300,40.800,18.240,easy
869.600,308.900,100.500,35.830,856.300,249.700,87.060,29.840,247.300,62.340,21.360,8.918,442.400,117.700,40.320,17.950,easy
859.800,304.200,99.560,35.400,854.100,248.000,86.930,29.840,247.100,61.700,21.310,8.871,435.700,116.000,39.800,17.820,easy
851.800,303.400,99.440,35.270,849.100,246.500,86.750,29.790,244.500,61.540,21.280,8.849,434.200,115.800,39.650,17.720,easy
853.100,303.500,98.980,35.270,849.300,247.600,86.820,29.820,243.800,61.500,21.230,8.795,432.900,114.700,39.650,17.710,easy
852.300,303.400,99.080,35.450,848.300,248.400,86.460,29.820,244.600,61.470,21.260,8.821,432.600,115.400,39.380,17.700,easy
847.400,303.300,99.080,35.400,851.600,246.900,87.090,29.880,245.000,61.430,21.140,8.851,431.700,115.100,39.500,17.770,easy
853.800,304.000,99.430,35.320,851.600,248.000,86.850,29.920,244.300,61.290,21.210,8.811,431.300,115.000,39.580,17.750,easy
856.200,304.600,99.340,35.440,849.900,247.700,87.010,29.940,244.500,61.330,21.230,8.843,432.400,115.500,39.900,17.800,easy
854.800,303.700,99.870,35.620,851.400,248.800,86.940,29.880,243.300,61.490,21.250,8.848,433.000,116.100,39.870,17.830,easy
850.600,304.000,99.710,35.420,849.000,247.900,87.270,30.020,246.900,61.470,21.270,8.839,435.300,116.000,40.020,17.880,easy
856.700,305.700,99.420,35.680,853.000,248.800,86.960,29.920,244.900,61.580,21.360,8.878,436.700,116.700,40.080,17.950,easy
859.100,306.300,99.830,35.710,853.800,248.500,87.210,29.990,244.300,61.720,21.350,8.877,437.900,116.700,40.230,17.980,easy
857.400,306.600,99.950,35.710,854.900,248.800,87.200,30.030,245.800,61.790,21.380,8.897,439.100,117.000,40.410,18.070,easy
860.700,306.100,100.300,35.840,852.500,248.500,87.640,30.070,246.100,61.880,21.440,8.888,440.000,117.400,40.680,18.190,easy
864.800,308.300,100.400,35.910,856.000,249.600,87.720,30.110,246.900,61.880,21.460,8.927,442.900,118.000,40.690,18.200,easy
864.800,308.800,100.800,35.970,853.600,250.100,87.450,30.010,248.000,62.140,21.530,8.937,443.700,118.900,40.810,18.220,easy
860.700,307.500,100.200,35.690,856.000,248.500,86.810,29.890,248.900,62.080,21.380,8.861,438.600,116.900,39.980,17.900,easy
854.000,304.200,99.380,35.450,848.400,247.900,86.760,29.800,244.600,61.260,21.270,8.863,435.700,115.900,39.780,17.780,easy
855.300,304.100,99.620,35.360,850.900,248.000,86.810,29.810,243.800,61.620,21.270,8.832,434.100,115.400,39.860,17.740,easy
852.600,305.100,99.260,35.380,849.600,246.900,86.750,29.800,244.700,61.470,21.290,8.814,432.000,115.300,39.650,17.690,easy
849.200,303.100,99.580,35.480,849.400,246.400,86.910,29.850,244.400,61.300,21.240,8.838,431.500,115.100,39.660,17.710,easy
848.700,302.200,99.410,35.470,848.100,248.200,86.800,29.930,243.700,61.430,21.210,8.840,430.300,115.500,39.410,17.720,easy
854.800,303.700,99.530,35.480,852.500,248.100,87.060,29.940,244.700,61.430,21.230,8.810,431.400,114.700,39.720,17.790,easy
856.800,305.500,99.310,35.550,853.200,247.600,86.680,29.950,243.500,61.360,21.190,8.840,432.900,115.500,39.670,17.770,easy
855.500,304.600,99.530,35.600,851.000,247.600,87.100,29.930,244.400,61.360,21.270,8.846,433.200,115.600,39.730,17.840,easy
856.800,306.500,99.350,35.690,851.200,248.000,87.030,29.910,243.600,61.460,21.300,8.875,434.500,116.200,39.860,17.890,easy
855.000,305.500,99.720,35.600,850.300,247.600,87.070,29.920,244.700,61.620,21.280,8.906,435.600,116.400,39.880,17.920,easy
859.900,305.400,100.100,35.740,854.400,248.500,87.310,30.060,247.700,61.640,21.410,8.902,437.000,116.300,40.190,17.960,easy
863.500,306.500,100.500,35.790,856.600,248.100,86.920,30.030,246.200,61.620,21.470,8.918,437.800,116.700,40.320,18.010,easy
863.400,307.400,100.500,35.850,852.400,247.700,86.880,29.850,246.100,61.720,21.420,8.930,440.700,117.400,40.260,17.980,easy
857.700,305.000,99.650,35.560,845.500,247.200,86.590,29.850,245.800,61.500,21.280,8.872,435.700,115.400,39.650,17.670,easy
853.600,304.500,99.290,35.500,850.300,247.600,86.310,29.760,245.000,61.560,21.280,8.830,432.500,115.100,39.710,17.680,easy
849.400,303.500,99.170,35.410,848.000,247.200,86.670,29.840,246.400,61.460,21.170,8.837,429.600,114.800,39.540,17.670,easy
848.000,304.500,99.390,35.410,849.100,246.800,86.620,29.800,246.300,61.150,21.260,8.838,430.200,114.900,39.400,17.680,easy
850.600,302.700,99.370,35.460,851.800,246.900,86.870,29.840,242.200,61.190,21.160,8.815,431.400,114.300,39.340,17.670,easy
849.700,303.600,99.230,35.430,849.500,247.800,86.490,29.860,243.600,61.260,21.210,8.823,430.400,114.600,39.470,17.670,easy
853.300,302.700,99.290,35.610,849.200,247.200,86.880,29.880,244.200,61.230,21.280,8.835,431.600,115.200,39.540,17.780,easy
854.000,304.700,99.120,35.600,850.500,247.500,86.890,29.840,244.200,61.330,21.240,8.831,431.900,115.000,39.560,17.770,easy
851.500,303.600,99.560,35.570,846.500,248.900,87.260,29.890,244.600,61.620,21.300,8.862,434.400,115.400,39.790,17.810,easy
857.300,305.600,100.100,35.670,849.600,247.100,86.690,29.880,244.200,61.540,21.340,8.897,434.700,116.100,39.890,17.900,easy
855.800,304.200,100.500,35.670,848.800,247.800,86.850,29.860,244.800,61.670,21.380,8.869,437.600,116.500,40.210,17.920,easy
860.000,305.200,100.000,35.760,851.100,247.500,87.380,30.020,248.100,61.590,21.410,8.897,438.700,117.200,40.380,18.000,easy
854.400,307.500,100.200,35.880,855.300,249.200,87.260,30.050,246.500,61.860,21.460,8.938,441.300,117.100,40.340,18.090,easy
858.800,307.500,100.700,36.030,854.900,249.400,87.420,30.040,246.700,61.950,21.460,8.977,441.800,117.500,40.570,18.150,easy
864.500,308.700,101.300,36.010,855.000,249.000,87.340,29.920,246.900,62.180,21.500,8.933,444.600,117.800,40.480,18.060,easy
859.700,305.300,99.660,35.550,851.000,246.900,86.840,29.670,246.700,61.840,21.340,8.881,437.200,116.500,39.910,17.720,easy
857.700,304.700,99.260,35.460,850.200,247.000,86.640,29.700,244.600,61.500,21.330,8.869,434.100,115.500,39.610,17.730,easy
852.300,303.000,99.130,35.340,846.600,246.600,86.490,29.770,247.000,61.420,21.330,8.863,432.600,115.200,39.470,17.660,easy
853.000,301.600,99.250,35.320,848.300,247.200,86.710,29.770,244.000,61.260,21.250,8.872,429.100,114.700,39.520,17.600,easy
850.300,303.900,98.730,35.470,847.100,247.600,86.400,29.790,243.600,61.250,21.220,8.856,428.900,114.600,39.360,17.570,easy
849.300,304.000,99.020,35.220,843.200,246.900,86.250,29.870,244.700,61.460,21.310,8.834,430.700,114.400,39.510,17.630,easy
846.000,301.900,99.010,35.440,844.200,246.900,86.840,29.830,244.700,61.460,21.280,8.834,430.600,115.200,39.500,17.660,easy
848.200,305.300,99.140,35.490,848.100,245.900,86.520,29.790,246.200,61.480,21.290,8.834,432.300,115.500,39.510,17.760,easy
844.100,304.400,99.780,35.420,847.500,247.300,86.650,29.820,245.000,61.470,21.230,8.837,433.300,115.500,39.800,17.760,easy
851.700,304.400,99.240,35.590,846.200,246.600,86.670,29.830,245.000,61.550,21.400,8.835,434.700,115.700,39.670,17.780,easy
855.100,304.400,99.820,35.500,848.100,246.700,86.600,29.810,246.200,61.520,21.330,8.902,436.200,116.200,39.920,17.830,easy
850.400,305.500,99.900,35.650,848.900,247.700,87.070,29.890,246.000,61.760,21.410,8.906,438.500,116.300,40.040,17.930,easy
857.200,307.000,100.200,35.790,850.800,247.400,86.990,29.960,247.500,61.770,21.500,8.913,439.200,117.000,40.260,17.990,easy
858.100,306.100,100.800,35.890,854.400,248.400,87.290,29.940,246.100,61.990,21.470,8.924,441.800,117.800,40.610,18.080,easy
861.200,307.600,100.500,36.030,854.600,248.200,87.020,29.950,247.400,62.010,21.560,8.976,443.900,118.100,40.600,18.190,easy
860.800,309.300,100.700,35.800,850.500,247.600,86.550,29.720,246.300,62.080,21.460,8.932,442.400,117.400,40.130,17.860,easy
853.100,304.000,99.360,35.410,844.200,246.600,86.250,29.680,247.400,61.650,21.420,8.891,435.300,116.300,39.590,17.710,easy
849.400,303.100,98.740,35.320,844.200,245.400,86.440,29.670,246.700,61.490,21.340,8.897,434.200,115.200,39.620,17.670,easy
847.400,302.700,98.780,35.140,843.900,246.200,86.300,29.680,246.800,61.430,21.260,8.814,431.400,114.800,39.390,17.630,easy
846.900,303.100,99.010,35.240,845.100,246.500,86.300,29.690,245.800,61.420,21.200,8.821,430.900,114.600,39.440,17.590,easy
849.400,301.400,98.610,35.220,846.100,246.400,86.070,29.800,243.700,61.470,21.230,8.840,431.000,114.500,39.210,17.580,easy
843.900,301.800,99.040,35.390,841.000,245.400,86.170,29.780,243.100,61.220,21.230,8.823,430.200,114.800,39.470,17.640,easy
843.200,301.500,99.010,35.330,840.400,246.200,86.190,29.740,244.700,61.470,21.240,8.860,432.000,115.200,39.460,17.620,easy
848.900,301.600,99.010,35.440,846.300,245.400,86.380,29.740,243.500,61.460,21.280,8.850,432.300,115.200,39.680,17.720,easy
844.600,302.200,99.150,35.260,845.600,245.900,86.390,29.740,245.000,61.440,21.270,8.850,434.500,115.200,39.530,17.790,easy
846.500,305.000,99.510,35.420,846.600,246.900,86.590,29.790,245.400,61.690,21.280,8.900,434.900,115.900,39.780,17.810,easy
847.300,304.000,99.530,35.490,843.100,245.900,86.650,29.820,247.000,61.700,21.390,8.910,436.700,116.100,39.900,17.870,easy
853.400,304.600,99.740,35.630,844.700,247.100,86.790,29.860,244.600,61.670,21.440,8.892,436.800,116.800,40.040,17.970,easy
853.900,305.800,99.840,35.780,852.400,246.900,86.880,29.880,247.800,62.080,21.470,8.950,439.600,116.900,40.440,18.040,easy
858.300,305.500,99.670,35.660,844.600,245.900,86.370,29.710,248.600,61.980,21.460,8.908,439.100,116.200,39.850,17.760,easy
843.300,303.300,99.300,35.260,844.500,245.800,85.810,29.650,245.800,61.570,21.320,8.844,433.100,115.300,39.440,17.660,easy
848.100,302.200,98.730,35.180,848.400,245.600,86.410,29.680,245.500,61.640,21.270,8.851,431.500,114.800,39.500,17.630,easy
846.800,302.300,98.820,35.240,841.700,245.700,86.160,29.700,245.100,61.550,21.260,8.865,430.400,114.700,39.420,17.620,easy
842.600,302.700,99.040,35.260,841.900,245.700,86.010,29.680,243.900,61.420,21.320,8.835,430.300,114.700,39.430,17.600,easy
844.100,301.900,98.720,35.130,845.700,244.700,86.200,29.730,245.900,61.460,21.270,8.849,431.200,114.600,39.380,17.650,easy
846.300,300.100,98.990,35.180,839.800,245.800,86.090,29.700,246.100,61.470,21.290,8.851,432.300,114.900,39.550,17.670,easy
843.800,301.900,99.070,35.320,845.900,245.900,86.400,29.740,244.600,61.620,21.340,8.874,433.000,115.000,39.610,17.740,easy
846.500,302.300,98.730,35.340,847.200,246.300,86.390,29.780,246.100,61.630,21.330,8.900,434.400,115.500,39.750,17.740,easy
852.900,304.000,98.880,35.410,847.200,245.200,86.470,29.770,246.900,61.590,21.400,8.907,435.600,115.700,39.670,17.820,easy
851.800,303.800,99.460,35.470,846.500,246.700,86.300,29.830,244.800,61.560,21.350,8.902,437.000,116.200,39.850,17.820,easy
851.900,303.400,99.570,35.570,848.100,246.200,87.000,29.810,244.200,61.910,21.390,8.922,439.000,116.700,40.180,18.000,easy
854.400,304.900,99.970,35.690,849.000,245.900,86.970,29.850,247.200,62.090,21.550,8.979,440.500,116.900,40.490,18.070,easy
855.000,307.200,99.840,35.750,850.500,247.100,86.890,29.880,247.500,62.310,21.540,8.971,442.100,117.900,40.590,18.110,easy
861.300,308.200,100.300,35.730,850.000,246.600,86.540,29.710,248.000,62.120,21.530,9.001,441.900,117.600,40.270,17.920,easy
849.800,303.000,99.110,35.160,843.200,245.700,86.270,29.670,246.700,61.920,21.420,8.917,435.800,115.200,39.630,17.720,easy
845.000,302.400,99.030,35.190,846.700,245.400,86.100,29.670,244.800,61.760,21.360,8.849,433.300,114.700,39.500,17.660,easy
845.100,301.300,98.600,35.120,843.600,244.900,85.890,29.590,245.900,61.740,21.360,8.828,432.000,114.500,39.270,17.600,easy
842.500,302.200,98.460,35.210,846.400,244.800,85.980,29.670,244.600,61.480,21.390,8.861,431.000,114.800,39.210,17.530,easy
841.800,302.200,98.460,35.020,840.300,245.000,86.100,29.610,244.200,61.520,21.280,8.850,429.100,114.700,39.370,17.590,easy
839.800,300.600,98.140,35.180,841.700,245.900,85.990,29.700,244.600,61.370,21.240,8.836,429.500,114.300,39.330,17.640,easy
839.500,300.600,98.220,35.170,835.100,245.400,86.280,29.640,243.100,61.380,21.310,8.873,430.400,114.300,39.400,17.580,easy
841.200,301.900,98.600,35.220,841.300,244.800,86.400,29.720,245.000,61.540,21.290,8.873,432.500,114.900,39.720,17.670,easy
839.200,301.500,98.710,35.190,842.200,245.200,86.280,29.680,247.600,61.630,21.330,8.897,432.700,115.400,39.490,17.700,easy
839.900,302.100,98.720,35.290,843.100,245.600,86.300,29.710,244.000,61.810,21.420,8.893,434.600,115.500,39.880,17.760,easy
847.800,303.400,99.280,35.330,843.500,245.700,86.380,29.790,245.300,61.760,21.400,8.892,436.500,115.900,39.800,17.840,easy
844.200,303.800,99.350,35.530,846.100,245.400,86.410,29.820,247.000,61.870,21.490,8.932,437.200,116.900,40.030,17.960,easy
849.900,304.800,99.820,35.570,848.500,245.800,86.520,29.820,247.100,61.990,21.530,8.924,438.700,117.000,40.240,18.050,easy
850.000,304.200,100.000,35.720,847.100,247.900,86.970,29.880,246.400,62.080,21.570,8.960,440.100,117.500,40.360,18.060,easy
855.800,306.500,99.920,35.870,851.000,247.100,86.900,29.830,246.400,62.160,21.560,9.002,442.400,118.500,40.550,18.120,easy
858.100,304.500,99.310,35.400,845.200,245.700,85.890,29.640,247.800,62.070,21.500,8.881,437.900,116.200,39.890,17.780,easy
843.800,302.500,98.620,35.150,849.400,245.000,85.930,29.630,247.600,61.860,21.430,8.910,434.500,115.300,39.600,17.710,easy
842.900,301.400,98.710,35.130,843.100,245.400,85.790,29.600,244.800,61.650,21.420,8.863,433.100,114.700,39.470,17.660,easy
842.500,301.100,98.280,35.170,845.500,245.600,86.020,29.540,244.000,61.390,21.380,8.869,431.600,115.300,39.410,17.600,easy
843.900,301.400,98.360,35.220,841.800,245.200,85.700,29.640,243.800,61.540,21.340,8.849,429.900,114.600,39.330,17.620,easy
838.800,301.400,98.700,35.070,842.200,244.500,85.780,29.660,242.300,61.500,21.390,8.895,430.500,114.500,39.370,17.680,easy
839.100,301.000,98.560,35.170,838.700,244.300,86.080,29.620,246.200,61.390,21.250,8.833,431.300,115.000,39.470,17.670,easy
841.400,301.700,98.810,35.280,842.200,244.600,85.980,29.620,244.900,61.580,21.310,8.886,431.000,115.300,39.530,17.720,easy
847.500,301.100,98.770,35.300,843.400,245.500,86.140,29.680,246.200,61.540,21.310,8.884,433.800,115.200,39.710,17.730,easy
846.500,302.800,98.550,35.210,842.700,245.700,86.550,29.640,243.700,61.480,21.420,8.837,434.000,115.900,39.840,17.800,easy
844.900,301.700,98.910,35.310,844.900,246.200,86.090,29.690,245.000,61.730,21.380,8.890,435.600,116.000,39.930,17.890,easy
847.200,303.300,99.040,35.500,844.700,246.200,86.260,29.810,243.200,61.930,21.370,8.930,436.300,116.500,40.000,17.910,easy
847.000,303.400,99.260,35.530,848.600,246.800,86.490,29.780,246.400,61.880,21.460,8.961,437.500,117.400,40.310,18.020,easy
850.800,304.200,99.570,35.720,847.800,246.100,86.300,29.690,246.200,62.020,21.530,8.933,439.700,117.500,40.130,17.880,easy
850.900,302.900,98.850,35.170,841.700,245.700,85.880,29.550,245.800,61.850,21.430,8.883,432.800,115.400,39.580,17.730,easy
838.300,301.000,98.390,35.120,840.900,245.900,85.460,29.590,246.000,61.610,21.290,8.860,432.000,115.100,39.440,17.710,easy
841.200,300.900,98.180,35.010,841.500,245.100,85.830,29.610,246.300,61.580,21.310,8.811,430.800,115.100,39.570,17.720,easy
839.400,299.800,98.170,34.980,843.400,244.500,86.050,29.630,244.200,61.480,21.300,8.868,430.700,114.700,39.680,17.710,easy
840.500,300.800,98.580,35.150,839.300,245.400,86.170,29.710,243.400,61.300,21.330,8.846,428.900,114.400,39.520,17.610,easy
840.900,301.600,98.560,35.160,840.000,243.700,86.110,29.720,244.600,61.540,21.360,8.877,431.300,114.700,39.490,17.740,easy
840.500,299.300,98.570,35.240,841.600,245.800,86.230,29.670,243.600,61.270,21.290,8.894,432.300,115.000,39.550,17.790,easy
842.400,300.900,99.160,35.200,843.500,246.000,86.210,29.680,245.100,61.310,21.410,8.881,432.800,115.500,39.830,17.850,easy
845.800,301.700,98.960,35.350,841.900,244.800,86.120,29.770,247.000,61.520,21.390,8.898,433.900,115.700,39.790,17.900,easy
842.500,302.000,98.750,35.320,844.000,245.600,86.380,29.730,245.500,61.780,21.340,8.947,435.400,116.200,40.010,17.880,easy
845.000,302.100,98.960,35.410,841.100,245.800,86.460,29.770,246.000,61.760,21.470,8.939,436.700,116.800,40.130,18.030,easy
850.100,302.900,99.320,35.540,847.500,245.800,86.550,29.840,246.500,61.920,21.490,8.983,438.800,117.200,40.430,18.050,easy
852.200,305.000,99.620,35.600,843.500,246.600,86.530,29.860,245.400,62.010,21.500,8.988,440.300,117.700,40.640,18.100,easy
851.700,306.800,99.830,35.690,850.300,247.600,86.980,29.820,248.900,62.260,21.580,8.977,442.300,117.500,40.580,18.140,easy
847.100,303.400,99.470,35.390,843.900,246.400,86.110,29.630,250.300,62.180,21.460,8.948,436.900,116.500,40.020,17.850,easy
844.600,302.700,98.320,35.050,837.300,245.800,86.030,29.630,243.700,61.790,21.430,8.871,432.500,115.400,39.610,17.770,easy
833.600,299.900,98.040,35.140,836.700,245.800,86.300,29.720,244.800,61.310,21.300,8.880,431.500,115.100,39.520,17.760,bogus
835.700,301.600,98.610,35.200,843.900,245.400,86.340,29.680,243.900,61.390,21.330,8.857,432.000,115.300,39.740,17.810,bogus
843.600,302.200,98.530,35.230,841.200,244.900,86.430,29.680,245.700,61.620,21.340,8.888,432.300,115.200,39.710,17.870,bogus
844.100,300.700,98.650,35.420,840.600,245.300,86.400,29.750,246.800,61.520,21.350,8.889,434.900,115.900,39.990,17.950,bogus
841.500,302.600,98.830,35.340,839.400,246.800,86.410,29.810,246.700,61.810,21.410,8.894,435.400,116.700,40.180,17.980,bogus
836.100,301.800,97.780,34.690,844.100,245.000,86.030,29.640,247.000,62.060,21.410,8.932,432.300,114.700,39.330,17.520,easy
832.800,297.600,97.040,34.530,837.300,244.300,85.760,29.730,245.700,61.720,21.380,8.888,430.500,114.000,39.100,17.440,easy
829.100,297.000,97.170,34.400,837.800,243.600,85.900,29.680,244.500,61.530,21.350,8.857,429.000,113.500,38.880,17.430,easy
831.200,298.300,97.100,34.550,835.800,245.500,85.750,29.740,244.200,61.310,21.330,8.903,427.900,113.900,38.780,17.360,easy
825.600,296.700,96.950,34.500,835.800,243.800,86.030,29.710,242.200,61.430,21.280,8.857,428.400,113.500,38.810,17.370,easy
830.100,297.100,96.900,34.470,837.400,242.300,86.050,29.720,244.900,61.120,21.290,8.841,425.500,113.400,38.830,17.390,easy
828.900,297.900,97.020,34.540,836.500,244.800,85.680,29.710,243.500,61.150,21.310,8.851,428.900,113.400,38.910,17.440,easy
828.900,296.400,97.160,34.540,830.400,243.900,85.990,29.680,243.400,61.460,21.320,8.860,427.200,114.000,39.100,17.470,easy
826.200,297.500,97.660,34.710,838.600,245.300,86.120,29.720,244.600,61.510,21.360,8.881,429.800,114.300,39.330,17.490,easy
828.300,297.200,97.450,34.730,834.700,245.100,86.240,29.750,244.500,61.570,21.430,8.893,431.200,115.000,39.290,17.610,easy
832.100,298.900,97.760,34.820,839.700,245.400,86.180,29.830,243.000,61.660,21.480,8.934,432.200,114.700,39.400,17.630,easy
836.700,298.500,97.830,34.800,839.200,246.600,86.420,29.920,245.100,61.610,21.470,8.937,433.300,115.500,39.510,17.740,easy
839.500,299.600,97.880,34.820,843.600,245.600,86.110,29.830,247.000,61.930,21.470,8.962,436.700,115.300,39.840,17.810,easy
836.700,301.400,97.920,34.900,840.200,244.400,86.500,29.830,245.700,62.000,21.550,8.948,437.100,116.400,39.830,17.850,easy
839.000,301.300,98.510,34.950,842.300,245.300,86.390,29.740,247.100,62.100,21.500,8.917,438.300,116.400,39.640,17.650,easy
839.500,298.700,97.330,34.420,836.900,244.700,85.670,29.610,247.600,61.680,21.330,8.792,431.900,114.400,38.800,17.300,easy
823.700,296.300,96.740,34.290,836.500,244.800,85.940,29.510,244.100,61.460,21.210,8.788,428.400,113.800,38.700,17.330,easy
832.600,296.000,96.530,34.290,838.400,244.000,85.590,29.630,242.700,61.340,21.250,8.819,427.200,113.700,38.620,17.320,easy
823.300,296.000,96.440,34.260,833.500,242.700,85.980,29.670,243.500,61.080,21.260,8.821,426.000,112.900,38.740,17.290,easy
823.300,294.800,96.630,34.340,831.800,242.600,85.890,29.600,245.000,61.440,21.220,8.831,425.300,112.900,38.600,17.260,easy
820.200,295.600,96.430,34.320,837.300,242.000,85.510,29.610,241.700,61.150,21.230,8.805,425.800,113.200,38.560,17.340,easy
825.600,295.400,96.530,34.470,831.300,243.900,85.540,29.700,243.900,61.290,21.170,8.832,426.400,113.000,38.670,17.360,easy
827.800,296.800,96.440,34.340,834.800,244.000,85.690,29.630,243.700,61.280,21.190,8.842,428.100,113.300,38.750,17.370,easy
824.000,296.500,96.840,34.540,836.300,244.400,85.680,29.720,244.200,61.290,21.280,8.851,428.900,113.900,39.020,17.400,easy
824.700,297.700,97.270,34.520,835.900,244.100,85.830,29.730,243.800,61.250,21.260,8.843,430.800,114.200,39.110,17.430,easy
827.900,298.000,97.230,34.600,838.500,244.400,85.900,29.780,243.900,61.530,21.410,8.863,431.700,114.700,39.120,17.490,easy
827.100,298.500,97.630,34.800,837.700,244.700,86.230,29.750,244.200,61.550,21.380,8.873,431.700,115.100,39.380,17.620,easy
834.400,298.300,97.800,34.860,840.400,245.200,86.380,29.820,244.900,61.700,21.410,8.898,435.100,115.600,39.590,17.670,easy
837.500,299.300,97.430,34.860,844.700,244.900,86.400,29.880,245.800,61.870,21.480,8.954,437.900,115.600,39.670,17.720,easy
839.200,299.900,97.990,34.940,844.200,245.100,86.060,29.650,244.700,61.840,21.530,8.914,436.900,115.400,39.350,17.570,easy
832.900,297.300,97.230,34.410,837.700,243.800,85.630,29.630,243.300,61.530,21.390,8.865,429.900,114.200,38.810,17.370,easy
826.100,294.900,96.740,34.460,841.500,243.900,85.880,29.680,240.900,61.490,21.310,8.855,428.100,113.500,38.780,17.410,easy
829.000,295.300,96.480,34.320,838.800,243.900,85.420,29.660,244.800,61.350,21.250,8.855,427.600,113.500,38.760,17.310,easy
823.000,296.300,96.610,34.370,833.500,244.100,85.900,29.660,242.000,61.330,21.310,8.827,427.600,113.600,38.760,17.350,easy
821.600,294.900,96.510,34.370,835.100,243.900,85.680,29.690,241.300,61.220,21.340,8.834,426.300,113.100,38.720,17.250,easy
818.300,295.000,96.630,34.450,836.000,242.400,85.860,29.640,242.500,61.390,21.210,8.814,427.700,113.400,38.730,17.400,easy
822.300,294.100,96.770,34.280,834.500,242.900,85.660,29.740,242.300,61.220,21.240,8.854,426.400,113.200,38.770,17.360,easy
827.200,294.300,96.520,34.340,833.500,243.600,85.720,29.660,244.300,61.330,21.280,8.875,427.900,114.000,38.910,17.420,easy
822.000,296.000,96.780,34.530,839.600,243.400,85.910,29.690,243.700,61.080,21.270,8.892,428.800,113.800,39.090,17.510,easy
824.500,295.500,96.940,34.500,835.800,243.300,86.060,29.710,243.000,61.240,21.410,8.871,430.700,114.200,39.150,17.540,easy
829.200,297.000,97.370,34.700,838.800,243.700,86.330,29.780,244.900,61.460,21.370,8.921,432.300,114.600,39.500,17.620,easy
832.300,297.500,97.310,34.730,839.500,244.200,85.820,29.630,246.100,61.600,21.480,8.917,431.900,114.700,39.260,17.490,easy
823.300,295.200,96.670,34.240,833.400,242.400,85.610,29.670,245.000,61.380,21.330,8.835,426.700,113.300,38.860,17.380,easy
819.000,294.700,96.390,34.340,834.700,242.500,85.370,29.600,244.000,61.050,21.290,8.846,425.200,112.900,38.660,17.220,easy
816.400,293.700,95.870,34.220,831.200,241.900,85.300,29.530,244.100,60.950,21.180,8.801,423.100,112.500,38.590,17.210,easy
814.500,293.300,96.260,34.180,826.800,243.300,85.090,29.570,240.900,61.120,21.160,8.785,423.700,112.500,38.430,17.230,easy
819.000,292.100,95.640,34.080,828.500,241.700,85.130,29.520,241.600,60.590,21.150,8.806,422.700,112.100,38.450,17.250,easy
809.700,291.700,95.940,34.130,829.300,241.900,85.140,29.500,242.000,61.030,21.160,8.786,423.000,112.400,38.590,17.230,easy
816.900,292.400,96.060,34.200,833.900,241.200,85.500,29.650,242.800,61.010,21.140,8.806,424.200,112.700,38.690,17.410,easy
818.500,295.300,96.220,34.220,828.600,243.200,85.470,29.590,243.100,61.020,21.170,8.840,426.000,113.000,38.860,17.390,easy
818.600,294.100,96.230,34.380,830.600,243.400,85.670,29.710,242.900,61.060,21.160,8.854,426.400,113.600,38.960,17.450,easy
824.300,293.800,96.670,34.460,833.000,243.500,85.770,29.700,242.700,61.150,21.290,8.874,427.900,114.000,39.270,17.570,easy
825.200,297.200,96.800,34.500,835.300,243.500,85.980,29.800,244.100,61.440,21.360,8.915,430.800,114.300,39.490,17.670,easy
829.300,297.000,97.140,34.740,840.600,244.300,86.840,29.930,245.600,61.600,21.570,8.979,433.000,115.200,39.760,17.770,easy
830.800,297.900,97.890,34.830,836.600,245.700,87.140,29.960,245.300,61.840,21.580,8.991,434.900,115.400,39.840,17.880,easy
833.800,299.100,97.710,34.920,838.800,244.200,86.560,29.870,245.300,61.740,21.550,8.967,433.700,115.200,39.450,17.690,easy
826.300,296.300,97.030,34.510,836.200,243.800,86.010,29.720,243.000,61.710,21.410,8.902,426.400,113.900,39.130,17.470,easy
819.800,295.200,96.470,34.460,832.300,243.800,85.910,29.680,243.500,61.230,21.400,8.880,426.600,113.100,38.900,17.420,easy
822.800,294.100,96.440,34.250,834.900,243.500,85.910,29.770,243.700,61.080,21.260,8.827,423.800,112.900,38.640,17.330,easy
817.200,294.300,96.420,34.270,829.500,243.000,85.800,29.710,245.100,61.190,21.250,8.801,424.600,112.600,38.590,17.290,easy
820.600,292.500,96.260,34.220,830.200,242.500,85.710,29.660,242.500,60.910,21.260,8.825,422.300,112.200,38.670,17.310,easy
819.700,294.200,96.100,34.200,832.300,242.600,85.520,29.720,241.200,61.040,21.190,8.844,424.600,112.900,38.690,17.400,easy
823.900,293.000,96.240,34.380,833.100,243.100,85.720,29.660,242.600,61.040,21.260,8.845,424.800,113.100,38.840,17.420,easy
823.700,294.500,96.430,34.360,832.100,243.900,85.640,29.790,244.400,61.080,21.270,8.862,427.400,113.700,38.840,17.400,easy
822.000,294.300,96.500,34.500,837.600,244.100,85.870,29.740,241.600,60.950,21.320,8.867,426.400,113.600,39.260,17.580,easy
821.700,295.200,96.880,34.330,834.700,243.500,86.210,29.820,244.000,61.280,21.310,8.856,429.300,114.400,39.220,17.550,easy
822.500,296.400,96.890,34.590,835.100,243.700,86.380,29.790,245.600,61.340,21.390,8.897,431.700,115.100,39.550,17.690,easy
826.200,294.800,96.720,34.440,832.500,243.600,85.480,29.540,243.200,61.370,21.310,8.849,428.100,113.400,38.900,17.360,easy
814.900,294.400,96.340,34.180,831.400,242.600,85.520,29.570,243.800,60.850,21.150,8.790,423.500,112.900,38.800,17.340,easy
816.400,292.500,96.020,34.070,829.700,242.100,85.650,29.550,240.400,60.970,21.120,8.762,422.700,112.200,38.550,17.310,easy
812.700,292.700,96.130,34.070,829.000,242.100,85.370,29.580,240.400,60.690,21.070,8.756,422.000,112.200,38.540,17.240,easy
813.000,293.800,95.290,34.020,829.400,242.500,85.230,29.570,243.100,60.680,21.090,8.710,422.400,111.700,38.440,17.260,easy
813.900,292.900,95.790,34.040,832.100,243.400,85.260,29.530,241.700,60.600,21.120,8.797,422.200,112.000,38.460,17.210,easy
818.400,293.300,95.520,34.280,827.600,242.700,85.630,29.540,242.700,60.620,21.080,8.709,421.800,112.600,38.570,17.320,easy
815.300,293.700,96.020,34.140,830.700,243.400,86.090,29.590,242.600,60.890,21.110,8.784,423.900,112.700,38.650,17.450,easy
819.300,293.500,96.170,34.370,838.400,243.300,85.530,29.700,241.400,60.840,21.170,8.793,425.100,113.000,38.940,17.470,easy
817.700,294.600,96.620,34.390,836.800,243.800,85.830,29.720,241.600,60.720,21.170,8.824,426.400,113.900,39.010,17.500,easy
820.000,295.200,96.670,34.450,836.800,242.800,85.860,29.760,242.200,60.930,21.260,8.823,427.900,113.600,39.380,17.600,easy
824.600,295.000,97.070,34.520,837.600,245.200,86.540,29.820,242.700,61.220,21.270,8.836,429.700,114.500,39.560,17.740,easy
827.200,296.500,97.190,34.730,839.400,245.800,86.310,29.950,244.900,61.300,21.350,8.854,432.500,115.200,39.510,17.800,easy
834.800,297.400,97.430,34.790,841.900,245.300,86.740,30.000,243.200,61.460,21.340,8.918,433.000,115.300,39.750,17.810,easy
836.100,299.900,97.810,34.940,841.200,246.400,86.410,29.940,244.800,61.570,21.460,8.929,434.700,116.200,39.810,17.810,easy
835.800,297.200,97.120,34.580,838.500,244.500,86.240,29.810,245.100,61.540,21.340,8.852,430.400,114.500,39.260,17.520,easy
827.300,295.100,96.700,34.540,840.700,244.800,85.990,29.770,242.600,61.230,21.200,8.844,426.400,113.700,39.250,17.530,easy
823.300,296.100,96.650,34.540,838.600,244.200,86.140,29.840,242.400,61.000,21.190,8.827,425.500,113.400,38.920,17.540,easy
824.700,295.900,96.910,34.470,837.500,244.000,86.030,29.750,241.900,60.870,21.070,8.819,425.900,113.300,38.910,17.500,easy
825.500,296.400,96.480,34.460,837.900,244.100,86.240,29.790,242.000,60.800,21.130,8.777,424.600,113.200,38.950,17.460,easy
825.100,296.200,96.610,34.460,836.300,244.600,86.370,29.870,242.300,61.050,21.140,8.777,424.600,113.300,38.900,17.480,easy
827.200,295.300,96.670,34.550,838.000,245.500,86.410,29.860,243.500,60.780,21.120,8.785,425.600,113.500,38.990,17.530,easy
825.000,296.000,96.800,34.640,836.100,244.600,86.360,29.840,244.400,60.950,21.200,8.792,424.700,113.400,39.140,17.570,easy
827.400,295.900,97.140,34.640,839.500,245.100,86.240,29.850,241.600,60.980,21.140,8.790,426.700,114.400,39.230,17.670,easy
826.000,296.300,97.080,34.710,840.800,245.100,86.340,29.890,245.600,61.130,21.240,8.826,428.100,114.300,39.510,17.620,easy
822.500,297.100,97.190,34.810,838.800,245.200,86.820,29.920,242.500,61.100,21.270,8.857,429.500,114.900,39.500,17.760,easy
833.100,298.200,97.700,34.770,842.700,245.300,86.540,29.900,241.600,61.240,21.320,8.862,429.500,115.100,39.530,17.690,easy
829.900,296.000,96.960,34.530,835.700,244.400,86.230,29.800,243.000,61.130,21.180,8.803,426.300,113.300,39.030,17.490,easy
822.700,294.500,96.770,34.500,835.600,244.800,85.970,29.790,242.400,60.770,21.080,8.769,423.500,112.700,38.920,17.440,easy
824.100,294.100,96.830,34.410,835.800,244.200,86.030,29.670,243.600,60.670,21.030,8.726,421.900,112.500,38.700,17.400,easy
823.800,294.000,96.520,34.390,836.100,243.200,86.000,29.700,242.700,60.630,21.110,8.753,422.300,112.600,38.690,17.370,easy
819.400,294.600,96.570,34.360,833.400,243.400,85.960,29.700,240.500,60.690,21.070,8.734,420.000,112.400,38.740,17.380,easy
823.300,294.100,96.440,34.590,838.200,243.400,85.880,29.780,241.400,60.480,20.970,8.776,420.900,112.000,38.770,17.370,easy
825.100,295.400,96.580,34.490,830.000,243.800,85.960,29.780,241.600,60.630,21.010,8.753,422.200,113.000,38.850,17.450,easy
824.900,294.900,96.520,34.490,833.500,243.200,86.120,29.810,242.900,60.750,21.150,8.788,424.300,113.100,38.950,17.430,easy
823.100,295.600,96.850,34.580,835.400,244.100,86.170,29.800,244.000,60.820,21.130,8.812,425.600,113.300,39.060,17.520,easy
829.600,295.600,97.020,34.710,835.900,244.400,86.240,29.820,242.900,60.950,21.170,8.821,425.800,113.600,39.120,17.530,easy
824.900,297.800,97.660,34.800,840.900,245.100,86.310,29.900,242.400,60.990,21.240,8.830,428.700,113.700,39.260,17.660,easy
832.600,297.500,97.750,34.900,842.600,245.800,86.360,29.900,243.800,61.290,21.380,8.852,429.600,114.600,39.500,17.740,easy
832.100,298.800,97.890,35.030,845.200,245.300,86.940,29.960,243.800,61.240,21.350,8.857,432.000,115.000,39.820,17.820,easy
833.200,299.700,97.990,34.960,847.200,246.700,86.620,29.910,244.000,61.500,21.460,8.909,432.700,116.200,39.860,17.920,easy
838.900,298.500,97.440,34.830,841.500,245.200,86.010,29.710,246.300,61.450,21.310,8.891,429.500,114.700,39.250,17.580,easy
827.200,297.200,96.820,34.530,837.800,244.600,86.240,29.790,242.500,61.040,21.210,8.812,426.000,113.200,39.110,17.460,easy
824.400,295.300,96.590,34.440,836.700,243.900,86.290,29.670,243.300,61.150,21.220,8.792,423.200,112.700,38.750,17.360,easy
817.100,295.400,96.440,34.390,835.400,244.400,85.890,29.720,241.000,60.860,21.120,8.778,421.300,112.500,38.790,17.320,easy
827.200,294.900,96.180,34.480,838.200,243.300,85.750,29.720,241.900,60.720,21.120,8.763,422.000,112.200,38.730,17.370,easy
821.400,295.500,96.770,34.460,838.800,244.700,85.980,29.710,240.000,60.600,21.040,8.771,422.200,112.400,38.580,17.300,easy
820.100,294.400,96.650,34.460,839.700,243.800,85.920,29.740,241.200,60.810,21.140,8.772,421.600,112.900,38.710,17.340,easy
823.500,294.800,96.780,34.530,837.800,245.000,85.920,29.710,241.300,60.680,21.110,8.775,424.200,112.900,38.970,17.400,easy
824.900,295.600,96.970,34.570,837.600,243.400,86.090,29.830,241.700,61.010,21.210,8.846,425.200,113.300,39.060,17.510,easy
820.700,295.800,96.980,34.690,838.500,244.200,86.380,29.800,243.000,61.160,21.170,8.824,425.700,113.400,39.120,17.520,easy
829.100,295.400,97.190,34.670,836.700,244.300,86.300,29.870,242.900,61.040,21.260,8.860,428.300,114.000,39.450,17.610,easy
832.000,297.600,97.790,34.780,843.200,245.400,86.280,29.860,242.500,61.300,21.320,8.859,429.300,114.800,39.480,17.670,easy
831.300,297.400,97.500,34.890,847.600,245.400,86.690,29.950,243.400,61.350,21.380,8.878,431.200,114.900,39.740,17.790,easy
830.400,299.700,98.150,34.940,846.700,246.600,86.600,29.850,245.500,61.660,21.350,8.913,432.600,115.300,39.930,17.820,easy
839.700,300.400,98.230,35.160,850.700,247.500,86.970,29.880,243.100,61.590,21.400,8.911,434.700,116.100,39.980,17.870,easy
834.600,298.900,97.940,34.680,840.800,245.100,86.390,29.740,245.000,61.670,21.410,8.890,431.300,114.600,39.420,17.620,easy
830.500,297.000,97.500,34.680,841.700,244.900,86.180,29.760,245.500,61.310,21.260,8.849,428.300,113.800,39.250,17.590,easy
824.000,296.900,96.860,34.440,839.100,245.900,86.300,29.740,243.900,61.220,21.300,8.824,424.900,113.300,39.150,17.520,easy
827.400,296.200,97.130,34.690,841.000,245.000,86.660,29.790,244.000,61.310,21.280,8.831,424.900,113.400,39.170,17.400,easy
828.100,296.600,97.290,34.610,841.600,245.900,85.950,29.780,244.200,61.170,21.230,8.841,424.300,113.500,38.910,17.460,easy
827.700,297.100,96.830,34.650,836.800,243.900,85.890,29.800,242.800,60.960,21.240,8.804,425.900,113.000,39.060,17.510,easy
824.900,296.400,97.130,34.530,842.100,245.000,86.390,29.840,244.100,61.190,21.240,8.820,424.600,113.500,39.000,17.510,easy
831.200,296.800,97.140,34.620,842.500,244.900,86.180,29.840,241.300,60.920,21.280,8.841,425.400,113.800,39.160,17.540,easy
830.400,297.400,97.330,34.740,839.600,244.700,86.550,29.830,241.200,61.230,21.240,8.853,424.700,113.800,39.300,17.640,easy
827.200,298.600,97.500,34.730,841.900,245.200,86.700,29.860,243.700,61.340,21.250,8.853,427.900,114.500,39.540,17.600,easy
830.200,298.300,97.710,34.830,839.700,245.900,86.420,29.850,242.300,61.160,21.350,8.886,428.200,115.100,39.460,17.720,easy
838.500,299.400,97.650,34.940,841.900,246.200,86.560,29.860,245.100,61.500,21.330,8.893,431.000,115.200,39.540,17.790,easy
836.400,298.200,97.590,34.790,843.900,246.200,86.300,29.760,246.700,61.560,21.370,8.903,430.800,115.100,39.440,17.620,easy
824.000,296.800,97.210,34.600,839.900,244.000,86.110,29.720,243.100,61.210,21.330,8.836,425.000,113.900,38.950,17.450,easy
826.200,297.600,97.040,34.620,840.400,244.800,86.070,29.720,241.100,61.230,21.250,8.839,423.900,113.200,39.070,17.440,easy
822.200,295.400,97.240,34.450,837.000,244.700,86.040,29.640,240.000,61.240,21.210,8.816,423.400,112.300,38.850,17.420,easy
824.200,295.500,96.870,34.530,839.900,244.700,85.910,29.670,242.000,60.930,21.180,8.824,423.100,113.200,38.880,17.410,easy
825.300,295.100,96.760,34.400,836.900,244.100,86.130,29.680,239.600,60.960,21.230,8.822,422.700,113.200,38.970,17.470,easy
823.300,296.000,96.960,34.540,840.300,245.200,86.240,29.710,243.000,60.970,21.240,8.869,422.200,112.900,38.760,17.490,easy
826.800,296.200,97.230,34.490,838.300,245.200,86.280,29.770,243.900,61.040,21.250,8.849,425.000,113.200,39.090,17.560,easy
830.200,295.300,97.260,34.530,838.800,244.500,86.050,29.790,242.700,61.160,21.250,8.862,425.400,113.700,39.380,17.570,easy
828.200,296.500,97.000,34.770,838.900,245.400,86.270,29.830,244.600,61.160,21.290,8.875,427.700,113.900,39.390,17.650,easy
833.500,298.000,97.730,34.770,839.500,245.500,86.210,29.860,244.700,61.360,21.410,8.923,429.500,114.200,39.410,17.710,easy
826.700,297.700,97.530,34.850,844.100,246.600,86.360,29.860,242.900,61.560,21.440,8.920,429.800,115.000,39.690,17.790,easy
833.100,299.400,98.060,35.010,842.700,246.000,86.830,29.840,244.700,61.580,21.510,8.939,432.800,115.500,39.810,17.910,easy
834.800,300.800,98.040,35.040,846.000,246.600,86.790,29.980,243.900,61.670,21.450,8.940,434.100,115.900,40.210,17.920,easy
837.600,300.800,98.290,35.170,846.500,247.700,86.770,29.890,246.200,61.800,21.500,8.973,436.000,116.400,39.940,17.900,easy
835.800,298.000,97.520,34.660,842.100,245.800,86.410,29.710,245.200,61.660,21.420,8.887,430.400,114.200,39.390,17.610,easy
827.700,297.400,96.810,34.600,839.000,245.300,86.270,29.660,241.800,61.560,21.360,8.812,427.500,113.900,39.220,17.540,easy
825.800,296.900,96.690,34.490,838.600,243.700,86.300,29.640,245.000,61.260,21.330,8.843,425.700,113.100,39.140,17.460,easy
827.200,296.600,96.620,34.410,836.300,244.500,85.790,29.730,242.000,61.230,21.270,8.850,424.300,113.100,39.080,17.500,easy
825.600,295.900,96.790,34.540,839.000,244.700,86.300,29.770,243.100,61.210,21.280,8.828,423.800,112.900,39.060,17.490,easy
826.200,296.900,96.750,34.610,838.200,245.100,86.090,29.790,242.600,61.180,21.330,8.831,423.100,113.000,39.150,17.510,easy
823.000,295.900,97.270,34.610,841.900,245.200,86.060,29.820,243.200,61.310,21.330,8.869,424.300,113.700,39.270,17.500,easy
824.400,296.200,97.040,34.610,842.400,245.200,86.260,29.710,240.700,61.250,21.330,8.873,425.400,114.300,39.220,17.620,easy
826.100,298.100,97.470,34.600,839.400,245.700,86.430,29.800,244.200,61.240,21.300,8.869,428.500,114.300,39.510,17.650,easy
825.700,297.300,97.730,34.800,844.100,245.900,86.510,29.930,242.600,61.310,21.400,8.878,429.000,114.700,39.490,17.740,easy
828.700,297.700,97.910,34.920,840.400,245.800,86.410,29.850,246.400,61.560,21.410,8.909,431.700,114.700,39.660,17.820,easy
836.800,299.600,98.000,34.900,845.200,246.500,86.730,29.810,243.300,61.890,21.470,8.922,432.800,115.600,39.830,17.860,easy
836.500,300.500,97.980,34.970,846.300,246.200,87.140,29.940,247.200,61.770,21.500,8.927,433.100,116.300,40.110,17.900,easy
839.300,300.900,98.220,35.130,846.500,247.500,86.780,29.990,245.600,61.860,21.530,8.958,435.100,116.400,40.100,17.960,easy
839.300,303.100,98.500,35.280,848.800,247.000,87.110,29.960,245.800,61.940,21.540,8.957,437.600,116.700,40.270,18.000,easy
838.700,300.500,98.380,34.840,849.300,246.000,86.460,29.770,246.200,62.040,21.480,8.910,432.800,115.100,39.800,17.740,easy
835.800,298.000,97.370,34.680,843.100,245.000,86.490,29.660,245.000,61.490,21.340,8.873,428.700,114.900,39.490,17.700,easy
832.700,297.800,97.250,34.650,845.200,245.200,86.190,29.650,246.100,61.450,21.320,8.889,429.000,114.400,39.410,17.610,easy
831.500,297.400,97.330,34.610,839.200,245.200,86.140,29.750,243.700,61.450,21.320,8.860,426.600,114.300,39.320,17.590,easy
829.200,297.100,97.410,34.630,840.200,245.900,85.970,29.770,243.300,61.430,21.360,8.888,427.700,114.000,39.260,17.640,easy
832.300,297.000,97.210,34.640,842.100,245.800,86.060,29.790,242.900,61.280,21.290,8.866,427.400,114.300,39.470,17.660,easy
827.700,298.100,97.400,34.750,844.500,245.200,86.260,29.760,244.700,61.430,21.330,8.871,428.000,114.200,39.460,17.680,easy
830.800,298.000,97.470,34.750,841.000,244.600,86.120,29.810,243.700,61.360,21.400,8.886,428.300,114.300,39.480,17.750,easy
830.400,298.100,97.340,34.770,843.800,245.900,86.090,29.840,244.100,61.610,21.410,8.885,430.200,115.100,39.690,17.760,easy
833.700,299.100,97.470,34.810,845.300,245.500,86.660,29.810,244.600,61.540,21.380,8.900,431.900,115.100,39.840,17.820,easy
838.000,299.700,97.680,34.810,840.900,247.000,86.720,29.850,242.200,61.600,21.420,8.904,432.400,115.500,39.880,17.900,easy
840.600,301.000,98.080,34.980,843.800,245.800,86.720,29.830,245.000,61.740,21.440,8.901,434.600,116.000,40.070,17.940,easy
839.800,300.900,98.300,35.050,848.100,246.600,86.820,29.830,245.800,61.740,21.520,8.945,434.400,116.200,39.980,17.930,easy
837.700,299.900,97.740,34.800,840.500,245.000,85.940,29.700,246.000,61.810,21.410,8.900,431.700,115.200,39.650,17.720,easy
828.100,297.700,97.240,34.630,840.900,243.700,86.100,29.670,241.700,61.230,21.370,8.855,428.400,114.600,39.450,17.660,easy
835.100,296.900,96.980,34.600,842.900,243.800,85.900,29.580,241.500,61.230,21.280,8.862,426.500,114.000,39.330,17.610,easy
828.100,295.200,97.100,34.700,841.800,245.100,85.720,29.590,242.000,61.110,21.260,8.850,426.900,114.000,39.370,17.630,easy
826.000,296.800,96.750,34.480,843.200,245.400,85.730,29.630,242.000,61.200,21.320,8.843,426.600,113.500,39.120,17.620,easy
827.100,297.000,97.170,34.510,838.600,244.800,85.740,29.630,241.800,61.430,21.340,8.854,426.000,113.800,39.490,17.630,easy
830.200,297.200,96.840,34.580,837.400,243.800,86.160,29.670,243.000,61.260,21.230,8.844,426.600,114.100,39.450,17.700,easy
829.200,296.200,97.150,34.720,838.200,244.400,86.090,29.690,244.300,61.150,21.290,8.856,428.900,114.300,39.460,17.750,easy
832.700,297.400,97.490,34.830,843.400,245.000,86.250,29.710,242.900,61.300,21.290,8.889,430.100,114.600,39.610,17.660,easy
833.700,297.800,97.440,34.920,840.700,245.100,86.300,29.740,242.000,61.240,21.360,8.878,430.200,115.000,39.740,17.830,easy
832.800,297.500,97.770,34.830,839.100,245.400,86.410,29.790,243.400,61.380,21.370,8.901,432.400,115.300,39.900,17.890,easy
832.400,299.600,97.880,34.870,844.000,245.300,86.750,29.810,245.300,61.540,21.430,8.907,433.200,115.800,39.900,17.940,easy
836.900,302.600,98.220,35.080,846.900,247.100,87.020,29.960,244.100,61.830,21.480,8.923,434.600,116.300,40.250,17.980,easy
837.000,301.700,98.120,34.940,845.200,246.400,86.420,29.750,244.800,61.670,21.400,8.907,433.900,115.400,39.760,17.760,easy
834.500,297.200,97.470,34.550,836.000,245.300,86.250,29.590,243.900,61.360,21.260,8.837,429.000,114.200,39.350,17.650,easy
828.700,296.400,97.130,34.520,841.200,245.000,86.100,29.620,244.200,61.210,21.310,8.840,428.500,114.100,39.330,17.600,easy
833.300,295.300,96.750,34.450,836.500,244.100,85.980,29.650,242.900,61.230,21.280,8.862,425.400,113.300,39.140,17.590,easy
824.100,297.900,97.240,34.550,842.200,243.300,85.840,29.570,244.000,61.170,21.310,8.850,426.200,113.200,39.180,17.560,easy
830.400,296.700,97.020,34.410,837.500,243.700,85.860,29.700,242.000,61.270,21.270,8.846,425.200,113.800,39.230,17.590,easy
829.200,297.300,97.040,34.550,840.900,245.100,86.300,29.810,243.400,61.250,21.320,8.852,425.600,113.800,39.260,17.610,easy
829.400,296.200,97.230,34.620,833.900,245.700,86.250,29.780,243.500,61.350,21.290,8.855,427.100,114.100,39.420,17.710,easy
834.200,297.000,97.200,34.650,835.600,244.700,86.290,29.750,243.100,61.070,21.400,8.873,427.300,114.800,39.610,17.700,easy
832.900,297.600,97.140,34.690,838.800,245.200,86.270,29.680,243.800,61.370,21.320,8.875,428.000,114.900,39.730,17.690,easy
833.200,297.200,97.580,34.780,840.800,244.800,86.420,29.790,243.000,61.350,21.400,8.861,429.500,114.900,39.590,17.760,easy
832.900,297.700,97.870,34.870,843.600,245.400,86.450,29.870,243.300,61.510,21.330,8.921,432.100,115.600,39.690,17.910,easy
841.300,299.500,98.080,35.010,843.100,246.300,87.050,30.120,243.400,61.650,21.540,8.928,434.000,116.000,40.060,18.050,easy
836.900,300.900,99.250,35.590,845.500,247.500,88.140,30.530,246.700,62.010,21.830,9.144,435.100,117.200,40.630,18.330,easy
839.400,303.300,99.870,35.740,846.100,247.100,87.810,30.360,244.900,62.230,21.910,9.136,433.500,117.000,40.580,18.280,easy
840.200,301.700,99.220,35.330,845.500,246.300,87.100,30.100,246.600,61.990,21.680,9.020,432.700,115.700,39.860,17.890,easy
834.300,299.400,98.020,35.120,844.400,246.000,87.000,30.000,245.200,61.720,21.510,8.988,429.900,115.000,39.660,17.800,easy
827.000,298.300,97.980,34.810,844.100,245.700,86.590,29.850,242.200,61.620,21.470,8.964,427.200,114.200,39.420,17.710,easy
826.600,298.300,97.450,34.820,840.300,244.800,86.620,29.860,242.700,61.250,21.430,8.909,425.100,114.500,39.440,17.660,easy
828.000,297.900,97.380,34.750,842.600,245.100,86.620,29.910,244.000,61.390,21.380,8.939,425.600,113.900,39.300,17.670,easy
828.700,296.900,97.500,34.830,840.000,244.800,86.400,29.910,242.700,61.520,21.450,8.941,426.600,114.100,39.230,17.670,easy
824.700,297.400,97.690,34.790,842.700,245.400,86.640,29.890,244.500,61.460,21.430,8.934,425.300,114.100,39.360,17.760,easy
831.000,297.000,97.870,34.750,842.200,245.800,86.670,29.990,242.600,61.520,21.390,8.940,426.900,114.500,39.420,17.830,easy
825.100,298.000,97.630,34.850,843.300,245.600,86.690,29.920,244.000,61.500,21.480,8.956,426.700,114.400,39.630,17.800,easy
827.300,298.300,97.910,34.900,841.600,244.500,86.440,30.010,242.900,61.520,21.510,8.924,430.600,114.800,39.610,17.770,easy
832.600,298.200,98.040,34.920,839.900,244.100,86.580,29.990,241.800,61.550,21.510,8.952,430.400,115.200,39.760,17.910,easy
832.300,300.200,98.160,34.990,842.900,245.500,86.950,30.040,244.000,61.700,21.570,8.979,432.300,115.600,39.990,17.950,easy
836.600,300.300,98.430,35.150,841.600,246.600,86.480,30.000,245.100,61.690,21.600,8.987,433.500,116.100,40.020,17.970,easy
836.300,298.800,98.070,34.860,840.000,245.300,86.190,29.800,244.900,61.720,21.500,8.924,429.700,114.100,39.520,17.720,easy
829.900,297.200,97.300,34.690,838.600,245.700,86.320,29.820,242.900,61.450,21.490,8.918,427.200,113.600,39.350,17.640,easy
819.100,295.900,97.250,34.510,836.300,244.600,86.170,29.750,245.100,61.360,21.410,8.913,426.400,113.900,39.370,17.600,easy
823.500,296.600,97.280,34.660,838.800,243.500,86.050,29.720,242.900,61.340,21.410,8.912,424.800,113.700,39.150,17.670,easy
826.600,296.000,97.280,34.590,839.000,243.900,86.010,29.660,243.300,61.240,21.390,8.926,423.800,112.800,39.170,17.610,easy
823.800,297.800,97.100,34.630,836.200,243.400,85.940,29.750,244.800,61.390,21.420,8.913,425.300,113.100,39.340,17.620,easy
825.300,297.200,97.320,34.700,841.000,245.000,86.370,29.840,242.000,61.230,21.490,8.919,425.200,113.800,39.400,17.660,easy
825.200,296.600,97.390,34.790,842.200,243.400,86.060,29.740,243.100,61.490,21.410,8.940,427.000,114.200,39.470,17.740,easy
828.400,297.700,97.230,34.760,836.900,244.400,86.690,29.810,244.300,61.360,21.490,8.938,428.900,114.300,39.650,17.740,easy
831.000,297.200,97.530,34.910,839.200,244.900,86.410,29.840,243.200,61.460,21.470,8.962,428.400,114.400,39.710,17.810,easy
832.300,298.200,97.900,35.010,844.500,246.000,86.540,29.900,244.800,61.520,21.480,8.969,431.100,115.100,39.760,17.880,easy
830.000,299.900,98.020,35.020,845.600,245.700,86.860,29.910,243.900,61.820,21.630,8.968,432.900,115.500,39.990,17.930,easy
835.900,299.500,97.720,35.020,845.300,246.300,86.710,30.020,246.400,61.770,21.500,8.960,432.100,115.700,40.020,17.930,easy
827.300,300.800,98.580,35.260,847.900,247.000,87.070,29.950,242.800,61.980,21.540,9.013,435.100,116.300,40.130,18.050,easy
839.000,299.000,98.230,34.900,839.600,245.100,86.200,29.840,246.300,61.910,21.570,8.929,430.600,114.700,39.570,17.760,easy
833.200,297.800,97.090,34.690,838.100,244.100,86.000,29.720,244.200,61.540,21.400,8.902,426.700,114.200,39.390,17.620,easy
825.900,297.400,97.080,34.630,840.400,244.000,86.010,29.630,243.800,61.590,21.390,8.896,423.700,113.700,39.200,17.520,easy
825.000,294.700,96.960,34.530,838.300,244.400,85.630,29.650,244.200,61.520,21.370,8.881,424.400,113.400,39.060,17.540,easy
819.000,295.700,96.750,34.560,833.500,243.900,85.920,29.630,243.100,61.330,21.370,8.876,424.500,112.900,39.100,17.530,easy
824.200,294.600,96.650,34.470,834.300,243.300,85.820,29.640,243.200,61.180,21.380,8.906,423.400,113.600,39.220,17.490,easy
