A-DC1,A-DC2,A-DC3,A-DC4,A-DC5,A-DC6,A-DC7,A-DC8,B-DC1,B-DC2,B-DC3,B-DC4,B-DC5,B-DC6,B-DC7,B-DC8,condition
1150.000,295.300,94.690,27.910,1248.000,313.200,104.900,28.380,211.300,53.090,15.380,5.427,329.200,85.260,21.610,7.466,baseline
1148.000,296.400,95.560,27.940,1253.000,314.800,105.300,28.530,210.700,53.360,15.490,5.444,332.600,85.510,21.830,7.555,baseline
1145.000,299.700,96.150,28.280,1251.000,315.200,105.600,28.420,212.900,53.600,15.610,5.487,334.300,86.150,21.760,7.502,baseline
1142.000,294.800,94.250,27.490,1250.000,313.100,104.700,28.220,209.900,53.260,15.460,5.423,326.900,84.340,21.200,7.336,baseline
1142.000,293.300,94.150,27.450,1251.000,314.500,104.700,28.330,209.400,52.970,15.370,5.435,325.500,83.630,21.320,7.403,baseline
1148.000,295.700,94.560,27.740,1256.000,315.600,105.000,28.400,210.700,53.230,15.440,5.483,327.800,84.330,21.440,7.474,baseline
1137.000,295.800,94.370,27.660,1257.000,315.400,105.400,28.490,212.200,53.210,15.470,5.491,328.400,84.960,21.410,7.493,baseline
1142.000,297.500,94.520,27.740,1263.000,315.200,105.500,28.570,211.300,53.410,15.520,5.508,329.900,85.270,21.610,7.554,baseline
1150.000,297.200,94.930,27.900,1263.000,316.800,105.200,28.560,212.000,53.550,15.600,5.517,332.000,85.490,21.800,7.621,baseline
1146.000,296.300,95.200,27.550,1258.000,313.800,104.500,28.170,213.000,53.520,15.570,5.487,326.400,84.320,21.360,7.338,baseline
1131.000,293.600,93.090,27.230,1255.000,312.500,104.100,28.080,210.100,52.970,15.290,5.396,322.500,83.230,21.090,7.262,baseline
1133.000,292.500,92.940,27.250,1252.000,312.400,104.600,28.130,207.200,52.960,15.340,5.367,325.400,84.140,21.170,7.348,baseline
1143.000,292.800,92.700,27.230,1253.000,313.600,104.200,28.150,207.500,53.020,15.360,5.438,325.100,83.730,21.240,7.336,baseline
1137.000,292.600,93.080,27.250,1248.000,314.000,104.100,28.230,208.800,53.090,15.440,5.393,324.900,84.010,21.070,7.344,baseline
1140.000,295.700,93.650,27.430,1251.000,313.400,104.400,28.300,209.100,52.730,15.310,5.384,325.800,83.640,21.120,7.299,baseline
1147.000,295.500,94.550,27.820,1259.000,313.400,104.500,28.280,210.200,52.740,15.290,5.362,327.700,83.710,21.200,7.270,baseline
1136.000,291.600,93.120,27.100,1254.000,312.900,104.100,28.120,208.400,52.390,15.200,5.316,321.400,82.790,20.810,7.179,baseline
1135.000,292.400,92.960,27.070,1254.000,312.500,104.800,28.210,208.900,52.170,15.230,5.325,320.700,82.440,20.890,7.244,baseline
1137.000,292.700,93.740,27.210,1251.000,313.700,104.600,28.290,208.400,52.600,15.260,5.369,320.600,82.820,20.800,7.223,baseline
1135.000,293.400,93.510,27.270,1256.000,314.000,104.600,28.370,207.100,52.450,15.290,5.367,320.200,82.570,20.830,7.206,baseline
1143.000,294.400,93.410,27.450,1261.000,315.700,104.900,28.480,207.800,52.520,15.270,5.375,321.500,82.880,21.010,7.268,baseline
1147.000,295.400,94.370,27.520,1266.000,317.400,105.400,28.530,208.400,52.470,15.300,5.396,322.500,83.520,21.140,7.326,baseline
1157.000,297.600,94.860,27.770,1263.000,316.200,105.500,28.470,209.800,52.590,15.430,5.426,327.500,84.020,21.270,7.377,baseline
1146.000,293.700,93.620,27.340,1259.000,315.700,105.000,28.320,209.400,52.540,15.280,5.381,319.800,81.860,20.690,7.135,baseline
1144.000,293.500,92.970,27.050,1259.000,316.300,104.900,28.350,208.000,52.300,15.180,5.378,317.800,81.570,20.650,7.164,baseline
1144.000,294.000,93.060,27.180,1262.000,315.900,105.000,28.440,206.400,52.490,15.240,5.381,318.200,81.950,20.810,7.137,baseline
1146.000,294.700,93.060,27.140,1265.000,316.700,105.300,28.420,207.900,52.400,15.360,5.364,317.900,82.100,20.720,7.194,baseline
1148.000,296.000,93.640,27.240,1266.000,317.100,105.600,28.570,206.700,52.530,15.420,5.437,319.600,82.340,20.980,7.290,baseline
1152.000,297.300,94.030,27.420,1272.000,317.700,106.100,28.710,209.900,52.970,15.360,5.444,322.300,83.330,21.080,7.382,baseline
1152.000,297.700,94.630,27.690,1274.000,320.400,106.400,28.750,208.700,53.220,15.550,5.488,323.400,83.380,21.240,7.430,baseline
1157.000,299.400,94.900,27.900,1274.000,320.300,106.500,28.700,211.000,53.270,15.510,5.529,326.000,84.550,21.330,7.388,baseline
1156.000,297.300,93.850,27.310,1271.000,318.300,105.300,28.560,209.700,53.020,15.460,5.485,318.400,82.490,20.740,7.218,baseline
1157.000,296.700,93.170,27.180,1270.000,318.600,106.000,28.570,207.200,52.730,15.360,5.439,315.900,81.880,20.710,7.219,baseline
1151.000,295.900,93.560,27.240,1278.000,319.200,105.900,28.660,208.000,52.600,15.350,5.456,316.800,81.820,20.910,7.256,baseline
1151.000,295.800,93.630,27.300,1272.000,318.900,106.100,28.660,209.800,52.640,15.370,5.464,317.100,81.860,20.890,7.265,baseline
1159.000,296.100,93.700,27.260,1272.000,320.400,106.600,28.710,207.000,52.870,15.420,5.453,316.500,82.220,20.910,7.305,baseline
1155.000,296.600,94.230,27.620,1273.000,320.500,106.900,28.890,209.300,53.140,15.500,5.483,319.300,83.430,21.190,7.330,baseline
1170.000,301.300,95.010,27.810,1281.000,320.400,107.300,29.050,209.300,53.440,15.580,5.504,321.000,83.890,21.350,7.440,baseline
1165.000,301.900,95.910,28.150,1279.000,322.100,108.000,29.110,209.900,53.730,15.660,5.541,324.600,84.390,21.520,7.458,baseline
1173.000,303.100,96.330,28.270,1284.000,322.800,107.300,29.010,209.800,53.760,15.670,5.560,324.700,84.800,21.410,7.415,baseline
1170.000,300.100,94.930,27.600,1277.000,321.100,106.900,28.820,210.600,53.290,15.480,5.502,318.700,82.750,21.110,7.296,baseline
1168.000,299.300,94.980,27.520,1278.000,321.800,107.100,28.950,209.200,53.110,15.490,5.485,318.200,82.260,21.050,7.329,baseline
1165.000,300.300,95.020,27.640,1275.000,322.200,107.000,28.960,207.600,52.920,15.540,5.503,317.300,82.650,21.060,7.328,baseline
1168.000,301.100,95.050,27.630,1283.000,323.300,107.100,29.050,207.500,53.250,15.450,5.472,318.000,82.790,21.070,7.321,baseline
1175.000,301.600,95.660,27.790,1289.000,323.100,107.600,29.040,209.400,53.150,15.490,5.513,319.100,83.540,21.320,7.371,baseline
1177.000,303.600,96.330,28.070,1284.000,324.800,108.100,29.220,208.400,53.240,15.630,5.505,321.800,83.930,21.320,7.477,baseline
1177.000,305.800,96.950,28.240,1285.000,325.800,108.600,29.320,210.000,53.600,15.600,5.542,323.600,84.930,21.680,7.581,baseline
1189.000,307.400,98.020,28.510,1290.000,325.100,108.800,29.460,209.400,53.400,15.620,5.550,327.700,85.370,21.850,7.593,baseline
1184.000,308.200,98.440,28.790,1291.000,325.600,108.200,29.250,212.500,53.740,15.720,5.573,328.400,85.600,21.950,7.539,baseline
1176.000,305.100,96.830,28.150,1287.000,325.300,107.900,29.070,209.100,53.460,15.550,5.506,321.900,83.480,21.340,7.402,baseline
1180.000,306.600,96.870,28.120,1283.000,324.700,108.300,29.130,210.200,53.060,15.500,5.513,321.200,83.470,21.350,7.441,baseline
1180.000,306.800,96.860,28.210,1285.000,325.100,108.100,29.220,209.500,53.080,15.580,5.478,322.800,84.090,21.510,7.504,baseline
1181.000,307.000,96.910,28.250,1286.000,326.100,108.800,29.210,209.600,53.190,15.650,5.527,322.000,84.400,21.660,7.534,baseline
1183.000,307.500,97.590,28.460,1291.000,327.000,108.600,29.330,210.500,53.280,15.610,5.540,324.400,84.850,21.740,7.612,baseline
1190.000,309.200,98.480,28.710,1301.000,327.300,108.900,29.460,210.100,53.480,15.710,5.576,327.300,85.670,21.820,7.717,baseline
1196.000,309.500,99.200,28.950,1295.000,327.100,109.200,29.550,211.100,53.590,15.730,5.597,331.600,86.290,22.080,7.780,baseline
1195.000,311.100,99.070,29.090,1295.000,328.600,109.800,29.560,213.100,53.890,15.850,5.596,332.800,87.240,22.540,7.872,baseline
1198.000,312.500,99.200,28.960,1293.000,325.900,109.200,29.280,213.500,54.010,15.790,5.592,329.200,85.980,21.910,7.649,baseline
1188.000,308.800,97.580,28.470,1289.000,326.100,108.200,29.250,211.000,53.400,15.610,5.519,325.000,85.200,21.690,7.626,baseline
1191.000,310.300,98.400,28.490,1292.000,327.000,108.900,29.280,211.100,53.420,15.590,5.530,326.400,85.290,21.940,7.725,baseline
1195.000,310.000,98.950,28.680,1290.000,326.200,108.800,29.350,212.700,53.520,15.680,5.533,327.700,85.850,22.030,7.733,baseline
1197.000,312.600,98.700,28.830,1295.000,327.100,109.200,29.390,209.400,53.400,15.700,5.553,329.000,85.970,22.140,7.748,baseline
1192.000,311.100,99.300,28.890,1291.000,326.700,109.400,29.410,211.800,53.620,15.730,5.551,331.400,86.710,22.290,7.839,baseline
1200.000,314.300,100.100,29.330,1295.000,327.700,109.400,29.600,213.400,53.730,15.820,5.614,334.500,87.410,22.600,7.896,baseline
1203.000,313.700,101.100,29.490,1302.000,328.000,109.800,29.670,213.300,54.170,15.870,5.639,337.600,88.440,22.740,7.995,baseline
1200.000,314.800,100.300,29.390,1294.000,325.300,109.100,29.310,214.900,54.170,15.860,5.615,337.000,87.360,22.310,7.857,baseline
1194.000,310.700,99.620,28.860,1288.000,327.300,108.800,29.290,211.600,53.580,15.620,5.547,330.300,86.380,22.090,7.793,baseline
1192.000,311.600,98.870,29.020,1287.000,325.700,108.900,29.380,210.800,53.610,15.570,5.553,331.400,86.460,22.310,7.848,baseline
1199.000,312.500,99.770,29.080,1293.000,326.800,109.200,29.370,212.000,53.650,15.660,5.575,332.000,86.880,22.370,7.939,baseline
1196.000,312.100,99.970,29.190,1290.000,327.200,109.600,29.460,212.400,53.750,15.740,5.534,333.400,87.630,22.520,7.917,baseline
1201.000,312.900,100.200,29.340,1294.000,326.800,109.800,29.470,213.700,53.800,15.770,5.546,335.700,87.900,22.770,7.954,baseline
1204.000,314.600,101.000,29.630,1294.000,328.700,110.100,29.630,213.300,54.060,15.790,5.611,339.600,88.930,22.950,8.129,baseline
1202.000,315.900,101.800,29.890,1293.000,328.800,109.800,29.460,213.400,54.100,15.860,5.601,341.900,89.220,23.010,8.124,baseline
1204.000,313.100,100.500,29.290,1283.000,326.600,108.800,29.330,214.800,53.970,15.680,5.542,335.200,87.360,22.390,7.867,baseline
1190.000,313.100,99.370,29.030,1286.000,325.600,108.700,29.250,211.500,53.350,15.580,5.537,333.900,87.160,22.410,7.848,baseline
1194.000,313.300,100.300,29.250,1290.000,326.800,109.200,29.380,211.600,53.600,15.640,5.509,335.700,87.570,22.640,7.945,baseline
1192.000,313.500,99.910,29.230,1288.000,326.300,109.000,29.350,212.400,53.530,15.660,5.533,336.600,87.970,22.720,8.040,baseline
1191.000,314.200,100.500,29.470,1281.000,325.600,109.400,29.380,211.100,53.700,15.590,5.535,337.300,88.160,22.840,8.025,baseline
1198.000,315.300,101.300,29.650,1291.000,328.100,109.300,29.510,213.500,53.810,15.720,5.555,341.400,88.860,23.020,8.159,baseline
1203.000,315.900,102.200,30.000,1281.000,327.200,109.600,29.510,213.600,53.990,15.730,5.592,344.200,89.860,23.340,8.181,baseline
1200.000,314.800,100.700,29.350,1284.000,325.700,108.500,29.190,213.900,53.850,15.690,5.548,338.100,87.710,22.690,7.995,baseline
1186.000,311.100,100.200,29.080,1274.000,325.100,108.400,29.260,214.300,53.370,15.560,5.521,335.800,87.440,22.610,7.929,baseline
1187.000,311.700,100.100,29.330,1282.000,325.100,109.100,29.340,212.200,53.290,15.620,5.545,335.600,88.010,22.810,8.068,baseline
1191.000,311.700,100.200,29.300,1281.000,325.200,108.600,29.320,213.300,53.570,15.610,5.518,338.400,88.330,22.930,8.038,baseline
1189.000,313.900,100.500,29.510,1279.000,325.800,108.900,29.350,213.600,53.710,15.610,5.532,339.400,89.200,22.970,8.097,baseline
1196.000,314.700,101.000,29.710,1284.000,326.300,109.100,29.330,213.000,53.730,15.720,5.536,341.800,89.630,23.160,8.188,baseline
1196.000,317.100,102.100,29.980,1287.000,326.100,109.000,29.260,215.700,54.020,15.770,5.546,345.000,89.640,23.130,8.168,baseline
1193.000,312.200,99.970,29.180,1278.000,324.600,107.900,28.980,212.800,53.540,15.630,5.488,336.800,87.770,22.710,7.970,baseline
1180.000,311.100,99.220,29.150,1280.000,324.000,108.500,29.130,213.300,53.170,15.530,5.454,334.600,87.530,22.590,7.999,baseline
1183.000,311.800,100.300,29.300,1279.000,323.600,108.100,29.130,211.700,53.500,15.550,5.475,339.000,88.560,22.850,8.030,baseline
1187.000,310.000,99.960,29.400,1276.000,324.500,108.400,29.040,211.600,53.440,15.600,5.498,338.300,88.890,22.930,8.059,baseline
1189.000,311.900,100.600,29.430,1275.000,325.000,108.600,29.150,212.900,53.490,15.590,5.516,339.800,89.060,23.100,8.154,baseline
1187.000,313.500,101.000,29.760,1278.000,325.500,108.600,29.210,214.300,53.730,15.620,5.551,343.400,89.490,23.330,8.197,baseline
1186.000,315.300,101.100,29.490,1274.000,323.100,107.700,28.910,214.300,54.090,15.600,5.520,341.200,88.180,22.840,7.986,baseline
1172.000,309.500,98.990,28.880,1273.000,321.700,107.800,28.920,209.700,53.180,15.480,5.466,335.700,87.540,22.620,7.977,baseline
1176.000,310.400,99.000,29.190,1266.000,322.000,107.100,28.920,211.400,53.240,15.500,5.472,336.300,88.160,22.730,8.000,baseline
1180.000,309.300,99.570,29.180,1273.000,323.200,107.700,28.930,212.500,53.300,15.470,5.499,337.100,87.980,22.760,7.999,baseline
1177.000,307.800,99.910,29.240,1272.000,322.400,107.600,28.880,212.900,53.380,15.540,5.472,338.000,88.150,22.850,8.062,baseline
1178.000,310.500,99.440,29.290,1273.000,323.400,107.800,28.980,211.900,53.550,15.530,5.487,339.100,88.580,23.120,8.123,baseline
1178.000,313.600,100.700,29.720,1271.000,322.900,107.500,28.870,212.500,53.640,15.630,5.510,342.100,88.790,22.980,8.086,baseline
1173.000,308.500,98.920,28.830,1261.000,320.500,106.600,28.620,212.000,53.200,15.420,5.437,333.400,87.350,22.500,7.857,baseline
1165.000,305.500,98.110,28.790,1271.000,320.400,106.700,28.640,210.300,52.950,15.330,5.420,332.900,86.810,22.470,7.891,baseline
1171.000,307.400,98.390,28.890,1270.000,320.500,106.600,28.670,210.900,53.200,15.440,5.427,334.900,87.150,22.530,7.904,baseline
1171.000,306.900,98.280,28.950,1266.000,320.300,107.100,28.760,212.100,53.250,15.450,5.442,335.700,87.880,22.630,7.984,baseline
1173.000,307.900,98.760,29.000,1269.000,320.400,106.700,28.800,213.300,53.450,15.490,5.453,336.900,87.900,22.670,7.979,baseline
1173.000,308.000,99.280,29.190,1270.000,321.100,107.300,28.630,210.900,53.470,15.580,5.477,339.400,88.630,22.790,8.066,baseline
1174.000,306.600,98.770,28.690,1262.000,320.200,106.100,28.410,211.600,53.250,15.470,5.420,335.100,86.710,22.350,7.812,baseline
1157.000,303.200,97.610,28.410,1264.000,318.200,105.900,28.520,212.100,52.870,15.410,5.411,331.800,86.400,22.300,7.793,baseline
1163.000,306.200,97.380,28.750,1263.000,319.800,106.200,28.510,211.800,52.950,15.440,5.421,332.000,86.600,22.270,7.876,baseline
1168.000,305.100,97.800,28.650,1262.000,319.200,106.200,28.580,210.200,53.140,15.500,5.438,331.500,86.740,22.270,7.868,baseline
1163.000,303.800,97.570,28.650,1265.000,320.100,106.300,28.520,211.000,53.190,15.510,5.427,333.900,86.830,22.430,7.885,baseline
1171.000,305.600,98.340,28.850,1262.000,320.700,106.500,28.700,210.300,53.360,15.550,5.465,335.700,87.250,22.630,7.966,baseline
1169.000,307.600,98.350,28.810,1268.000,320.300,105.900,28.460,214.200,53.320,15.570,5.493,334.900,86.910,22.350,7.780,baseline
1160.000,301.300,96.850,28.270,1264.000,318.200,106.100,28.420,210.800,52.990,15.350,5.435,329.000,85.060,22.080,7.724,baseline
1155.000,301.100,96.460,28.270,1270.000,319.400,106.000,28.460,208.700,52.910,15.340,5.421,328.200,85.530,22.110,7.749,baseline
1159.000,302.700,96.750,28.310,1265.000,318.900,105.800,28.520,209.700,52.990,15.460,5.452,329.100,85.990,22.150,7.764,baseline
1157.000,302.000,96.800,28.370,1263.000,319.400,106.000,28.500,211.700,53.180,15.440,5.423,330.100,86.160,22.140,7.781,baseline
1153.000,303.000,97.570,28.600,1271.000,319.800,106.400,28.620,208.900,53.280,15.490,5.456,331.100,86.480,22.310,7.831,baseline
1165.000,306.400,97.880,28.770,1266.000,319.800,106.200,28.600,209.800,53.390,15.580,5.499,333.500,87.430,22.390,7.829,baseline
1158.000,302.800,96.370,28.310,1261.000,318.100,106.000,28.410,210.400,53.100,15.480,5.434,326.900,85.290,21.970,7.691,baseline
1151.000,300.800,96.270,28.160,1262.000,318.400,106.200,28.400,209.700,52.860,15.380,5.446,325.200,84.920,21.860,7.639,baseline
1156.000,301.400,96.270,28.230,1264.000,318.800,106.200,28.520,209.800,53.230,15.450,5.468,327.300,85.070,21.970,7.677,baseline
1153.000,302.000,96.310,28.240,1265.000,319.100,106.200,28.560,210.800,53.040,15.480,5.466,326.800,85.120,21.890,7.709,baseline
1150.000,302.400,96.510,28.410,1264.000,319.600,106.400,28.680,211.500,52.980,15.460,5.476,328.600,85.480,22.150,7.749,baseline
1154.000,302.500,97.060,28.540,1271.000,321.100,106.400,28.730,209.300,53.280,15.550,5.481,329.600,86.510,22.260,7.841,baseline
1164.000,305.800,97.360,28.430,1266.000,318.600,106.200,28.440,211.100,53.630,15.570,5.516,329.600,85.660,21.990,7.631,baseline
1153.000,301.300,95.630,28.010,1268.000,318.500,106.000,28.440,210.700,53.180,15.460,5.459,322.500,84.120,21.730,7.575,baseline
1156.000,300.000,95.300,28.040,1268.000,319.000,106.000,28.510,210.200,53.070,15.480,5.449,322.800,84.720,21.750,7.601,baseline
1157.000,300.200,95.660,27.970,1264.000,318.500,106.000,28.550,209.300,53.060,15.530,5.472,324.200,84.470,21.740,7.608,baseline
1153.000,300.500,95.870,28.080,1262.000,319.600,106.100,28.580,209.200,53.000,15.480,5.473,323.800,84.620,21.760,7.584,baseline
1158.000,301.600,95.830,28.290,1269.000,320.300,106.600,28.700,210.100,53.250,15.560,5.491,324.400,84.620,21.950,7.713,baseline
1160.000,302.700,96.820,28.470,1271.000,320.400,106.700,28.690,210.400,53.460,15.640,5.524,328.900,85.630,22.110,7.758,baseline
1163.000,303.800,96.160,28.170,1267.000,320.400,105.900,28.360,210.100,53.440,15.610,5.479,324.200,84.320,21.550,7.559,baseline
1154.000,297.300,95.240,27.830,1268.000,319.100,105.900,28.510,208.000,52.980,15.440,5.437,320.300,83.130,21.320,7.466,baseline
1153.000,300.300,94.760,27.810,1264.000,319.500,105.900,28.500,208.600,52.840,15.500,5.430,320.100,83.660,21.600,7.540,baseline
1154.000,299.000,95.150,27.870,1272.000,320.400,105.900,28.560,209.100,53.000,15.480,5.499,321.400,83.470,21.440,7.578,baseline
1151.000,299.200,95.440,27.970,1274.000,319.500,106.200,28.610,207.900,53.250,15.550,5.470,321.100,84.160,21.560,7.571,baseline
1154.000,300.400,95.910,28.080,1276.000,320.000,106.400,28.660,210.100,53.250,15.530,5.512,322.800,84.350,21.710,7.637,baseline
1157.000,301.800,96.540,28.330,1277.000,322.800,106.800,28.760,210.100,53.480,15.650,5.568,326.500,84.600,21.950,7.728,baseline
1160.000,303.000,96.720,28.450,1279.000,321.600,106.200,28.580,207.900,53.590,15.700,5.571,327.900,85.010,21.760,7.577,baseline
1158.000,299.900,94.790,27.730,1269.000,320.400,105.800,28.470,210.500,53.150,15.460,5.446,318.900,83.050,21.190,7.380,baseline
1155.000,298.900,94.190,27.630,1268.000,319.000,106.100,28.480,208.400,52.810,15.480,5.465,318.500,82.250,21.320,7.419,baseline
1156.000,297.800,94.770,27.630,1269.000,319.400,106.000,28.560,208.500,52.760,15.470,5.445,318.100,82.900,21.300,7.438,baseline
1155.000,297.500,94.560,27.710,1271.000,319.800,106.100,28.620,208.600,52.860,15.520,5.515,317.300,82.780,21.290,7.459,baseline
1157.000,297.800,94.920,27.750,1275.000,320.100,106.100,28.650,209.000,53.140,15.540,5.500,318.300,83.130,21.490,7.503,baseline
1161.000,299.800,95.220,28.060,1272.000,320.900,106.500,28.790,209.700,53.250,15.610,5.484,322.000,83.810,21.660,7.561,baseline
1155.000,300.600,95.940,28.250,1277.000,321.400,106.900,28.850,209.800,53.320,15.670,5.561,322.800,84.380,21.760,7.663,baseline
1160.000,302.700,96.720,28.460,1286.000,323.600,107.100,28.830,210.800,53.660,15.780,5.585,326.800,85.540,21.920,7.665,baseline
1168.000,302.700,95.480,27.930,1273.000,319.900,106.000,28.520,210.100,53.540,15.560,5.520,319.800,83.090,21.310,7.411,baseline
1153.000,298.100,93.870,27.550,1277.000,320.300,106.200,28.480,209.000,53.150,15.410,5.452,315.800,82.160,21.140,7.398,baseline
1154.000,296.900,93.900,27.560,1274.000,320.600,106.100,28.520,208.400,52.930,15.510,5.462,315.700,82.240,21.240,7.463,baseline
1151.000,297.700,94.500,27.710,1273.000,321.100,106.600,28.590,207.600,53.160,15.460,5.477,316.400,82.140,21.370,7.474,baseline
1158.000,298.800,94.500,27.670,1276.000,321.400,106.700,28.740,206.800,53.070,15.500,5.470,317.100,82.830,21.280,7.467,baseline
1154.000,299.900,95.030,27.960,1278.000,322.700,106.700,28.740,208.100,53.150,15.590,5.528,319.700,83.750,21.500,7.541,baseline
1156.000,300.100,95.960,28.150,1276.000,322.000,107.200,28.890,207.700,53.310,15.660,5.524,321.800,84.260,21.790,7.633,baseline
1163.000,303.000,96.540,28.330,1283.000,322.700,107.400,29.030,209.500,53.610,15.660,5.552,324.800,84.360,21.930,7.732,baseline
1169.000,303.600,97.160,28.570,1285.000,324.300,107.300,28.960,211.100,54.020,15.820,5.598,328.100,85.550,21.900,7.722,baseline
1172.000,301.300,95.460,27.940,1283.000,322.400,106.500,28.580,210.100,53.780,15.680,5.502,319.400,83.050,21.410,7.455,baseline
1153.000,299.100,95.050,27.690,1284.000,322.300,106.700,28.710,208.900,53.160,15.550,5.483,317.400,82.650,21.280,7.459,baseline
1154.000,298.900,94.560,27.840,1278.000,323.200,106.800,28.610,208.100,53.350,15.580,5.495,319.000,82.750,21.380,7.497,baseline
1163.000,299.400,95.140,27.890,1282.000,322.900,106.900,28.700,210.200,53.320,15.540,5.513,318.000,83.500,21.390,7.480,baseline
1156.000,299.900,95.570,28.030,1285.000,322.700,107.100,28.880,209.900,53.400,15.670,5.511,318.800,83.540,21.540,7.569,baseline
1168.000,302.200,95.980,28.120,1288.000,323.600,107.200,28.870,208.800,53.480,15.700,5.551,322.400,84.420,21.730,7.680,baseline
1167.000,302.500,96.770,28.590,1289.000,324.400,107.600,29.070,211.800,54.010,15.780,5.584,325.600,84.940,22.080,7.773,baseline
1173.000,304.200,97.900,28.630,1290.000,324.700,108.200,29.140,212.800,53.920,15.820,5.580,328.700,86.210,22.270,7.856,baseline
1175.000,305.700,97.610,28.590,1286.000,324.400,107.300,28.830,213.800,54.280,15.850,5.573,326.500,84.660,21.840,7.640,baseline
1163.000,299.000,95.430,27.960,1286.000,323.600,107.100,28.710,210.500,53.610,15.580,5.506,320.100,83.190,21.540,7.503,baseline
1164.000,300.600,95.630,28.010,1287.000,325.100,107.500,28.780,210.200,53.410,15.610,5.531,320.700,83.930,21.590,7.609,baseline
1167.000,301.800,96.340,28.050,1284.000,323.800,107.600,28.900,209.100,53.650,15.670,5.533,321.100,83.850,21.650,7.637,baseline
1169.000,302.100,96.010,28.260,1283.000,324.300,107.300,28.930,209.700,53.600,15.630,5.530,322.600,84.360,21.820,7.652,baseline
1167.000,303.400,96.510,28.480,1287.000,324.700,107.800,29.140,210.000,53.880,15.690,5.506,325.200,84.780,21.900,7.709,baseline
1172.000,304.200,97.390,28.780,1294.000,327.000,108.500,29.210,213.500,54.090,15.750,5.569,327.900,85.800,22.230,7.815,baseline
1177.000,306.400,98.030,29.090,1292.000,328.000,108.500,29.240,211.600,54.360,15.920,5.643,332.100,86.800,22.470,7.916,baseline
1181.000,307.400,97.840,28.690,1287.000,326.000,107.700,28.890,213.900,54.580,15.830,5.605,329.000,85.400,21.910,7.685,baseline
1174.000,302.300,96.210,28.210,1293.000,325.200,107.500,28.910,212.800,53.880,15.680,5.520,322.500,84.350,21.790,7.640,baseline
1170.000,302.300,96.240,28.250,1289.000,326.100,108.100,28.950,211.500,53.960,15.700,5.546,324.800,84.500,21.880,7.688,baseline
1171.000,303.500,96.960,28.380,1292.000,325.700,107.800,28.910,211.900,54.020,15.690,5.569,326.300,85.120,22.020,7.713,baseline
1168.000,303.400,97.360,28.570,1290.000,325.900,108.000,29.020,210.700,54.030,15.770,5.573,326.800,84.930,21.980,7.753,baseline
1171.000,305.100,97.480,28.660,1292.000,326.700,108.300,29.200,211.800,54.200,15.820,5.595,329.800,86.090,22.400,7.848,baseline
1181.000,307.500,98.220,29.060,1293.000,328.000,108.800,29.270,211.900,54.440,15.880,5.587,331.900,87.150,22.570,7.895,baseline
1188.000,309.400,99.420,29.220,1299.000,328.600,108.600,29.080,215.200,54.790,15.990,5.659,335.400,87.180,22.440,7.848,baseline
1176.000,305.000,97.110,28.540,1290.000,325.300,107.600,28.880,213.900,54.150,15.820,5.555,326.600,85.500,21.910,7.706,baseline
1169.000,305.200,96.420,28.480,1293.000,325.500,108.400,28.980,211.000,53.890,15.720,5.547,327.000,85.340,22.050,7.759,baseline
1178.000,304.600,97.390,28.540,1289.000,326.800,108.500,28.980,212.700,54.220,15.840,5.559,329.000,85.740,22.270,7.792,baseline
1180.000,306.400,97.840,28.640,1292.000,327.100,108.100,29.080,213.600,54.250,15.830,5.589,330.100,86.140,22.310,7.855,baseline
1182.000,306.500,97.790,28.880,1298.000,326.600,108.500,29.190,214.500,54.470,15.890,5.598,331.800,86.670,22.420,7.912,baseline
1180.000,307.200,98.670,29.220,1299.000,327.800,109.200,29.310,213.900,54.750,15.980,5.599,335.600,87.530,22.770,7.980,baseline
1185.000,311.000,99.940,29.450,1298.000,327.000,108.800,29.060,215.700,54.830,16.050,5.675,338.100,87.880,22.630,7.920,baseline
1182.000,304.100,97.230,28.590,1292.000,327.300,108.100,28.940,212.300,54.650,15.900,5.583,330.400,86.020,22.160,7.749,baseline
1172.000,305.900,97.370,28.580,1295.000,327.300,108.100,28.990,212.500,54.200,15.830,5.577,328.900,85.970,22.300,7.774,baseline
1181.000,306.500,97.960,28.830,1292.000,326.900,108.200,29.090,213.300,54.550,15.890,5.586,332.400,86.760,22.480,7.886,baseline
1175.000,307.000,97.650,28.900,1289.000,327.000,108.700,29.070,213.800,54.710,15.900,5.631,332.900,87.330,22.570,7.928,baseline
1179.000,307.200,98.130,29.110,1293.000,328.100,108.800,29.190,215.700,54.830,15.980,5.639,336.000,87.530,22.700,7.974,baseline
1185.000,308.600,99.450,29.410,1296.000,328.700,109.000,29.430,216.600,54.820,16.020,5.651,337.700,88.160,22.880,8.078,baseline
1185.000,311.500,99.620,29.320,1294.000,327.900,108.400,29.010,216.300,54.990,16.020,5.652,338.000,87.920,22.640,7.919,baseline
1177.000,305.100,97.540,28.710,1287.000,324.800,108.300,29.050,214.300,54.640,15.880,5.562,330.100,86.230,22.230,7.844,baseline
1178.000,306.800,97.730,28.810,1290.000,326.600,108.600,29.120,213.200,54.330,15.870,5.597,332.600,86.800,22.450,7.907,baseline
1177.000,307.500,98.230,29.010,1292.000,327.900,108.700,29.050,215.300,54.820,16.000,5.645,333.800,87.270,22.650,7.920,baseline
1181.000,307.700,98.550,28.960,1291.000,328.400,108.600,29.160,215.600,54.720,15.960,5.632,335.900,87.290,22.600,7.963,baseline
1184.000,307.200,99.110,29.280,1299.000,328.400,108.900,29.270,215.700,54.770,16.010,5.653,338.200,88.380,22.880,8.067,baseline
1184.000,311.700,99.750,29.540,1295.000,328.900,109.300,29.200,215.700,55.160,16.100,5.667,340.100,89.240,23.000,8.077,baseline
1188.000,306.500,98.710,28.840,1292.000,326.900,107.700,29.030,216.300,54.800,15.940,5.610,334.500,87.280,22.640,7.863,baseline
1178.000,306.100,97.890,28.860,1291.000,327.500,108.100,29.080,214.600,54.540,15.940,5.583,333.000,87.110,22.560,7.905,baseline
1181.000,307.700,98.410,28.940,1293.000,326.500,108.500,29.150,214.900,54.630,15.900,5.601,334.900,87.730,22.700,8.006,baseline
1185.000,306.900,98.860,29.000,1289.000,327.400,108.500,29.170,215.200,54.730,16.010,5.619,336.200,87.810,22.770,7.977,baseline
1181.000,308.600,98.620,29.100,1290.000,326.500,108.800,29.210,215.200,54.880,16.000,5.601,337.000,88.210,22.740,8.012,baseline
1190.000,310.500,99.370,29.370,1295.000,327.400,108.800,29.330,214.300,54.970,16.080,5.651,339.100,89.200,23.050,8.081,baseline
1185.000,308.800,98.930,28.910,1291.000,326.300,107.500,28.960,217.800,55.060,16.030,5.628,335.500,87.100,22.570,7.839,baseline
1179.000,303.900,97.170,28.500,1287.000,325.000,108.000,29.000,213.100,54.530,15.800,5.554,332.300,86.860,22.350,7.824,baseline
1180.000,307.000,97.510,28.630,1286.000,326.100,108.200,29.110,214.000,54.560,15.910,5.573,333.200,87.420,22.410,7.884,baseline
1182.000,304.600,97.400,28.780,1286.000,326.000,108.300,29.110,214.400,54.740,15.920,5.578,333.000,87.330,22.600,7.902,baseline
1181.000,306.300,97.650,28.790,1292.000,326.700,108.200,29.060,215.300,54.770,15.950,5.594,334.700,87.370,22.600,7.931,baseline
1185.000,307.600,98.630,29.030,1295.000,327.100,108.700,29.190,213.700,54.770,15.950,5.608,337.100,88.200,22.790,7.985,baseline
1183.000,307.100,98.170,28.630,1283.000,325.200,107.400,28.870,213.700,54.790,15.990,5.595,333.100,86.750,22.300,7.773,baseline
1172.000,302.800,96.490,28.210,1285.000,323.800,107.400,28.820,214.200,54.230,15.700,5.584,327.700,85.620,22.190,7.714,baseline
1169.000,303.600,96.200,28.200,1285.000,324.900,107.600,28.940,212.100,54.250,15.760,5.574,328.600,86.390,22.120,7.743,baseline
1170.000,302.800,96.380,28.360,1282.000,324.200,107.500,28.910,212.800,54.390,15.790,5.566,329.900,85.910,22.160,7.770,baseline
1169.000,302.900,96.060,28.260,1284.000,324.100,108.000,29.050,212.300,54.520,15.850,5.543,329.000,86.500,22.170,7.758,baseline
1171.000,303.400,96.600,28.510,1284.000,324.700,107.900,29.130,213.500,54.460,15.830,5.594,330.900,86.830,22.460,7.807,baseline
1173.000,303.100,96.890,28.230,1280.000,323.200,106.900,28.830,213.600,54.680,15.850,5.567,329.700,85.690,21.900,7.639,baseline
1161.000,300.800,94.720,27.850,1283.000,322.100,106.700,28.760,211.400,53.980,15.700,5.554,323.200,84.360,21.500,7.577,baseline
1157.000,298.500,94.600,27.680,1280.000,322.100,107.100,28.880,210.000,53.810,15.630,5.553,322.400,84.010,21.580,7.514,baseline
1157.000,297.700,94.730,27.610,1277.000,321.600,107.200,28.800,211.500,53.840,15.740,5.532,322.600,84.800,21.610,7.526,baseline
1155.000,299.900,94.590,27.670,1272.000,322.000,107.000,28.820,212.900,53.930,15.700,5.563,324.000,84.400,21.630,7.630,baseline
1163.000,297.800,94.460,27.830,1277.000,322.800,107.100,28.980,210.600,54.070,15.760,5.563,325.100,84.900,21.950,7.646,baseline
1165.000,301.100,94.970,27.930,1280.000,321.400,106.700,28.820,210.700,54.250,15.840,5.606,327.000,84.930,21.730,7.548,baseline
1151.000,296.300,93.210,27.320,1269.000,319.800,106.300,28.740,211.400,53.850,15.650,5.514,319.900,83.490,21.330,7.380,baseline
1148.000,294.800,92.890,27.190,1270.000,320.000,106.500,28.740,210.500,53.590,15.570,5.497,317.700,82.900,21.260,7.380,baseline
1146.000,294.300,93.110,27.130,1271.000,320.500,106.100,28.690,210.500,53.740,15.620,5.509,318.400,83.160,21.180,7.389,baseline
1151.000,295.900,93.340,27.050,1270.000,320.900,106.500,28.740,210.000,53.690,15.700,5.503,318.500,83.110,21.350,7.408,baseline
1150.000,295.500,93.130,27.290,1274.000,320.700,106.700,28.890,208.900,53.980,15.660,5.524,319.800,83.300,21.460,7.486,baseline
1149.000,296.000,93.320,27.360,1272.000,321.700,107.200,28.960,211.600,53.910,15.670,5.582,321.400,84.330,21.610,7.512,baseline
1156.000,296.400,94.060,27.460,1276.000,320.400,106.600,28.850,210.800,54.190,15.820,5.586,322.200,83.950,21.480,7.439,baseline
1142.000,293.400,92.120,26.950,1269.000,319.500,105.800,28.680,208.500,53.510,15.620,5.491,315.500,81.920,20.910,7.255,baseline
1143.000,292.500,91.600,26.760,1269.000,318.800,106.300,28.750,207.300,53.490,15.530,5.498,313.700,81.850,20.910,7.279,baseline
1142.000,290.900,91.820,26.670,1272.000,319.800,106.400,28.720,208.700,53.610,15.580,5.517,314.300,82.040,20.960,7.325,baseline
1143.000,291.900,91.440,26.710,1268.000,320.100,106.500,28.780,208.200,53.500,15.660,5.517,314.400,81.770,20.980,7.276,baseline
1144.000,292.000,91.820,26.840,1270.000,320.400,106.700,28.800,210.100,53.540,15.690,5.539,315.300,82.210,21.050,7.324,baseline
1146.000,292.600,92.440,26.890,1270.000,320.100,106.700,28.990,208.500,53.650,15.690,5.538,317.400,82.790,21.280,7.365,baseline
1147.000,293.700,92.510,27.270,1275.000,322.400,107.300,29.070,209.800,53.790,15.720,5.575,319.400,83.350,21.470,7.504,baseline
1149.000,295.100,93.220,27.110,1272.000,320.500,106.600,28.800,210.700,53.990,15.710,5.554,318.100,82.580,21.010,7.268,baseline
1146.000,291.200,91.060,26.520,1267.000,320.600,106.200,28.760,207.200,53.460,15.540,5.524,311.900,80.990,20.710,7.168,baseline
1144.000,290.300,90.870,26.500,1272.000,320.400,106.200,28.860,208.600,53.280,15.580,5.498,311.200,81.480,20.860,7.172,baseline
1140.000,290.100,90.750,26.580,1267.000,320.300,106.700,28.930,207.700,53.240,15.660,5.502,311.800,80.990,20.770,7.199,baseline
1140.000,290.600,91.220,26.540,1274.000,320.100,106.700,28.890,208.100,53.430,15.540,5.535,311.600,81.880,20.830,7.233,baseline
1145.000,291.200,91.420,26.700,1271.000,321.500,107.000,29.090,207.900,53.410,15.600,5.534,313.600,81.920,20.940,7.261,baseline
1151.000,292.700,91.760,26.740,1275.000,322.000,107.400,29.160,209.000,53.750,15.700,5.549,315.100,82.390,21.150,7.353,baseline
1152.000,294.200,92.320,27.010,1276.000,322.700,107.900,29.220,209.900,53.800,15.680,5.568,316.600,83.020,21.290,7.389,baseline
1146.000,296.000,92.950,27.160,1281.000,321.600,107.500,29.130,210.000,53.890,15.820,5.583,318.500,82.640,21.060,7.310,baseline
1146.000,293.100,91.380,26.630,1277.000,320.600,106.800,28.930,207.900,53.580,15.480,5.517,311.900,81.550,20.640,7.164,baseline
1141.000,291.300,90.690,26.400,1274.000,321.500,107.200,29.030,208.400,53.120,15.540,5.499,309.200,81.010,20.640,7.177,baseline
1142.000,289.800,91.400,26.360,1278.000,321.200,107.500,29.120,206.900,53.260,15.530,5.517,310.300,81.540,20.660,7.173,baseline
1143.000,290.000,91.210,26.450,1277.000,320.700,107.400,29.170,209.200,53.470,15.570,5.509,309.900,80.680,20.730,7.169,baseline
1140.000,290.500,91.600,26.590,1277.000,323.300,108.000,29.190,208.100,53.430,15.590,5.546,312.100,81.230,20.770,7.259,baseline
1149.000,293.800,92.020,26.840,1281.000,323.600,108.000,29.330,209.200,53.550,15.640,5.576,313.300,81.900,20.980,7.296,baseline
1152.000,293.500,92.000,27.030,1282.000,323.600,108.600,29.530,210.900,53.460,15.680,5.580,315.900,82.450,21.040,7.390,baseline
1156.000,296.600,92.930,27.290,1283.000,324.800,108.700,29.540,211.900,53.810,15.770,5.591,318.800,83.300,21.300,7.418,baseline
1161.000,296.000,93.490,26.980,1280.000,324.200,108.200,29.330,211.700,53.960,15.810,5.599,316.100,82.050,20.870,7.215,baseline
1154.000,293.500,91.840,26.570,1283.000,323.200,108.300,29.260,210.500,53.320,15.530,5.532,311.300,81.160,20.640,7.183,baseline
1153.000,295.100,91.820,26.680,1280.000,324.500,108.200,29.330,210.700,53.250,15.600,5.488,311.400,81.050,20.700,7.220,baseline
1151.000,294.400,92.060,26.700,1283.000,324.800,108.700,29.420,208.800,53.450,15.630,5.522,312.600,81.400,20.590,7.265,baseline
1151.000,294.900,92.180,26.770,1280.000,325.500,108.200,29.510,209.700,53.440,15.660,5.550,312.500,81.810,20.790,7.264,baseline
1155.000,296.900,92.760,27.000,1289.000,325.700,109.200,29.610,209.900,53.610,15.690,5.526,314.900,82.280,21.050,7.337,baseline
1163.000,298.300,93.530,27.080,1290.000,326.800,109.700,29.810,210.200,53.810,15.700,5.559,317.400,82.890,21.150,7.370,baseline
1165.000,298.500,94.210,27.350,1288.000,327.200,109.600,29.880,211.000,54.010,15.770,5.613,320.100,83.530,21.480,7.509,baseline
1172.000,300.400,94.880,27.600,1297.000,326.800,110.100,29.830,214.300,54.120,15.880,5.627,322.100,84.080,21.440,7.495,baseline
1164.000,298.300,93.320,27.030,1285.000,326.400,109.000,29.600,211.400,53.910,15.660,5.569,315.600,81.790,20.940,7.299,baseline
1163.000,298.100,93.420,26.930,1289.000,327.500,109.100,29.620,210.400,53.410,15.570,5.569,312.300,82.040,20.920,7.292,baseline
1163.000,299.000,93.720,27.120,1287.000,327.100,109.600,29.770,209.400,53.630,15.670,5.555,315.200,82.380,21.060,7.350,baseline
1166.000,299.200,93.710,27.120,1287.000,328.200,109.700,29.790,210.500,53.590,15.700,5.529,315.600,82.870,21.040,7.353,baseline
1171.000,299.700,94.150,27.310,1292.000,328.400,110.400,29.940,212.300,53.760,15.590,5.563,317.000,82.990,21.220,7.385,baseline
1173.000,300.500,94.920,27.590,1298.000,329.000,110.300,30.110,211.500,54.070,15.790,5.578,320.800,84.000,21.400,7.477,baseline
1175.000,303.100,95.540,27.880,1297.000,330.100,111.100,30.180,212.100,54.190,15.870,5.607,323.400,84.690,21.640,7.607,baseline
1181.000,305.000,96.240,28.130,1298.000,328.800,110.900,30.020,213.000,54.390,15.930,5.655,326.400,85.100,21.690,7.574,baseline
1172.000,301.700,94.680,27.380,1291.000,327.700,110.100,29.880,212.600,53.900,15.730,5.575,318.900,82.670,21.150,7.414,baseline
1169.000,302.500,95.050,27.530,1290.000,329.200,110.700,29.930,209.700,53.710,15.630,5.547,318.200,83.200,21.300,7.466,baseline
1174.000,302.800,94.980,27.720,1294.000,330.000,110.700,30.010,212.300,53.850,15.630,5.573,321.200,83.610,21.450,7.490,baseline
1176.000,303.100,95.120,27.630,1296.000,329.600,110.600,30.100,210.500,54.010,15.740,5.588,320.400,83.770,21.250,7.468,baseline
1180.000,304.700,96.050,27.860,1296.000,329.400,110.600,30.220,211.700,54.160,15.770,5.602,323.500,84.220,21.610,7.561,baseline
1186.000,305.200,96.290,28.180,1296.000,329.800,111.200,30.270,213.500,54.240,15.880,5.611,326.500,85.060,21.790,7.629,baseline
1185.000,306.600,97.510,28.480,1298.000,332.600,111.500,30.400,212.200,54.500,15.910,5.653,329.100,86.240,22.130,7.733,baseline
1184.000,306.700,96.590,28.000,1301.000,329.100,110.500,29.930,215.800,54.410,15.830,5.596,325.300,84.600,21.580,7.502,baseline
1178.000,303.300,95.490,27.830,1295.000,328.900,110.600,30.010,213.800,53.920,15.660,5.557,322.100,84.030,21.430,7.427,baseline
1179.000,303.300,96.060,27.930,1299.000,329.900,110.800,30.060,212.800,53.900,15.770,5.571,323.200,84.460,21.670,7.519,baseline
1179.000,306.100,96.200,28.060,1296.000,329.300,111.100,30.030,212.100,54.120,15.830,5.563,324.600,84.770,21.700,7.556,baseline
1183.000,305.900,96.640,28.140,1293.000,330.700,110.900,30.110,214.300,54.360,15.780,5.593,325.700,85.180,21.860,7.636,baseline
1189.000,305.600,97.600,28.410,1299.000,330.600,111.000,30.300,214.400,54.290,15.850,5.618,328.900,86.270,21.990,7.717,baseline
1191.000,309.400,98.180,28.630,1299.000,330.200,111.400,30.200,215.600,54.510,15.990,5.649,331.800,86.460,22.120,7.736,baseline
1186.000,307.800,96.620,28.070,1290.000,328.000,110.600,29.900,213.300,54.420,15.780,5.591,325.100,84.500,21.660,7.553,baseline
1183.000,303.900,96.430,27.970,1293.000,328.300,110.900,29.980,211.400,53.880,15.720,5.543,323.400,84.410,21.510,7.520,baseline
1179.000,305.200,96.320,28.170,1295.000,328.800,110.300,30.010,215.200,54.210,15.770,5.565,326.200,84.770,21.870,7.615,baseline
1182.000,306.400,96.890,28.140,1290.000,328.600,110.500,30.030,211.600,54.260,15.720,5.539,327.100,85.160,21.770,7.644,baseline
1178.000,306.000,97.290,28.230,1290.000,329.600,110.900,30.060,213.200,54.380,15.800,5.587,329.400,85.750,21.870,7.728,baseline
1189.000,308.100,97.710,28.590,1294.000,330.600,110.800,30.170,214.600,54.420,15.910,5.616,331.300,86.490,22.280,7.819,baseline
1194.000,310.000,98.150,28.570,1289.000,328.900,110.100,30.020,216.000,54.730,15.950,5.613,331.900,86.110,21.920,7.618,baseline
1182.000,304.300,95.960,28.030,1284.000,327.300,110.000,29.760,213.000,54.010,15.750,5.520,324.800,84.480,21.580,7.558,baseline
1179.000,303.900,96.120,27.970,1285.000,327.200,110.000,29.860,210.900,54.030,15.670,5.533,322.900,84.610,21.600,7.561,baseline
1175.000,304.200,96.440,28.100,1289.000,328.300,110.400,29.840,214.000,54.190,15.740,5.546,326.100,84.670,21.800,7.612,baseline
1178.000,305.400,96.550,28.150,1291.000,327.400,110.400,29.900,213.400,54.200,15.770,5.574,326.700,85.150,21.890,7.687,baseline
1173.000,305.400,97.260,28.290,1284.000,327.900,110.400,30.090,213.300,54.350,15.870,5.589,328.700,85.800,21.950,7.696,baseline
1181.000,307.400,97.760,28.660,1292.000,329.000,110.800,30.030,217.700,54.610,15.850,5.615,333.600,86.730,22.320,7.811,baseline
1182.000,306.400,96.750,28.110,1286.000,325.800,109.400,29.670,215.500,54.520,15.820,5.573,327.500,84.960,21.650,7.573,baseline
1172.000,302.400,95.400,27.790,1280.000,324.600,109.300,29.650,213.100,53.980,15.670,5.521,323.400,83.800,21.500,7.508,baseline
1173.000,302.400,95.520,27.850,1276.000,326.200,109.500,29.740,213.400,53.790,15.630,5.518,323.700,84.310,21.590,7.532,baseline
1167.000,302.900,95.920,27.930,1273.000,325.400,109.700,29.780,215.300,54.020,15.690,5.532,326.500,85.010,21.750,7.616,baseline
1171.000,304.000,96.040,27.970,1281.000,326.200,109.800,29.760,214.700,53.990,15.780,5.562,327.000,85.190,21.760,7.659,baseline
1172.000,304.400,97.080,28.180,1279.000,326.800,109.700,29.950,213.600,54.190,15.790,5.546,330.300,85.820,22.080,7.731,baseline
1173.000,306.400,97.370,28.650,1278.000,325.900,109.700,29.700,214.000,54.600,15.840,5.646,332.200,86.140,22.070,7.646,baseline
1166.000,302.000,95.500,27.680,1280.000,324.600,109.100,29.600,214.000,54.060,15.660,5.514,324.300,84.070,21.560,7.508,baseline
1164.000,300.700,94.760,27.730,1280.000,324.100,109.000,29.580,213.500,53.720,15.570,5.536,323.900,84.250,21.470,7.535,baseline
1165.000,300.700,95.160,27.870,1279.000,323.900,108.900,29.730,213.600,53.900,15.700,5.553,325.600,84.780,21.630,7.600,baseline
1163.000,300.800,95.600,27.880,1275.000,324.300,109.100,29.720,213.000,54.080,15.680,5.538,326.900,85.100,21.810,7.626,baseline
1168.000,301.700,96.150,28.080,1277.000,323.800,109.600,29.790,216.300,54.340,15.740,5.565,328.100,85.540,22.020,7.699,baseline
1167.000,304.200,96.500,28.390,1280.000,326.000,109.900,29.950,214.500,54.470,15.780,5.593,331.000,86.600,22.190,7.818,baseline
1175.000,303.600,96.370,28.210,1273.000,323.600,108.700,29.460,215.300,54.700,15.770,5.591,327.600,85.320,21.740,7.581,baseline
1158.000,299.500,94.830,27.620,1272.000,323.200,108.400,29.560,213.500,53.980,15.550,5.510,323.300,84.450,21.540,7.493,baseline
1156.000,299.700,95.140,27.770,1272.000,324.400,108.900,29.690,212.300,53.820,15.720,5.524,324.600,84.440,21.640,7.600,baseline
1163.000,300.600,95.630,27.900,1272.000,322.900,108.900,29.630,213.100,54.110,15.820,5.535,327.300,84.900,21.710,7.643,baseline
1156.000,302.400,95.630,27.980,1271.000,323.800,109.100,29.630,214.600,54.160,15.690,5.550,327.000,85.340,21.890,7.641,baseline
1157.000,303.000,96.330,28.120,1276.000,325.200,109.400,29.850,213.900,54.320,15.790,5.557,329.400,86.350,22.020,7.736,baseline
1171.000,303.100,97.030,28.500,1275.000,325.500,109.300,29.620,214.400,54.410,15.770,5.625,333.000,86.610,22.160,7.718,baseline
1165.000,300.200,95.640,27.750,1273.000,322.300,108.700,29.510,215.400,54.260,15.730,5.540,325.200,84.640,21.630,7.616,baseline
1157.000,300.400,94.970,27.780,1276.000,323.200,108.700,29.610,213.400,53.850,15.620,5.508,324.600,84.720,21.720,7.558,baseline
1160.000,299.900,95.680,27.920,1275.000,323.300,108.700,29.670,212.900,54.000,15.720,5.551,325.900,85.390,21.870,7.632,baseline
1160.000,300.700,95.650,28.030,1275.000,323.700,108.800,29.700,213.900,54.310,15.780,5.550,327.800,85.140,21.830,7.667,baseline
1165.000,301.700,96.070,28.140,1280.000,324.300,109.600,29.890,214.800,54.470,15.830,5.591,329.500,85.760,21.970,7.747,baseline
1164.000,305.000,96.530,28.440,1279.000,325.100,110.300,29.950,216.100,54.440,15.870,5.572,331.800,86.500,22.250,7.829,baseline
1171.000,304.700,96.410,28.240,1274.000,324.100,108.700,29.680,215.900,54.540,15.900,5.571,330.100,85.650,21.780,7.582,baseline
1156.000,299.600,95.090,27.760,1279.000,323.800,108.600,29.490,211.300,53.960,15.600,5.518,324.900,84.600,21.690,7.608,baseline
1162.000,299.600,95.370,27.870,1274.000,324.100,109.400,29.720,213.700,54.190,15.710,5.550,327.100,85.010,21.780,7.650,baseline
1161.000,302.700,95.880,27.920,1276.000,324.200,109.100,29.690,213.800,54.370,15.750,5.560,328.100,85.360,21.890,7.659,baseline
1159.000,301.600,96.490,28.080,1279.000,325.300,109.300,29.880,214.900,54.310,15.840,5.538,329.500,85.730,21.950,7.721,baseline
1166.000,303.900,96.550,28.420,1278.000,325.100,109.700,29.840,214.500,54.340,15.760,5.595,332.100,86.110,22.080,7.778,baseline
1170.000,304.600,97.690,28.520,1279.000,326.100,109.700,29.780,214.900,54.640,15.850,5.614,333.600,86.720,22.130,7.725,baseline
1166.000,300.600,95.700,27.820,1276.000,323.400,108.900,29.610,214.900,54.360,15.710,5.538,326.100,84.870,21.660,7.528,baseline
1161.000,301.500,95.610,27.900,1279.000,323.800,109.300,29.640,212.700,54.010,15.620,5.526,325.300,84.480,21.650,7.537,baseline
1163.000,302.900,95.860,28.000,1281.000,323.400,109.400,29.710,212.900,54.080,15.720,5.512,326.800,85.000,21.830,7.569,baseline
1162.000,302.200,96.140,28.110,1276.000,324.800,109.400,29.800,215.000,54.260,15.770,5.561,327.000,85.170,21.920,7.617,baseline
1168.000,303.400,96.180,28.180,1276.000,325.500,109.700,29.810,213.300,54.500,15.800,5.565,329.400,85.720,22.000,7.730,baseline
1173.000,304.800,96.800,28.630,1284.000,325.900,110.000,29.930,214.400,54.500,15.850,5.600,331.500,86.260,22.150,7.757,baseline
1164.000,303.700,96.140,28.110,1280.000,323.400,108.700,29.600,215.000,54.430,15.770,5.529,327.700,84.810,21.640,7.542,baseline
1159.000,302.000,95.370,27.730,1274.000,323.300,108.800,29.660,213.500,53.900,15.650,5.518,323.400,84.200,21.410,7.467,baseline
1165.000,302.300,95.930,27.890,1280.000,324.100,109.200,29.720,212.300,54.040,15.650,5.521,325.200,84.610,21.590,7.514,baseline
1163.000,302.600,95.720,28.000,1281.000,324.400,109.300,29.810,212.100,54.060,15.750,5.503,325.700,84.500,21.640,7.529,baseline
1169.000,302.500,95.750,28.130,1280.000,326.000,109.500,29.790,214.400,54.200,15.700,5.533,327.400,85.150,21.740,7.613,baseline
1161.000,303.500,96.540,28.220,1280.000,325.800,109.500,29.900,213.700,54.160,15.770,5.560,328.000,85.430,21.900,7.686,baseline
1170.000,304.400,96.460,28.160,1276.000,324.200,108.800,29.630,213.100,54.380,15.830,5.577,328.700,84.780,21.610,7.524,baseline
1159.000,301.000,95.120,27.680,1280.000,323.600,108.800,29.490,213.200,53.900,15.590,5.516,322.300,83.600,21.350,7.442,baseline
1158.000,301.000,94.770,27.680,1278.000,322.700,109.200,29.550,212.400,53.780,15.570,5.502,321.800,83.930,21.430,7.440,baseline
1162.000,300.000,95.300,27.690,1275.000,323.200,108.800,29.580,209.700,53.790,15.640,5.516,322.500,84.020,21.360,7.513,baseline
1165.000,300.300,95.430,27.870,1275.000,325.300,109.300,29.700,213.000,53.940,15.740,5.551,322.900,84.160,21.580,7.493,baseline
1169.000,300.800,95.840,28.080,1277.000,323.700,108.800,29.770,213.200,53.940,15.820,5.539,326.500,84.590,21.640,7.637,baseline
1164.000,301.200,95.030,27.720,1272.000,322.200,108.500,29.410,214.100,54.190,15.780,5.537,321.600,83.050,21.100,7.324,easy
1161.000,296.500,93.940,27.310,1273.000,322.500,108.300,29.350,212.900,53.560,15.620,5.516,317.700,82.120,20.940,7.291,easy
1153.000,296.900,93.890,27.390,1277.000,322.400,108.100,29.480,211.300,53.460,15.670,5.486,319.800,82.710,21.130,7.326,easy
1163.000,298.000,93.740,27.420,1269.000,321.700,108.500,29.440,209.500,53.670,15.620,5.549,318.800,82.570,21.090,7.329,easy
1155.000,298.800,93.900,27.500,1276.000,321.800,108.600,29.460,214.200,53.990,15.660,5.545,319.000,82.950,21.150,7.319,easy
1156.000,299.600,94.200,27.520,1272.000,323.200,109.000,29.650,211.500,53.900,15.660,5.574,321.600,83.380,21.420,7.450,easy
1162.000,299.300,95.480,27.780,1276.000,321.900,108.800,29.420,213.000,54.150,15.830,5.582,324.200,84.020,21.240,7.394,easy
1157.000,297.000,93.840,27.130,1274.000,320.500,107.600,29.300,211.600,53.720,15.640,5.495,316.400,81.740,20.880,7.207,easy
1153.000,294.700,93.050,27.110,1272.000,321.600,108.000,29.420,212.700,53.570,15.610,5.494,315.700,82.030,20.860,7.188,easy
1151.000,297.000,93.320,27.110,1271.000,321.300,107.900,29.400,211.700,53.850,15.620,5.532,317.200,82.070,20.840,7.242,easy
1154.000,296.300,93.370,27.290,1268.000,320.900,108.100,29.450,210.200,53.690,15.690,5.549,316.000,81.970,20.990,7.263,easy
1155.000,296.800,93.720,27.280,1274.000,321.400,107.900,29.440,213.500,53.770,15.680,5.541,317.400,82.630,21.140,7.364,easy
1160.000,298.700,94.030,27.540,1274.000,323.500,108.700,29.490,210.500,54.100,15.730,5.580,320.200,83.210,21.240,7.494,easy
1159.000,297.700,94.010,27.500,1268.000,321.000,108.100,29.370,212.100,53.940,15.760,5.574,318.800,82.580,20.870,7.266,easy
1150.000,292.300,92.740,27.010,1271.000,320.500,107.700,29.390,210.100,53.500,15.670,5.536,314.000,81.340,20.720,7.221,easy
1153.000,294.300,92.770,27.030,1272.000,321.500,107.700,29.420,210.700,53.650,15.700,5.585,314.700,81.600,20.910,7.276,easy
1151.000,294.700,92.810,26.980,1277.000,321.000,107.900,29.370,211.800,53.840,15.720,5.581,315.700,81.740,20.790,7.312,easy
1155.000,295.900,92.880,27.010,1271.000,321.300,108.100,29.420,212.200,53.900,15.730,5.591,315.700,81.970,20.860,7.305,easy
1155.000,297.100,93.480,27.230,1274.000,320.900,108.000,29.500,212.200,54.040,15.770,5.574,316.800,82.250,20.910,7.312,easy
1152.000,297.200,93.620,27.340,1269.000,321.000,108.500,29.580,213.800,54.040,15.720,5.569,318.800,82.990,21.160,7.382,easy
1148.000,296.300,93.550,27.230,1264.000,319.800,107.600,29.370,213.000,54.130,15.730,5.561,317.000,82.200,20.670,7.134,easy
1141.000,292.900,92.340,26.820,1263.000,318.300,107.700,29.370,208.500,53.440,15.550,5.503,312.500,80.640,20.460,7.103,easy
1143.000,292.700,92.470,26.850,1264.000,318.900,107.600,29.360,209.000,53.500,15.570,5.491,313.900,81.000,20.640,7.180,easy
1149.000,293.100,92.830,26.860,1264.000,319.100,108.000,29.330,210.900,53.690,15.630,5.539,314.000,81.650,20.650,7.151,easy
1146.000,293.800,92.870,27.040,1263.000,320.000,107.900,29.490,210.600,53.860,15.630,5.560,314.200,81.530,20.780,7.232,easy
1147.000,293.800,93.480,27.240,1266.000,321.200,108.500,29.550,212.000,53.860,15.710,5.564,315.700,81.770,20.790,7.279,easy
1151.000,295.000,93.740,27.530,1269.000,321.600,109.200,29.690,211.300,53.810,15.710,5.596,319.100,82.210,21.180,7.345,easy
1153.000,296.900,93.800,27.360,1263.000,318.900,107.800,29.380,213.200,54.350,15.750,5.590,317.900,82.110,20.680,7.202,easy
1145.000,294.700,92.300,26.920,1261.000,318.400,107.700,29.410,209.900,53.630,15.520,5.504,312.300,80.560,20.450,7.125,easy
1141.000,291.400,91.960,26.840,1260.000,319.400,107.900,29.440,209.900,53.630,15.600,5.508,311.800,80.680,20.550,7.125,easy
1145.000,291.900,92.160,27.000,1266.000,319.200,108.100,29.410,210.500,53.710,15.550,5.527,312.600,80.490,20.510,7.165,easy
1139.000,294.100,92.810,26.980,1263.000,320.400,107.900,29.420,211.700,53.710,15.560,5.545,313.500,81.150,20.590,7.189,easy
1144.000,295.400,92.620,27.190,1264.000,320.700,108.500,29.580,213.400,53.770,15.620,5.542,314.200,81.630,20.780,7.244,easy
1148.000,296.500,93.920,27.530,1265.000,320.700,108.900,29.800,210.800,54.100,15.730,5.585,318.100,82.420,21.120,7.387,easy
1150.000,297.600,94.300,27.480,1266.000,321.000,108.200,29.470,213.000,54.320,15.770,5.563,318.500,81.790,20.750,7.225,easy
1142.000,293.000,92.470,26.850,1261.000,319.400,107.900,29.320,210.900,53.620,15.610,5.498,311.600,80.520,20.420,7.103,easy
1138.000,290.900,92.280,26.910,1263.000,320.100,107.800,29.390,210.400,53.490,15.500,5.477,311.900,80.380,20.340,7.076,easy
1141.000,292.900,92.310,27.000,1261.000,320.100,108.200,29.470,209.000,53.570,15.600,5.512,312.500,80.430,20.450,7.137,easy
1138.000,292.600,92.800,27.050,1260.000,320.100,108.200,29.510,211.200,53.640,15.630,5.518,312.700,80.970,20.430,7.176,easy
1140.000,293.000,92.860,27.280,1265.000,320.300,108.400,29.520,210.900,53.950,15.690,5.530,314.600,81.350,20.630,7.235,easy
1144.000,293.100,93.840,27.410,1266.000,321.300,109.100,29.650,214.300,53.830,15.670,5.597,317.900,82.330,21.010,7.307,easy
1155.000,296.400,94.390,27.750,1272.000,322.600,109.200,29.820,213.400,54.070,15.750,5.598,320.500,83.020,21.230,7.413,easy
1155.000,297.000,93.690,27.430,1265.000,320.000,108.000,29.460,213.900,54.260,15.650,5.548,314.800,81.740,20.520,7.180,easy
1141.000,293.000,92.320,26.950,1267.000,320.100,107.900,29.370,211.200,53.610,15.560,5.493,311.300,80.610,20.270,7.117,easy
1144.000,291.400,92.270,27.100,1264.000,320.000,108.000,29.410,209.900,53.560,15.530,5.476,312.100,80.870,20.550,7.156,easy
1141.000,292.800,92.830,27.040,1264.000,321.000,108.300,29.460,210.600,53.610,15.560,5.518,311.500,80.880,20.500,7.214,easy
1141.000,293.200,93.060,27.190,1268.000,322.400,108.600,29.580,212.600,53.690,15.560,5.544,313.200,81.110,20.610,7.238,easy
1147.000,295.100,93.450,27.420,1269.000,322.800,108.900,29.700,213.700,53.840,15.670,5.598,314.800,82.170,20.890,7.335,easy
1149.000,296.400,94.340,27.890,1269.000,323.100,109.400,29.860,212.700,54.300,15.740,5.631,318.800,82.460,20.950,7.442,easy
1158.000,299.000,94.950,27.920,1272.000,322.200,108.700,29.600,215.500,54.630,15.740,5.656,319.500,82.370,20.850,7.320,easy
1148.000,295.700,93.500,27.200,1268.000,321.600,108.500,29.450,214.300,53.770,15.580,5.537,312.800,80.720,20.560,7.212,easy
1148.000,294.200,93.190,27.310,1264.000,322.600,108.800,29.570,212.300,53.870,15.600,5.554,312.700,80.870,20.620,7.218,easy
1147.000,294.800,93.930,27.450,1268.000,321.400,108.800,29.610,213.100,53.720,15.600,5.573,314.200,81.680,20.730,7.315,easy
1154.000,296.600,93.400,27.510,1270.000,322.000,109.200,29.620,214.700,53.970,15.680,5.580,315.200,81.760,20.680,7.289,easy
1151.000,297.600,94.440,27.630,1267.000,323.200,109.400,29.740,213.500,54.260,15.690,5.615,317.900,82.200,20.910,7.410,easy
1155.000,298.600,94.880,27.870,1274.000,323.300,109.300,29.930,214.300,54.230,15.730,5.631,320.100,83.020,21.240,7.452,easy
1163.000,300.700,95.430,28.110,1275.000,325.200,109.800,29.930,215.700,54.620,15.840,5.650,323.500,83.830,21.410,7.556,easy
1158.000,298.900,95.770,27.790,1269.000,321.300,108.700,29.480,215.700,54.570,15.900,5.585,318.500,82.620,20.790,7.214,easy
1147.000,295.500,93.140,27.180,1267.000,320.200,108.000,29.430,212.500,53.720,15.510,5.483,313.800,81.490,20.510,7.184,easy
1151.000,295.500,93.960,27.380,1268.000,321.600,108.700,29.610,211.300,53.950,15.520,5.503,314.600,81.820,20.800,7.232,easy
1160.000,298.200,94.240,27.690,1267.000,322.500,108.800,29.590,212.400,54.040,15.590,5.511,317.100,82.420,20.800,7.313,easy
1156.000,299.000,94.570,27.830,1266.000,322.700,109.300,29.690,212.200,54.300,15.670,5.531,318.500,83.040,20.920,7.323,easy
1164.000,300.500,95.580,28.180,1268.000,324.700,109.800,29.830,214.600,54.540,15.700,5.574,322.400,83.330,21.260,7.387,easy
1170.000,303.000,96.500,28.460,1274.000,325.200,110.400,30.100,213.400,54.490,15.820,5.601,326.600,84.470,21.600,7.545,easy
1175.000,306.800,97.860,28.990,1276.000,326.000,110.400,29.850,215.700,55.150,15.930,5.640,331.100,85.490,21.640,7.502,easy
1166.000,301.300,96.080,28.090,1273.000,323.300,109.300,29.640,214.200,54.380,15.650,5.532,320.300,83.100,20.910,7.276,easy
1164.000,301.500,96.010,27.970,1273.000,324.000,109.300,29.750,212.400,54.090,15.570,5.505,319.600,83.090,21.000,7.383,easy
1173.000,303.900,96.300,28.340,1277.000,326.800,110.200,29.910,212.000,54.230,15.620,5.553,321.800,83.940,21.160,7.411,easy
1172.000,303.700,96.730,28.340,1276.000,325.600,110.100,29.940,214.500,54.500,15.700,5.557,323.000,84.060,21.260,7.435,easy
1174.000,305.800,97.390,28.750,1283.000,328.000,110.500,30.080,214.700,54.630,15.720,5.561,325.500,84.700,21.570,7.530,easy
1182.000,307.400,98.390,28.910,1280.000,328.000,111.200,30.210,215.300,54.930,15.830,5.597,328.300,85.750,21.830,7.650,easy
1186.000,310.000,99.320,29.240,1286.000,330.100,111.300,30.190,217.000,55.080,15.970,5.678,331.900,86.360,22.030,7.689,easy
1183.000,308.000,97.910,28.490,1274.000,326.400,110.400,29.850,216.400,54.850,15.800,5.560,326.500,84.280,21.390,7.465,easy
1178.000,306.300,97.410,28.410,1278.000,326.900,110.700,29.970,214.400,54.660,15.650,5.554,324.200,84.080,21.380,7.470,easy
1183.000,309.100,98.180,28.670,1287.000,327.300,111.000,30.100,215.800,54.600,15.740,5.592,326.400,85.020,21.570,7.586,easy
1186.000,309.600,98.030,28.830,1287.000,327.100,111.200,30.060,214.900,54.730,15.820,5.602,327.600,85.140,21.660,7.622,easy
1189.000,309.300,98.950,28.950,1285.000,328.800,111.400,30.110,214.400,54.930,15.900,5.617,330.000,85.770,22.020,7.667,easy
1198.000,312.700,99.370,29.180,1292.000,328.700,111.300,30.330,219.700,55.210,15.930,5.657,332.300,86.780,22.210,7.785,easy
1194.000,315.000,100.400,29.380,1287.000,329.000,111.200,30.140,217.900,55.320,15.960,5.660,334.100,86.330,21.910,7.642,easy
1192.000,311.100,98.090,28.650,1285.000,326.800,110.600,29.900,215.500,54.820,15.740,5.586,326.500,85.260,21.560,7.556,easy
1198.000,310.900,98.960,28.900,1288.000,328.300,110.800,30.090,214.500,54.810,15.780,5.553,328.100,85.270,21.790,7.604,easy
1198.000,313.600,99.570,29.100,1284.000,328.700,111.300,30.160,215.300,54.880,15.850,5.637,330.900,85.940,21.870,7.711,easy
1197.000,314.300,99.390,29.170,1293.000,329.000,111.300,30.210,216.000,55.120,15.960,5.620,332.200,86.640,22.040,7.739,easy
1209.000,313.500,100.300,29.490,1290.000,330.300,112.000,30.310,216.500,55.190,15.990,5.650,335.300,87.050,22.350,7.864,easy
1208.000,317.100,101.000,29.680,1292.000,332.400,112.100,30.340,218.200,55.470,16.020,5.673,337.800,88.310,22.560,7.937,easy
1210.000,314.900,100.400,29.220,1294.000,329.100,110.700,29.900,218.000,55.340,15.980,5.630,332.100,86.100,21.900,7.718,easy
1198.000,313.100,99.310,28.920,1286.000,328.900,111.100,29.970,217.500,54.770,15.810,5.574,329.600,85.710,21.910,7.685,easy
1200.000,314.900,99.790,29.220,1290.000,330.200,111.400,30.110,215.100,55.020,15.810,5.616,332.200,86.660,22.120,7.797,easy
1206.000,315.800,100.200,29.280,1290.000,330.300,111.600,30.110,217.000,55.270,15.880,5.624,333.500,86.840,22.390,7.794,easy
1211.000,316.800,100.500,29.500,1284.000,330.400,111.500,30.280,215.900,55.220,15.950,5.610,335.300,87.110,22.380,7.888,easy
1211.000,316.800,101.300,29.910,1290.000,330.600,111.700,30.290,218.300,55.400,16.030,5.644,337.900,88.830,22.560,7.988,easy
1215.000,318.500,101.900,29.910,1290.000,329.600,111.100,30.050,218.400,55.650,16.090,5.671,338.900,88.280,22.350,7.821,easy
1208.000,315.800,99.390,29.030,1282.000,328.400,110.900,29.870,217.000,54.880,15.770,5.595,331.700,86.280,22.120,7.742,easy
1205.000,313.200,99.970,29.180,1287.000,329.500,110.700,30.010,216.700,54.800,15.830,5.602,331.300,86.350,22.060,7.787,easy
1203.000,314.300,100.500,29.290,1283.000,329.600,111.000,29.980,214.700,54.950,15.890,5.637,333.400,87.220,22.360,7.826,easy
1207.000,315.800,100.400,29.500,1292.000,328.500,111.100,30.080,216.900,54.980,15.890,5.639,335.200,87.310,22.390,7.860,easy
1211.000,317.400,101.200,29.580,1288.000,329.300,111.500,30.220,218.800,55.160,15.980,5.652,337.300,87.590,22.660,7.963,easy
1216.000,318.900,101.700,29.800,1296.000,331.200,111.700,30.220,218.800,55.450,16.030,5.659,341.300,88.870,22.800,8.021,easy
1215.000,318.100,100.800,29.380,1285.000,327.700,110.000,29.750,219.100,55.360,15.920,5.603,333.900,87.090,22.220,7.768,easy
1201.000,315.000,99.440,29.100,1282.000,326.800,110.200,29.800,216.200,54.840,15.810,5.560,332.400,86.590,22.190,7.736,easy
1210.000,315.100,100.100,29.220,1288.000,328.500,110.400,29.860,217.400,54.750,15.850,5.642,333.600,87.670,22.300,7.820,easy
1210.000,315.000,100.100,29.560,1282.000,327.900,110.600,29.900,216.900,54.960,15.930,5.618,334.700,87.720,22.250,7.878,easy
1208.000,315.900,100.500,29.470,1287.000,328.800,111.200,29.970,218.200,55.190,15.910,5.613,336.900,88.300,22.460,7.918,easy
1207.000,316.800,101.200,29.720,1290.000,328.200,111.000,30.120,218.200,55.240,15.930,5.681,338.700,88.920,22.710,7.977,easy
1208.000,319.400,101.000,29.610,1282.000,326.800,110.400,29.680,218.000,55.270,15.940,5.673,337.700,88.290,22.340,7.877,easy
1207.000,313.000,99.610,29.090,1277.000,326.100,110.000,29.680,216.200,54.780,15.790,5.599,331.600,86.220,22.070,7.784,easy
1202.000,314.200,99.210,29.020,1280.000,327.000,109.900,29.700,216.300,54.640,15.810,5.585,332.500,86.900,22.160,7.818,easy
1206.000,313.900,100.100,29.180,1278.000,325.700,110.000,29.770,215.900,54.740,15.800,5.610,333.800,87.090,22.370,7.830,easy
1205.000,313.200,99.990,29.330,1276.000,326.600,110.000,29.780,217.800,54.800,15.850,5.644,334.500,87.410,22.570,7.888,easy
1205.000,315.300,100.400,29.460,1274.000,327.400,110.400,29.910,217.300,54.990,15.870,5.641,336.200,88.040,22.550,8.011,easy
1206.000,316.900,101.200,29.630,1275.000,326.400,109.900,29.660,217.300,55.140,15.970,5.675,337.400,88.490,22.520,7.906,easy
1196.000,311.700,99.070,28.880,1267.000,323.500,108.900,29.510,216.500,54.780,15.820,5.572,331.600,86.240,22.100,7.719,easy
1194.000,312.400,98.730,28.900,1268.000,323.500,109.200,29.580,213.300,54.550,15.700,5.583,331.200,86.010,22.220,7.754,easy
1195.000,313.700,99.430,28.970,1266.000,324.000,109.000,29.490,215.500,54.780,15.830,5.571,330.800,86.930,22.190,7.823,easy
1194.000,312.000,99.180,29.080,1265.000,323.600,109.000,29.590,216.600,54.570,15.770,5.626,332.600,86.910,22.320,7.820,easy
1194.000,311.100,99.400,29.180,1268.000,324.200,109.200,29.650,213.900,54.730,15.830,5.628,334.500,87.230,22.470,7.923,easy
1196.000,313.200,100.400,29.520,1269.000,323.700,109.300,29.550,217.500,54.880,15.930,5.667,336.300,88.000,22.480,7.873,easy
1189.000,311.000,98.830,28.720,1258.000,321.500,108.100,29.270,214.400,54.650,15.720,5.565,329.300,85.980,21.880,7.692,easy
1186.000,307.700,98.010,28.570,1259.000,321.400,107.900,29.270,213.800,54.200,15.650,5.551,327.400,85.670,21.960,7.725,easy
1185.000,309.900,98.400,28.710,1263.000,320.800,108.300,29.290,214.800,54.280,15.770,5.580,327.600,85.930,22.070,7.706,easy
1182.000,308.300,98.070,28.700,1257.000,320.900,108.200,29.260,215.700,54.470,15.730,5.609,328.800,86.410,21.960,7.707,easy
1183.000,308.400,98.060,28.730,1260.000,321.600,108.500,29.510,213.900,54.520,15.770,5.582,330.100,86.610,21.980,7.734,easy
1191.000,309.200,98.850,29.000,1258.000,321.400,108.600,29.380,214.700,54.500,15.800,5.603,332.100,87.040,22.290,7.845,easy
1186.000,308.900,97.380,28.420,1255.000,318.400,107.600,29.070,215.200,54.540,15.770,5.573,328.300,85.460,21.680,7.599,easy
1178.000,306.900,96.640,28.250,1251.000,318.700,107.400,28.980,214.000,53.990,15.620,5.521,324.100,84.920,21.620,7.532,easy
1175.000,305.600,96.310,28.230,1253.000,318.900,107.100,29.120,210.400,53.970,15.590,5.568,325.100,85.050,21.620,7.594,easy
1173.000,305.900,96.580,28.120,1247.000,318.400,107.600,29.160,213.300,54.090,15.610,5.526,325.000,85.010,21.770,7.610,easy
1175.000,304.800,96.820,28.300,1250.000,318.700,107.600,29.060,212.600,54.230,15.670,5.560,326.300,85.440,21.820,7.669,easy
1176.000,307.100,97.230,28.380,1253.000,317.700,107.200,29.200,212.400,54.210,15.630,5.591,327.500,85.740,22.040,7.672,easy
1175.000,307.000,98.180,28.630,1249.000,317.200,107.300,28.980,215.300,54.390,15.800,5.577,329.600,86.100,21.810,7.595,easy
1166.000,304.500,95.740,27.970,1246.000,316.100,106.700,28.920,213.400,54.020,15.510,5.504,321.900,83.690,21.370,7.489,easy
1168.000,303.300,95.550,27.870,1242.000,317.200,106.400,28.850,212.500,53.820,15.530,5.514,320.500,83.740,21.410,7.503,easy
1161.000,302.400,95.400,27.870,1248.000,316.700,107.000,28.880,211.000,53.840,15.580,5.525,321.700,84.040,21.370,7.488,easy
1169.000,303.300,95.570,27.930,1244.000,316.800,106.800,28.760,211.600,53.730,15.570,5.529,322.000,84.070,21.500,7.516,easy
1164.000,303.100,95.880,28.060,1247.000,317.000,106.800,29.020,212.500,53.820,15.580,5.545,322.000,84.510,21.610,7.537,easy
1169.000,305.500,96.520,28.230,1248.000,316.800,107.200,29.070,210.800,53.950,15.730,5.592,325.600,85.310,21.850,7.646,easy
1169.000,305.400,96.860,28.130,1242.000,317.200,106.000,28.770,212.100,54.120,15.790,5.614,323.900,84.520,21.430,7.449,easy
1161.000,300.800,94.690,27.660,1242.000,315.000,106.200,28.660,210.800,53.690,15.510,5.499,318.800,83.280,21.150,7.385,easy
1161.000,300.500,94.760,27.610,1245.000,314.900,106.400,28.750,210.700,53.420,15.500,5.481,318.200,83.290,21.090,7.406,easy
1166.000,301.900,95.000,27.680,1244.000,314.700,106.300,28.770,212.000,53.780,15.510,5.497,318.900,82.660,21.290,7.407,easy
1158.000,301.600,94.940,27.670,1241.000,315.700,106.400,28.870,211.400,53.360,15.530,5.520,319.600,83.720,21.230,7.445,easy
1161.000,302.400,95.720,27.810,1245.000,316.200,106.600,28.890,211.600,53.720,15.600,5.562,320.600,83.380,21.410,7.467,easy
1168.000,303.100,96.270,28.090,1246.000,317.800,106.800,29.070,210.800,53.830,15.720,5.592,323.000,84.830,21.650,7.574,easy
1166.000,304.700,96.500,28.220,1241.000,316.400,106.800,28.900,211.400,53.950,15.700,5.596,324.400,84.090,21.430,7.478,easy
1166.000,300.800,94.980,27.520,1246.000,316.100,106.300,28.700,210.200,53.450,15.500,5.517,317.900,82.600,21.030,7.336,easy
1165.000,300.900,94.610,27.470,1238.000,316.000,106.200,28.780,210.800,53.290,15.470,5.505,316.100,82.570,21.020,7.312,easy
1163.000,300.300,94.840,27.680,1246.000,316.900,106.100,28.800,210.600,53.530,15.510,5.514,316.700,82.600,21.090,7.406,easy
1164.000,301.200,95.200,27.690,1243.000,316.200,106.800,28.840,209.900,53.310,15.550,5.528,317.800,83.250,21.160,7.381,easy
1167.000,302.500,95.210,27.750,1245.000,315.800,106.900,28.920,210.400,53.510,15.500,5.537,319.000,82.980,21.260,7.402,easy
1169.000,303.600,96.450,28.100,1250.000,317.000,107.000,29.100,211.500,53.630,15.600,5.578,322.300,83.940,21.500,7.517,easy
1170.000,304.300,96.750,28.270,1252.000,318.000,107.800,29.170,211.400,53.930,15.640,5.581,324.100,84.630,21.650,7.583,easy
1177.000,306.900,97.500,28.500,1255.000,318.400,107.500,28.960,211.500,54.050,15.760,5.636,325.200,85.080,21.580,7.557,easy
1173.000,305.600,96.070,27.890,1253.000,316.900,106.700,28.840,209.800,53.580,15.580,5.539,318.200,82.920,21.010,7.346,easy
1170.000,301.600,95.680,27.680,1254.000,316.200,106.900,28.920,209.600,53.320,15.480,5.535,315.500,82.820,21.100,7.348,easy
1168.000,304.700,95.880,27.790,1253.000,317.100,106.800,28.930,209.300,53.200,15.550,5.534,317.500,82.900,21.280,7.435,easy
1177.000,305.400,96.150,27.830,1252.000,317.900,107.200,28.980,211.300,53.390,15.580,5.545,316.800,83.130,21.250,7.446,easy
1174.000,304.700,96.040,27.960,1256.000,318.500,107.100,29.040,210.900,53.560,15.600,5.552,319.800,83.290,21.360,7.483,easy
1183.000,306.200,96.540,28.320,1260.000,318.900,107.700,29.220,210.900,53.630,15.640,5.575,321.300,83.960,21.570,7.580,easy
1183.000,308.700,97.540,28.440,1264.000,319.900,108.400,29.230,211.700,53.910,15.780,5.624,324.000,84.310,21.700,7.596,easy
1184.000,309.800,98.220,28.660,1265.000,321.000,108.500,29.260,211.700,54.050,15.820,5.602,326.700,85.350,21.850,7.666,easy
1183.000,307.700,97.350,28.270,1256.000,319.400,107.600,29.070,212.700,54.010,15.680,5.574,321.100,83.460,21.310,7.451,easy
1184.000,306.700,96.770,28.050,1261.000,318.900,107.800,29.040,210.300,53.710,15.630,5.547,317.700,82.790,21.190,7.453,easy
1184.000,307.000,97.100,28.080,1261.000,320.000,108.000,29.100,211.200,53.410,15.540,5.577,320.400,82.970,21.370,7.516,easy
1189.000,308.600,97.110,28.290,1260.000,319.300,108.200,29.120,210.400,53.500,15.630,5.536,320.000,83.890,21.430,7.500,easy
1188.000,308.300,97.240,28.430,1265.000,319.700,107.600,29.120,210.300,53.740,15.620,5.578,320.800,84.210,21.510,7.515,easy
1191.000,310.700,97.670,28.600,1265.000,321.200,108.100,29.240,211.300,53.760,15.660,5.599,324.900,84.900,21.820,7.664,easy
1194.000,310.100,98.590,28.930,1271.000,321.500,108.800,29.400,212.500,54.120,15.770,5.623,326.800,85.630,22.050,7.733,easy
1202.000,313.600,99.150,29.050,1269.000,322.700,108.400,29.310,213.100,54.450,15.890,5.647,330.400,86.500,22.170,7.729,easy
1201.000,311.300,98.160,28.510,1259.000,319.300,107.600,29.050,213.000,54.020,15.680,5.581,322.500,84.190,21.490,7.505,easy
1197.000,308.400,97.780,28.420,1268.000,320.900,108.100,29.100,209.800,53.610,15.620,5.551,320.400,83.940,21.450,7.523,easy
1196.000,311.400,98.110,28.420,1266.000,320.300,107.900,29.140,211.300,53.420,15.670,5.573,322.000,83.920,21.490,7.574,easy
1196.000,311.800,98.150,28.670,1266.000,321.600,108.200,29.190,212.700,53.840,15.590,5.577,324.700,84.800,21.720,7.605,easy
1200.000,311.400,98.590,28.810,1266.000,321.700,108.700,29.110,212.600,53.920,15.680,5.586,325.000,85.180,21.770,7.676,easy
1199.000,313.400,99.090,28.970,1267.000,323.300,108.500,29.380,212.700,54.030,15.770,5.606,328.200,86.210,22.050,7.718,easy
1212.000,314.900,99.890,29.300,1271.000,322.800,108.800,29.460,213.900,54.200,15.830,5.632,331.600,86.640,22.350,7.767,easy
1215.000,315.500,99.780,29.170,1268.000,321.400,108.500,29.100,215.000,54.390,15.860,5.623,329.300,86.170,21.880,7.643,easy
1205.000,312.500,98.690,28.600,1269.000,320.800,107.800,29.070,212.000,53.840,15.660,5.557,322.800,84.050,21.640,7.537,easy
1198.000,312.100,98.740,28.630,1268.000,320.900,108.100,29.040,211.700,53.770,15.580,5.542,323.300,85.000,21.700,7.567,easy
1201.000,314.200,99.250,28.900,1266.000,322.100,108.100,29.060,212.400,53.580,15.660,5.561,325.700,85.310,21.830,7.670,easy
1206.000,312.900,99.250,28.860,1264.000,322.200,108.100,29.080,213.700,53.940,15.660,5.562,326.400,85.200,21.940,7.666,easy
1198.000,314.200,99.600,29.240,1267.000,323.500,108.400,29.110,214.400,53.810,15.660,5.583,328.300,86.220,22.080,7.783,easy
1208.000,315.100,100.200,29.370,1272.000,322.800,108.600,29.290,213.000,54.380,15.750,5.629,331.900,86.940,22.390,7.874,easy
1214.000,317.700,101.500,29.700,1268.000,321.400,108.400,29.110,215.200,54.270,15.870,5.652,334.400,87.490,22.420,7.785,easy
1209.000,314.100,99.570,28.870,1264.000,320.900,107.300,28.870,213.400,53.900,15.730,5.557,326.800,85.170,21.730,7.595,easy
1207.000,313.400,99.100,28.780,1266.000,319.700,108.000,28.980,211.800,53.880,15.580,5.540,325.400,85.280,21.770,7.680,easy
1204.000,314.400,99.460,29.010,1269.000,321.700,108.000,28.930,211.100,53.760,15.620,5.575,327.100,85.660,21.930,7.710,easy
1207.000,314.400,99.410,29.120,1267.000,321.400,107.500,28.930,213.400,53.700,15.610,5.547,327.900,85.670,22.040,7.734,easy
1203.000,315.000,100.100,29.290,1269.000,321.700,108.100,29.030,213.100,54.030,15.630,5.591,329.300,86.200,22.240,7.837,easy
1211.000,315.900,100.400,29.460,1263.000,322.400,108.400,29.090,213.000,54.050,15.770,5.606,332.900,86.820,22.510,7.953,easy
1208.000,317.600,101.400,29.850,1269.000,323.300,108.100,29.090,215.500,54.310,15.840,5.666,336.100,87.830,22.600,7.978,easy
1205.000,316.100,100.300,29.250,1264.000,320.800,107.400,28.730,214.800,53.980,15.740,5.554,329.200,85.850,22.010,7.747,easy
1204.000,312.600,99.020,28.880,1265.000,319.900,107.100,28.820,212.400,53.640,15.560,5.535,327.100,85.780,21.980,7.739,easy
1206.000,313.100,99.640,29.110,1260.000,320.700,107.300,28.790,211.200,53.670,15.650,5.554,328.200,86.030,22.110,7.783,easy
1209.000,314.400,100.000,29.190,1262.000,319.900,107.500,28.770,214.000,53.760,15.660,5.542,328.000,86.520,22.180,7.809,easy
1205.000,314.500,99.850,29.320,1261.000,320.500,107.200,28.870,215.200,53.730,15.640,5.538,330.700,86.870,22.350,7.892,easy
1206.000,317.200,100.500,29.560,1264.000,320.300,107.900,28.820,214.100,54.110,15.670,5.606,333.100,87.140,22.640,8.018,easy
1205.000,317.500,101.200,29.780,1263.000,321.600,107.900,28.950,215.200,54.190,15.770,5.618,336.800,88.250,22.790,8.103,easy
1205.000,316.100,100.900,29.470,1259.000,319.900,107.100,28.630,215.400,54.100,15.740,5.578,332.900,86.880,22.270,7.807,easy
1202.000,312.000,99.120,28.940,1254.000,318.500,106.800,28.600,210.900,53.810,15.520,5.502,327.800,86.070,22.180,7.789,easy
1199.000,312.300,99.690,29.300,1262.000,319.300,106.700,28.650,212.600,53.580,15.640,5.524,330.100,86.640,22.440,7.888,easy
1204.000,313.000,99.950,29.260,1256.000,318.000,106.600,28.650,213.100,53.910,15.700,5.531,332.000,87.130,22.430,7.934,easy
1207.000,314.700,100.300,29.420,1257.000,319.000,106.900,28.680,213.300,53.960,15.630,5.559,332.800,87.380,22.680,7.970,easy
1206.000,315.500,100.800,29.570,1259.000,319.800,106.900,28.810,214.200,54.230,15.760,5.592,335.100,88.300,22.780,8.046,easy
1209.000,316.500,101.200,29.890,1264.000,320.600,107.000,28.770,214.100,54.320,15.720,5.625,338.700,88.730,22.940,8.098,easy
1208.000,315.900,100.800,29.360,1253.000,317.800,106.300,28.400,214.500,54.200,15.620,5.547,333.500,86.800,22.480,7.918,easy
1195.000,314.700,99.700,29.130,1254.000,316.800,106.400,28.490,211.300,53.800,15.530,5.532,330.200,86.210,22.450,7.899,easy
1198.000,314.000,99.770,29.380,1252.000,318.600,106.400,28.510,213.500,53.770,15.570,5.521,333.700,87.500,22.550,7.989,easy
1198.000,314.300,100.200,29.560,1256.000,317.600,106.600,28.470,213.000,54.040,15.670,5.522,334.800,87.680,22.570,7.985,easy
1202.000,315.300,100.400,29.380,1252.000,319.800,106.600,28.530,214.500,54.000,15.710,5.556,335.200,88.210,22.830,8.072,easy
1199.000,315.400,101.200,29.760,1255.000,319.000,106.600,28.610,215.300,54.270,15.640,5.566,336.600,88.740,22.890,8.189,easy
1209.000,316.600,101.600,29.800,1252.000,317.700,106.300,28.280,216.200,54.360,15.740,5.566,337.500,88.460,22.720,8.018,easy
1198.000,312.200,99.680,29.040,1252.000,316.500,105.800,28.210,214.900,53.880,15.590,5.461,331.200,86.960,22.410,7.861,easy
1193.000,313.000,99.590,29.160,1252.000,318.100,105.900,28.280,211.700,53.670,15.570,5.486,331.900,87.350,22.570,7.927,easy
1196.000,313.500,100.200,29.300,1251.000,317.100,105.900,28.270,213.300,53.990,15.580,5.520,333.100,87.520,22.620,7.963,easy
1201.000,313.700,100.200,29.300,1253.000,317.300,105.900,28.330,213.100,53.760,15.720,5.536,333.500,87.950,22.770,8.021,easy
1201.000,314.100,100.600,29.540,1253.000,317.600,106.200,28.360,214.600,54.100,15.590,5.566,336.200,88.410,22.880,8.083,easy
1207.000,317.800,100.900,29.800,1255.000,318.300,106.200,28.340,215.200,54.200,15.680,5.624,337.900,88.530,23.000,8.062,easy
1194.000,313.200,99.500,28.950,1253.000,315.900,105.300,28.040,211.100,53.750,15.570,5.517,330.300,86.330,22.160,7.853,easy
1185.000,309.700,99.090,28.880,1245.000,315.500,104.800,28.060,211.400,53.540,15.420,5.469,327.900,86.000,22.240,7.906,easy
1190.000,310.100,99.390,29.070,1243.000,315.700,105.500,28.060,212.500,53.770,15.500,5.497,330.100,86.970,22.410,7.921,easy
1188.000,311.100,98.950,29.120,1248.000,315.900,105.300,28.120,214.700,53.770,15.560,5.487,330.000,86.870,22.580,7.901,easy
1194.000,311.400,99.520,29.140,1253.000,316.000,105.100,28.090,212.700,53.900,15.560,5.537,332.600,87.510,22.410,7.985,easy
1192.000,312.500,99.720,29.350,1252.000,316.500,105.500,28.150,212.000,54.020,15.640,5.544,334.000,88.310,22.710,7.986,easy
1194.000,312.700,98.770,28.970,1244.000,314.500,104.500,27.850,213.800,53.970,15.600,5.485,329.700,86.320,22.060,7.751,easy
1188.000,308.300,98.060,28.600,1240.000,314.800,104.300,27.850,210.700,53.400,15.480,5.451,326.400,85.140,22.030,7.771,easy
1182.000,308.100,97.740,28.640,1243.000,314.400,104.500,27.890,210.600,53.370,15.430,5.486,326.300,85.500,22.170,7.766,easy
1185.000,310.000,97.840,28.650,1244.000,313.800,104.500,27.910,210.600,53.510,15.440,5.517,326.900,85.490,22.080,7.766,easy
1185.000,308.300,97.840,28.650,1240.000,313.700,104.200,27.990,211.300,53.690,15.520,5.525,328.300,86.320,22.260,7.830,easy
1185.000,310.400,98.760,28.830,1246.000,314.500,104.900,28.090,211.700,53.950,15.550,5.557,329.200,86.850,22.340,7.898,easy
1186.000,310.400,99.060,29.000,1244.000,314.800,104.100,27.720,211.700,54.060,15.650,5.571,330.600,86.360,22.200,7.798,easy
1175.000,306.500,97.350,28.340,1240.000,312.600,103.900,27.730,213.500,53.570,15.510,5.490,323.500,84.820,21.740,7.625,easy
1173.000,306.200,96.840,28.300,1240.000,313.300,103.900,27.760,210.100,53.410,15.440,5.481,322.600,85.020,21.810,7.709,easy
1179.000,306.000,97.010,28.320,1237.000,312.800,104.300,27.780,210.400,53.360,15.530,5.495,325.100,85.100,21.960,7.682,easy
1173.000,306.100,96.940,28.250,1240.000,312.900,103.800,27.810,211.100,53.570,15.480,5.502,323.900,84.870,21.930,7.689,easy
1173.000,304.700,97.300,28.490,1240.000,313.500,104.400,27.910,211.000,53.480,15.610,5.532,325.100,85.540,21.990,7.717,easy
1178.000,307.400,97.930,28.660,1246.000,313.900,104.600,27.970,210.300,53.630,15.620,5.565,328.700,86.440,22.330,7.852,easy
1187.000,308.100,98.620,28.970,1244.000,314.500,104.800,27.870,212.700,53.860,15.700,5.583,329.600,87.170,22.300,7.795,easy
1178.000,305.300,97.270,28.210,1235.000,312.100,103.700,27.680,213.000,53.570,15.590,5.456,322.100,84.370,21.720,7.597,easy
1173.000,304.400,95.850,28.090,1238.000,313.400,104.400,27.710,208.800,53.150,15.420,5.472,320.800,84.080,21.540,7.565,easy
1171.000,304.900,96.260,28.080,1240.000,313.200,104.000,27.760,210.600,53.240,15.520,5.517,321.700,84.420,21.640,7.609,easy
1170.000,304.500,95.960,28.130,1243.000,313.400,104.000,27.830,211.200,53.550,15.510,5.499,321.800,84.510,21.740,7.668,easy
1171.000,305.200,96.690,28.250,1243.000,312.900,104.500,27.910,209.300,53.380,15.530,5.517,323.500,84.760,21.850,7.709,easy
1177.000,305.900,96.750,28.460,1243.000,313.800,104.500,28.010,211.000,53.670,15.590,5.526,324.700,85.190,22.050,7.797,easy
1181.000,307.600,97.670,28.750,1250.000,314.900,104.700,27.990,211.800,53.890,15.650,5.608,327.200,85.800,22.270,7.810,easy
1175.000,306.500,97.010,28.320,1241.000,313.300,104.400,27.810,210.600,53.700,15.610,5.521,322.800,84.280,21.580,7.586,easy
1173.000,304.000,95.870,28.070,1246.000,311.900,104.100,27.820,208.900,53.280,15.520,5.469,318.600,83.160,21.500,7.528,easy
1173.000,303.900,95.920,28.040,1242.000,313.600,104.200,27.880,210.600,53.240,15.450,5.516,319.900,84.090,21.720,7.609,easy
1175.000,302.900,96.190,28.130,1241.000,313.500,104.700,27.870,208.800,53.490,15.570,5.525,320.600,83.830,21.590,7.599,easy
1176.000,304.800,96.750,28.200,1246.000,313.500,104.600,27.990,209.800,53.540,15.560,5.509,320.200,83.930,21.720,7.606,easy
1176.000,306.700,97.200,28.290,1248.000,315.000,105.000,28.080,210.300,53.490,15.640,5.560,322.600,84.780,21.920,7.669,easy
1178.000,307.400,97.960,28.570,1249.000,316.500,105.500,28.190,210.100,53.860,15.670,5.600,325.500,85.100,22.090,7.814,easy
1184.000,308.500,97.710,28.480,1245.000,314.600,104.800,27.970,211.600,54.090,15.640,5.574,323.800,84.280,21.730,7.604,easy
1172.000,305.500,96.240,27.990,1247.000,312.800,104.600,27.970,208.500,53.460,15.530,5.528,318.000,83.040,21.400,7.505,easy
1174.000,303.600,96.490,28.090,1242.000,313.600,104.700,28.030,209.800,53.150,15.510,5.511,318.700,83.370,21.630,7.584,easy
1179.000,306.200,96.720,28.210,1245.000,314.400,104.400,28.020,208.300,53.430,15.550,5.529,319.400,83.750,21.510,7.591,easy
1176.000,305.500,96.400,28.210,1251.000,314.600,104.900,28.040,208.100,53.420,15.460,5.546,320.300,83.850,21.820,7.648,easy
1180.000,307.000,97.170,28.360,1251.000,315.100,104.800,28.110,209.600,53.640,15.680,5.560,321.300,84.200,21.740,7.682,easy
1180.000,307.100,97.710,28.560,1250.000,315.800,105.500,28.160,211.400,53.970,15.630,5.549,323.700,85.130,21.950,7.762,easy
1185.000,310.200,98.220,28.750,1251.000,316.000,105.100,28.090,211.700,54.040,15.780,5.623,325.500,85.130,21.910,7.663,easy
1181.000,305.500,96.770,28.220,1249.000,314.700,104.400,27.960,209.500,53.490,15.570,5.541,318.000,83.220,21.420,7.516,easy
1178.000,304.700,96.770,28.210,1245.000,315.300,104.800,27.980,209.900,53.290,15.580,5.517,317.400,83.150,21.470,7.574,easy
1181.000,307.200,96.640,28.170,1248.000,314.500,105.000,28.070,208.900,53.460,15.580,5.553,318.100,83.840,21.570,7.609,easy
1180.000,306.400,97.100,28.370,1254.000,315.600,105.100,28.090,209.900,53.780,15.570,5.523,319.000,84.010,21.570,7.596,easy
1183.000,307.900,97.200,28.370,1253.000,316.500,105.600,28.140,209.500,53.620,15.670,5.566,321.300,84.100,21.800,7.706,easy
1183.000,308.200,98.050,28.680,1250.000,316.600,105.400,28.220,211.200,53.890,15.740,5.565,323.400,84.990,21.930,7.774,easy
1192.000,308.900,98.320,28.840,1257.000,317.600,105.900,28.290,211.500,53.870,15.790,5.612,326.100,85.410,22.180,7.841,easy
1191.000,311.500,99.170,28.960,1256.000,315.600,105.500,28.010,214.500,54.380,15.810,5.636,325.400,85.250,21.910,7.674,easy
1188.000,307.300,97.440,28.360,1252.000,315.200,105.100,27.960,209.700,53.620,15.520,5.519,317.600,83.640,21.610,7.515,easy
1181.000,307.800,97.200,28.340,1250.000,315.000,105.400,28.020,210.200,53.350,15.480,5.515,317.700,83.110,21.470,7.539,easy
1183.000,307.500,97.550,28.420,1258.000,316.500,105.700,28.010,209.900,53.570,15.640,5.525,318.900,83.600,21.570,7.584,easy
1181.000,308.900,97.250,28.540,1254.000,316.300,105.300,28.060,209.100,53.760,15.560,5.549,319.000,83.740,21.620,7.588,easy
1189.000,308.400,97.930,28.620,1256.000,316.600,105.800,28.100,210.600,53.840,15.640,5.560,321.100,84.390,21.730,7.702,easy
1187.000,311.000,98.620,28.870,1255.000,317.000,106.200,28.320,211.500,53.880,15.730,5.593,323.100,85.130,21.880,7.748,easy
1196.000,312.300,99.330,29.160,1263.000,317.600,106.200,28.400,214.500,54.200,15.770,5.607,326.400,86.160,22.300,7.826,easy
1200.000,313.500,99.670,28.990,1255.000,317.300,105.500,28.030,211.800,54.270,15.790,5.591,325.600,85.160,21.910,7.625,easy
1189.000,309.400,98.150,28.490,1256.000,315.400,104.800,28.000,209.200,53.610,15.580,5.508,318.800,83.760,21.480,7.542,easy
1189.000,308.700,97.750,28.580,1254.000,317.600,105.300,28.090,209.600,53.530,15.600,5.510,318.400,83.860,21.480,7.590,easy
1194.000,309.700,98.210,28.730,1255.000,317.600,105.500,28.100,211.000,53.650,15.600,5.577,320.100,84.240,21.640,7.611,easy
1197.000,310.100,98.510,28.850,1260.000,317.800,105.700,28.230,211.800,53.590,15.630,5.555,320.500,84.100,21.790,7.679,easy
1197.000,312.600,98.500,28.840,1255.000,318.200,106.200,28.200,211.800,53.930,15.660,5.565,323.000,85.260,21.940,7.708,easy
1207.000,313.400,99.830,29.110,1266.000,318.700,106.200,28.310,211.100,54.070,15.720,5.574,325.100,85.560,22.180,7.783,easy
1207.000,313.700,100.100,29.430,1261.000,321.000,106.500,28.290,214.600,54.270,15.730,5.627,328.800,86.730,22.280,7.838,easy
1206.000,313.600,99.000,28.890,1257.000,317.100,105.700,28.100,213.800,54.220,15.650,5.544,322.800,84.230,21.670,7.579,easy
1194.000,312.100,98.580,28.730,1257.000,317.700,105.300,28.090,210.900,53.640,15.520,5.527,319.500,84.150,21.680,7.592,easy
1195.000,312.300,99.180,28.940,1262.000,318.100,105.900,28.170,211.100,53.800,15.620,5.550,320.800,84.700,21.780,7.729,easy
1196.000,313.400,99.450,28.950,1257.000,317.100,105.800,28.180,210.600,53.850,15.690,5.540,323.000,84.660,21.780,7.700,easy
1202.000,313.500,99.480,29.120,1258.000,318.500,106.200,28.310,213.600,54.030,15.660,5.561,324.600,85.280,21.920,7.731,easy
1203.000,315.600,99.850,29.300,1263.000,319.500,106.100,28.350,213.900,53.860,15.760,5.596,326.300,85.500,22.110,7.821,easy
1213.000,316.200,100.600,29.620,1260.000,320.500,106.800,28.460,214.700,54.280,15.810,5.616,329.500,86.460,22.410,7.912,easy
1214.000,317.300,101.100,29.430,1260.000,318.200,105.700,28.140,214.100,54.460,15.850,5.630,328.100,85.890,21.860,7.697,easy
1201.000,314.300,99.730,28.970,1257.000,318.100,106.000,28.110,212.900,53.860,15.620,5.541,323.300,84.380,21.790,7.657,easy
1202.000,314.400,99.570,29.130,1263.000,318.900,106.100,28.170,211.500,53.870,15.720,5.531,324.800,85.000,21.970,7.733,easy
1202.000,315.400,100.000,29.280,1262.000,318.700,106.100,28.310,211.800,53.920,15.730,5.578,326.000,85.320,21.980,7.735,easy
1202.000,314.200,100.300,29.340,1263.000,318.600,106.000,28.310,212.900,54.260,15.720,5.584,326.800,85.570,22.130,7.796,easy
1208.000,316.700,100.600,29.430,1264.000,320.300,106.500,28.360,213.200,54.230,15.750,5.614,329.000,86.480,22.320,7.885,easy
1205.000,317.300,101.700,29.810,1265.000,320.400,106.400,28.450,215.000,54.400,15.790,5.626,332.000,87.520,22.530,7.983,easy
1214.000,316.200,101.100,29.550,1259.000,319.200,105.800,28.100,214.000,54.440,15.870,5.600,329.500,85.860,22.020,7.787,easy
1202.000,314.400,99.940,29.170,1260.000,318.900,105.500,28.130,211.800,54.080,15.640,5.532,325.600,85.360,22.030,7.687,easy
1208.000,313.800,100.400,29.250,1262.000,318.100,106.300,28.220,212.300,53.790,15.650,5.584,326.500,85.840,22.170,7.820,easy
1206.000,316.500,100.800,29.500,1258.000,319.200,105.900,28.200,214.200,54.130,15.810,5.602,327.800,86.180,22.240,7.850,easy
1204.000,318.100,100.800,29.450,1265.000,319.800,106.200,28.210,213.000,54.060,15.730,5.606,328.900,86.370,22.300,7.901,easy
1209.000,317.700,101.300,29.710,1265.000,320.600,106.800,28.350,213.900,54.470,15.740,5.611,330.700,87.470,22.490,7.957,easy
1213.000,320.200,102.000,30.040,1258.000,322.100,106.500,28.350,214.000,54.700,15.900,5.635,335.600,88.350,22.870,8.089,easy
1218.000,319.700,101.600,29.810,1267.000,318.400,105.800,28.060,216.100,54.840,15.940,5.632,331.500,86.830,22.250,7.825,easy
1212.000,317.400,100.300,29.250,1260.000,319.800,105.500,28.040,213.700,54.230,15.640,5.550,325.600,85.360,22.110,7.775,easy
1204.000,316.200,100.400,29.410,1265.000,318.900,106.100,28.120,210.400,53.990,15.670,5.588,327.600,86.470,22.210,7.839,easy
1210.000,317.300,100.600,29.620,1260.000,320.000,106.100,28.150,212.300,54.120,15.770,5.617,329.200,86.440,22.420,7.831,easy
1213.000,318.000,101.200,29.590,1264.000,319.100,105.800,28.160,214.200,54.350,15.800,5.611,331.300,86.430,22.430,7.896,easy
1216.000,318.800,101.400,29.710,1264.000,319.400,105.900,28.310,214.300,54.420,15.850,5.629,334.000,87.690,22.740,8.014,easy
1219.000,320.000,102.500,30.120,1266.000,320.400,106.600,28.270,216.100,54.770,15.890,5.649,336.100,88.490,22.880,8.017,easy
1216.000,319.400,101.200,29.460,1254.000,318.900,105.500,28.040,214.400,54.500,15.810,5.601,331.100,85.970,22.270,7.835,easy
1211.000,316.000,100.600,29.450,1258.000,318.100,105.500,28.030,211.700,54.110,15.680,5.535,326.700,86.250,22.220,7.822,easy
1212.000,316.300,101.200,29.530,1266.000,318.300,105.700,28.110,214.200,54.180,15.740,5.571,329.500,86.890,22.380,7.890,easy
1217.000,318.100,101.300,29.580,1260.000,318.800,105.600,28.090,213.400,54.270,15.720,5.621,331.100,87.040,22.500,7.902,easy
1214.000,319.500,101.500,29.710,1262.000,319.600,106.000,28.140,215.500,54.580,15.820,5.655,332.000,87.630,22.620,7.981,easy
1220.000,320.100,101.900,29.910,1264.000,319.600,106.400,28.340,217.000,54.720,15.840,5.679,335.400,88.100,22.860,8.089,easy
1220.000,321.500,102.300,29.900,1259.000,318.300,105.500,28.010,216.300,54.750,15.900,5.683,335.200,87.560,22.580,7.911,easy
1211.000,316.300,100.700,29.340,1260.000,318.900,105.600,28.000,214.200,54.250,15.690,5.585,327.600,86.410,22.230,7.827,easy
1211.000,318.400,100.800,29.520,1260.000,318.300,105.600,28.040,211.500,53.930,15.710,5.583,328.500,86.700,22.450,7.900,easy
1212.000,318.500,100.900,29.720,1257.000,317.600,105.600,28.080,213.800,54.440,15.790,5.611,331.300,86.770,22.460,7.921,easy
1215.000,319.400,101.300,29.630,1258.000,319.100,105.900,28.140,213.900,54.340,15.820,5.608,332.300,87.390,22.570,7.957,easy
1210.000,319.100,101.700,29.840,1255.000,318.700,105.800,28.250,215.500,54.470,15.870,5.635,333.200,88.150,22.740,8.062,easy
1218.000,318.900,102.400,30.170,1265.000,319.600,106.300,28.160,215.000,54.700,15.930,5.671,336.500,88.340,22.890,8.025,easy
1225.000,317.600,101.000,29.430,1260.000,318.400,105.500,27.900,215.100,54.560,15.790,5.601,330.400,87.010,22.340,7.891,easy
1205.000,316.500,100.600,29.480,1255.000,318.100,105.200,27.960,212.600,54.030,15.710,5.571,328.000,86.430,22.290,7.806,easy
1215.000,318.200,101.000,29.570,1257.000,318.300,105.500,28.040,212.800,54.340,15.760,5.582,330.400,87.060,22.430,7.911,easy
1212.000,317.600,101.500,29.550,1253.000,318.500,105.800,28.100,213.300,54.450,15.780,5.629,331.500,87.270,22.580,7.956,easy
1210.000,319.300,101.700,29.720,1254.000,319.000,105.800,28.160,213.500,54.540,15.870,5.642,332.600,87.580,22.560,7.955,easy
1219.000,320.600,101.800,29.930,1261.000,318.200,106.100,28.300,214.500,54.800,15.850,5.648,335.800,88.180,22.870,8.090,easy
1223.000,320.700,102.500,30.130,1260.000,318.500,105.600,28.000,214.700,54.760,15.910,5.668,335.600,87.660,22.610,7.952,easy
1213.000,317.400,100.800,29.370,1257.000,318.100,105.200,28.030,214.300,54.310,15.720,5.566,330.200,86.310,22.350,7.848,easy
1207.000,317.000,100.700,29.390,1253.000,317.700,105.700,28.040,214.800,54.250,15.710,5.582,329.700,86.590,22.350,7.928,easy
1208.000,318.200,101.300,29.560,1254.000,318.400,105.800,28.050,213.600,54.260,15.790,5.639,331.300,87.260,22.490,7.911,easy
1216.000,318.000,101.400,29.610,1259.000,317.600,105.300,28.200,212.300,54.490,15.790,5.623,332.500,87.530,22.490,7.950,easy
1217.000,317.100,101.900,29.780,1258.000,318.700,105.600,28.210,213.500,54.480,15.880,5.632,334.400,87.670,22.670,8.006,easy
1217.000,319.700,101.900,29.910,1258.000,319.100,106.000,28.220,214.800,54.730,15.960,5.666,335.700,88.480,22.900,8.067,easy
1212.000,318.700,100.700,29.400,1253.000,317.500,105.300,27.900,213.800,54.750,15.880,5.592,331.300,86.460,22.330,7.796,easy
1212.000,316.500,100.200,29.290,1253.000,316.600,105.000,27.960,213.600,54.050,15.690,5.591,327.500,86.200,22.200,7.793,easy
1216.000,317.600,100.500,29.350,1252.000,316.900,105.400,27.980,213.400,54.000,15.790,5.595,329.500,86.630,22.370,7.920,easy
1210.000,315.800,100.600,29.360,1258.000,317.400,105.300,28.010,212.000,54.210,15.760,5.595,330.200,86.590,22.330,7.852,easy
1208.000,318.300,100.600,29.560,1256.000,315.600,105.500,28.070,213.200,54.270,15.770,5.588,331.300,86.970,22.490,7.920,easy
1207.000,319.200,101.200,29.630,1255.000,317.400,105.400,28.140,215.100,54.440,15.840,5.629,333.600,88.050,22.710,8.002,easy
1219.000,319.800,101.600,29.720,1253.000,316.500,105.100,27.920,214.400,54.640,15.870,5.638,333.300,87.190,22.500,7.846,easy
1206.000,316.600,99.970,29.050,1251.000,315.700,104.500,27.870,212.100,53.890,15.690,5.544,326.700,85.640,22.030,7.729,easy
1204.000,314.500,99.930,28.990,1255.000,316.100,105.200,27.920,211.000,53.760,15.640,5.571,324.700,85.540,22.110,7.743,easy
1204.000,316.700,100.000,29.070,1247.000,316.300,105.200,27.920,213.200,53.860,15.680,5.574,326.500,85.970,21.910,7.759,easy
1206.000,316.900,99.750,29.100,1247.000,316.300,104.800,27.910,212.600,53.900,15.760,5.578,326.300,85.760,22.110,7.763,easy
1204.000,316.300,99.990,29.120,1250.000,316.400,105.300,28.040,212.500,53.740,15.720,5.595,327.100,85.970,22.240,7.820,easy
1205.000,316.000,100.200,29.410,1251.000,315.800,105.600,28.030,213.700,54.140,15.730,5.588,330.500,86.550,22.260,7.848,easy
1200.000,314.600,99.110,28.840,1247.000,315.600,104.500,27.810,213.700,53.750,15.750,5.553,324.800,85.360,21.710,7.597,easy
1195.000,313.300,98.340,28.550,1247.000,313.700,104.500,27.790,210.100,53.590,15.590,5.510,322.000,84.620,21.730,7.576,easy
1199.000,312.200,98.730,28.630,1246.000,314.100,104.600,27.820,210.200,53.550,15.570,5.526,322.300,84.650,21.830,7.638,easy
1199.000,312.000,98.280,28.750,1239.000,314.000,104.600,27.820,210.700,53.720,15.630,5.557,322.500,84.490,21.640,7.629,easy
1193.000,311.900,98.670,28.650,1247.000,313.900,104.100,27.900,210.600,53.650,15.620,5.578,323.000,84.560,21.740,7.671,easy
1199.000,310.400,98.750,28.950,1243.000,314.500,104.600,27.900,210.400,53.640,15.650,5.583,324.200,85.080,21.830,7.729,easy
1198.000,313.100,99.370,28.940,1241.000,313.800,104.400,27.700,211.600,54.000,15.650,5.585,325.500,85.090,21.760,7.583,easy
1185.000,310.900,97.840,28.350,1237.000,312.900,103.700,27.690,209.100,53.540,15.530,5.506,319.300,83.500,21.400,7.474,easy
1185.000,310.300,97.020,28.240,1240.000,313.100,103.700,27.680,209.000,53.180,15.470,5.512,317.800,83.230,21.280,7.475,easy
1185.000,308.500,97.700,28.320,1239.000,312.800,103.900,27.690,207.700,53.180,15.500,5.522,318.100,83.030,21.350,7.469,easy
1184.000,308.500,96.790,28.090,1234.000,310.900,104.000,27.690,208.100,52.980,15.450,5.532,316.200,82.670,21.210,7.430,bogus
1183.000,307.300,96.440,28.010,1231.000,311.800,104.000,27.740,208.800,53.040,15.400,5.509,314.300,82.640,21.210,7.456,bogus
1179.000,305.900,96.820,28.200,1240.000,312.700,103.900,27.930,208.700,53.150,15.580,5.529,316.200,82.260,21.310,7.467,bogus
1186.000,307.500,96.910,28.260,1233.000,312.500,104.700,27.960,210.000,53.280,15.560,5.544,318.100,83.250,21.490,7.589,bogus
1184.000,309.500,97.330,28.530,1243.000,313.300,104.900,27.990,210.600,53.630,15.590,5.577,320.100,83.930,21.640,7.623,bogus
1187.000,313.500,100.500,29.510,1234.000,315.300,106.300,28.380,211.800,53.360,15.610,5.560,329.000,85.360,21.770,7.589,hard
1194.000,316.400,101.000,29.790,1234.000,316.700,106.300,28.540,211.300,53.590,15.660,5.594,332.500,85.760,21.860,7.698,hard
1190.000,315.800,100.600,29.440,1236.000,313.800,105.800,28.120,212.300,53.640,15.620,5.534,328.100,85.230,21.510,7.474,hard
1177.000,311.000,99.330,28.950,1224.000,313.300,105.200,28.120,210.900,52.970,15.400,5.485,324.700,84.130,21.160,7.415,hard
1177.000,310.900,99.060,28.970,1228.000,314.500,105.300,28.150,210.800,52.960,15.420,5.482,325.100,83.760,21.470,7.475,hard
1183.000,312.800,99.850,29.130,1231.000,313.600,105.200,28.170,210.100,52.900,15.520,5.479,324.400,84.250,21.470,7.452,hard
1183.000,311.700,99.510,29.200,1226.000,314.400,105.600,28.260,209.500,53.190,15.550,5.522,327.500,84.460,21.520,7.460,hard
1181.000,312.200,99.910,29.310,1235.000,314.000,105.800,28.340,209.700,53.390,15.490,5.550,328.800,85.360,21.640,7.631,hard
1182.000,315.200,100.500,29.620,1230.000,314.100,105.300,28.260,212.500,53.390,15.600,5.545,330.400,85.420,21.540,7.561,hard
1179.000,309.700,98.570,28.840,1226.000,312.400,104.600,27.970,209.100,52.890,15.430,5.472,322.300,83.380,21.160,7.330,hard
1177.000,308.000,98.780,28.650,1221.000,311.800,104.900,28.100,208.700,52.670,15.370,5.454,321.700,83.310,21.200,7.314,hard
1175.000,310.000,98.170,28.870,1231.000,312.500,104.700,28.110,209.300,52.930,15.400,5.462,323.300,83.760,21.250,7.428,hard
1176.000,310.400,98.620,28.990,1229.000,311.800,105.000,28.120,209.200,52.960,15.390,5.456,324.400,84.130,21.250,7.422,hard
1176.000,310.800,99.590,28.960,1230.000,312.800,105.100,28.190,209.100,53.050,15.440,5.491,325.500,84.400,21.530,7.526,hard
1177.000,312.700,100.100,29.330,1231.000,315.300,105.700,28.300,209.400,53.070,15.520,5.515,328.200,85.120,21.780,7.658,hard
1187.000,312.600,98.850,29.090,1226.000,312.700,104.200,27.880,209.700,52.930,15.450,5.500,324.300,83.620,21.040,7.324,hard
1169.000,307.700,98.210,28.520,1225.000,311.900,103.900,27.940,209.300,52.530,15.310,5.435,321.500,82.830,21.100,7.312,hard
1173.000,307.400,98.050,28.760,1225.000,311.700,104.300,27.980,207.100,52.580,15.240,5.425,322.800,83.730,21.240,7.386,hard
1167.000,308.400,98.540,28.890,1227.000,311.000,104.800,27.990,209.200,52.690,15.380,5.468,322.900,83.560,21.340,7.400,hard
1176.000,308.600,98.560,28.990,1227.000,312.000,104.500,28.070,207.400,52.770,15.320,5.467,324.800,83.660,21.410,7.504,hard
1180.000,310.600,99.450,29.160,1230.000,312.100,104.900,28.200,209.300,53.030,15.410,5.500,326.600,84.620,21.700,7.601,hard
1180.000,311.200,99.830,29.400,1230.000,313.900,104.900,28.090,209.100,53.180,15.540,5.530,329.400,85.390,21.740,7.484,hard
1175.000,308.300,99.040,28.720,1222.000,310.600,104.100,27.920,208.700,52.760,15.320,5.410,322.300,83.180,21.250,7.386,hard
1169.000,306.000,97.900,28.800,1226.000,311.600,104.600,27.980,206.700,52.390,15.310,5.444,320.200,83.180,21.190,7.416,hard
1177.000,309.300,98.180,28.990,1222.000,312.500,104.300,28.050,208.300,52.770,15.340,5.450,322.900,83.730,21.340,7.397,hard
1177.000,307.300,98.310,28.970,1223.000,311.600,104.200,28.050,208.400,52.710,15.440,5.478,324.000,83.850,21.430,7.486,hard
1175.000,310.100,98.830,29.110,1231.000,311.600,104.800,28.110,207.000,52.710,15.330,5.497,326.900,84.430,21.590,7.583,hard
1178.000,310.700,99.530,29.480,1230.000,311.200,105.400,28.220,209.300,52.930,15.490,5.516,329.700,85.460,21.910,7.648,hard
1185.000,313.000,99.880,29.270,1232.000,312.300,104.200,27.920,209.500,53.200,15.500,5.492,327.100,84.790,21.320,7.490,hard
1177.000,308.200,98.340,28.690,1227.000,310.900,104.100,27.910,206.400,52.540,15.270,5.448,322.500,83.160,21.280,7.410,hard
1177.000,307.500,98.640,28.950,1225.000,312.700,104.700,28.050,208.500,52.530,15.360,5.470,323.600,84.240,21.450,7.466,hard
1180.000,308.600,98.590,29.080,1229.000,311.800,104.700,28.060,208.200,52.720,15.430,5.481,325.000,84.330,21.490,7.551,hard
1177.000,309.700,99.070,29.250,1230.000,312.000,104.700,28.050,209.000,52.770,15.350,5.519,327.200,84.470,21.670,7.585,hard
1189.000,311.500,99.980,29.280,1230.000,313.100,105.200,28.140,208.300,52.800,15.420,5.520,329.100,85.850,21.760,7.698,hard
1189.000,313.300,100.800,29.630,1231.000,311.900,104.500,27.970,210.300,53.130,15.530,5.572,330.400,85.570,21.820,7.591,hard
1182.000,310.100,98.820,28.970,1228.000,311.700,104.100,27.840,207.400,52.590,15.300,5.442,325.200,83.970,21.460,7.451,hard
1179.000,309.100,98.750,29.030,1231.000,311.200,104.800,27.970,208.300,52.520,15.300,5.462,324.200,83.950,21.580,7.530,hard
1186.000,312.000,99.520,29.390,1232.000,310.800,104.600,27.950,210.700,52.690,15.350,5.488,328.100,84.390,21.560,7.556,hard
1182.000,310.700,99.370,29.340,1231.000,311.900,104.600,28.040,209.900,52.780,15.370,5.507,327.100,84.970,21.800,7.607,hard
1185.000,312.500,100.100,29.410,1233.000,313.400,104.700,28.040,208.900,52.830,15.390,5.468,329.900,85.540,22.030,7.716,hard
1187.000,313.800,101.000,29.750,1233.000,312.200,104.600,28.080,209.800,53.010,15.520,5.506,333.600,86.390,22.010,7.676,hard
1187.000,311.300,98.910,29.150,1228.000,311.200,103.900,27.760,208.900,52.810,15.340,5.454,326.500,84.160,21.460,7.536,hard
1179.000,310.700,98.990,29.070,1229.000,311.300,103.800,27.780,208.500,52.480,15.260,5.447,324.400,84.730,21.630,7.549,hard
1179.000,310.600,99.640,29.310,1229.000,312.200,103.900,27.820,208.300,52.490,15.330,5.480,326.300,84.570,21.680,7.587,hard
1183.000,311.200,99.440,29.290,1233.000,312.200,104.200,27.800,208.700,52.520,15.350,5.449,327.300,84.930,21.730,7.629,hard
1184.000,312.200,100.200,29.500,1230.000,312.100,104.100,27.870,207.200,52.540,15.290,5.478,329.000,85.370,21.900,7.679,hard
1187.000,311.900,100.600,29.810,1235.000,311.400,104.200,27.800,208.600,52.760,15.410,5.486,330.700,85.650,21.830,7.666,hard
1186.000,311.400,99.280,29.030,1228.000,310.500,102.900,27.620,208.200,52.370,15.300,5.392,324.800,84.350,21.390,7.507,hard
1182.000,308.100,98.190,28.900,1225.000,310.700,103.700,27.600,207.200,52.250,15.200,5.395,323.800,84.040,21.480,7.557,hard
1178.000,310.500,99.070,29.190,1223.000,310.700,103.500,27.680,205.800,52.200,15.240,5.433,325.700,84.530,21.660,7.574,hard
1176.000,309.100,99.290,29.110,1225.000,309.900,103.800,27.620,207.500,52.380,15.190,5.365,325.700,84.620,21.570,7.581,hard
1181.000,309.500,99.160,29.190,1226.000,310.900,104.100,27.660,208.700,52.080,15.180,5.408,327.600,84.700,21.620,7.584,hard
1179.000,312.100,100.100,29.340,1227.000,310.300,103.800,27.620,205.700,51.970,15.170,5.379,329.000,84.730,21.550,7.515,hard
1175.000,308.000,98.030,28.870,1222.000,308.100,102.700,27.420,207.000,51.640,14.990,5.306,322.700,82.880,20.890,7.308,hard
1173.000,306.800,97.410,28.660,1221.000,308.100,102.500,27.460,203.500,51.170,14.880,5.289,320.000,82.590,20.990,7.331,hard
1175.000,306.800,97.950,28.850,1225.000,308.500,102.900,27.530,205.200,51.290,14.950,5.309,323.100,83.200,21.260,7.418,hard
1173.000,306.700,98.230,28.810,1223.000,309.100,102.900,27.450,205.100,51.520,15.000,5.309,322.800,83.500,21.250,7.459,hard
1172.000,308.200,98.490,28.950,1227.000,308.300,102.700,27.510,206.000,51.720,15.060,5.335,324.300,84.040,21.490,7.535,hard
1177.000,307.800,98.800,29.060,1225.000,309.800,103.100,27.540,206.400,51.870,15.160,5.391,327.300,84.590,21.690,7.544,hard
1176.000,308.500,97.950,28.560,1220.000,307.200,102.500,27.320,206.100,51.560,14.970,5.276,320.200,82.830,20.960,7.326,hard
1169.000,302.800,96.210,28.410,1220.000,307.700,102.000,27.300,204.600,51.260,14.860,5.285,318.600,82.370,20.910,7.374,hard
1161.000,302.300,96.420,28.440,1218.000,307.000,102.400,27.290,204.900,51.180,14.920,5.254,318.000,82.470,21.040,7.406,hard
1165.000,304.100,97.060,28.370,1218.000,307.100,102.200,27.370,204.700,51.130,14.900,5.313,319.100,82.640,21.090,7.382,hard
1162.000,303.800,96.630,28.480,1218.000,306.600,102.200,27.340,204.000,51.540,14.890,5.320,320.500,82.980,21.140,7.419,hard
1172.000,305.200,97.310,28.650,1220.000,308.100,102.600,27.420,204.000,51.440,15.030,5.345,322.100,83.930,21.430,7.513,hard
1178.000,305.100,97.300,28.590,1217.000,307.100,102.000,27.220,204.700,51.780,15.050,5.310,321.200,82.990,21.070,7.380,hard
1161.000,301.500,95.520,28.030,1210.000,305.800,101.600,27.190,203.500,51.070,14.840,5.230,316.400,81.850,20.830,7.282,hard
1169.000,300.800,95.220,27.950,1212.000,306.000,101.600,27.080,202.800,51.200,14.880,5.252,315.900,81.870,20.830,7.369,hard
1161.000,301.600,95.960,27.970,1217.000,306.100,101.400,27.140,202.700,51.320,14.870,5.288,316.800,82.530,21.050,7.385,hard
1158.000,300.900,95.490,28.020,1214.000,305.800,102.000,27.220,202.000,51.270,14.860,5.305,317.500,82.230,21.040,7.454,hard
1163.000,301.800,96.200,28.240,1217.000,307.300,102.100,27.290,202.700,51.390,14.970,5.340,319.200,83.240,21.330,7.495,hard
1159.000,304.300,96.660,28.400,1215.000,306.800,101.900,27.210,203.100,51.650,15.050,5.353,321.500,83.470,21.220,7.471,hard
1159.000,300.900,95.140,27.720,1212.000,305.500,101.600,27.100,204.400,51.160,14.840,5.285,315.300,81.450,20.750,7.319,hard
1151.000,300.500,94.680,27.780,1208.000,305.200,101.700,27.230,201.900,51.070,14.800,5.263,314.300,81.710,20.930,7.334,hard
1158.000,300.000,94.740,27.890,1221.000,306.300,102.400,27.260,203.000,51.180,14.820,5.302,316.000,82.130,20.940,7.412,hard
1159.000,300.700,95.590,27.970,1219.000,305.600,102.000,27.350,201.600,51.220,14.840,5.307,315.800,82.050,21.070,7.369,hard
1162.000,300.600,95.080,28.130,1216.000,307.400,102.300,27.380,203.600,51.300,14.900,5.309,317.100,82.820,21.250,7.490,hard
1164.000,303.500,96.150,28.310,1223.000,307.000,102.300,27.420,204.400,51.320,14.980,5.340,321.000,83.560,21.380,7.466,hard
1160.000,301.000,95.280,27.760,1216.000,306.600,101.900,27.230,202.700,51.260,14.870,5.299,315.400,81.790,20.810,7.341,hard
1159.000,299.300,94.750,27.910,1219.000,306.700,102.300,27.350,202.700,51.190,14.800,5.265,314.800,81.990,20.950,7.361,hard
1162.000,300.800,95.330,28.100,1224.000,306.400,102.200,27.320,202.200,50.980,14.900,5.294,316.100,82.750,21.110,7.392,hard
1165.000,301.900,95.230,28.050,1211.000,307.800,102.500,27.450,201.700,51.280,14.890,5.282,316.800,82.560,21.080,7.456,hard
1158.000,301.000,96.070,28.210,1222.000,308.500,102.700,27.540,205.000,51.250,14.970,5.311,319.400,83.170,21.310,7.548,hard
1165.000,302.800,96.840,28.510,1225.000,308.000,103.400,27.530,203.100,51.480,14.990,5.345,322.000,83.800,21.450,7.533,hard
1163.000,301.700,95.870,28.040,1226.000,307.700,102.500,27.380,205.000,51.330,14.910,5.292,316.100,82.520,21.080,7.371,hard
1165.000,301.500,95.450,28.100,1222.000,308.100,102.600,27.480,203.900,51.030,14.810,5.264,316.600,82.490,21.160,7.445,hard
1162.000,302.300,95.830,28.310,1224.000,308.800,103.300,27.550,202.100,51.260,14.870,5.328,319.100,82.900,21.160,7.536,hard
1166.000,302.700,95.990,28.340,1225.000,308.100,103.000,27.540,204.000,51.180,14.920,5.286,320.200,83.050,21.400,7.578,hard
1171.000,303.800,96.780,28.470,1227.000,310.300,103.700,27.690,203.900,51.620,14.920,5.339,320.500,83.750,21.460,7.637,hard
1173.000,305.700,97.610,28.870,1227.000,312.300,104.000,27.690,204.100,51.670,15.040,5.379,323.800,84.470,21.760,7.682,hard
1173.000,303.600,96.580,28.250,1229.000,308.400,103.100,27.560,206.500,51.540,14.890,5.295,319.400,83.050,21.290,7.492,hard
1168.000,302.500,96.230,28.330,1224.000,310.200,103.200,27.710,202.500,51.310,14.830,5.279,318.600,83.450,21.340,7.547,hard
1167.000,304.000,97.160,28.480,1230.000,311.100,104.200,27.750,203.900,51.070,14.870,5.297,320.900,83.770,21.580,7.561,hard
1175.000,305.000,97.080,28.600,1228.000,311.100,103.500,27.830,204.300,51.410,14.970,5.317,321.200,83.650,21.590,7.606,hard
1177.000,305.900,97.720,28.860,1233.000,312.100,104.200,27.890,205.000,51.640,15.010,5.340,323.400,84.290,21.710,7.734,hard
1174.000,307.300,98.520,29.050,1232.000,312.700,104.600,27.950,206.200,51.640,15.040,5.394,326.000,85.340,22.100,7.769,hard
1187.000,306.600,97.600,28.560,1234.000,311.100,104.100,27.620,206.100,51.710,14.950,5.306,322.100,84.250,21.440,7.579,hard
1171.000,305.500,97.360,28.590,1227.000,310.900,104.000,27.760,205.200,51.270,14.920,5.263,321.000,83.640,21.530,7.616,hard
1174.000,306.800,97.370,28.740,1232.000,312.400,104.300,27.830,204.300,51.550,14.960,5.323,322.700,84.350,21.720,7.683,hard
1178.000,308.000,98.210,28.830,1232.000,312.300,104.600,27.870,203.900,51.740,14.990,5.349,325.100,84.840,21.850,7.737,hard
1175.000,307.700,98.300,29.000,1235.000,312.300,104.500,27.970,207.200,51.660,15.010,5.329,326.700,85.530,22.120,7.773,hard
1184.000,309.500,99.400,29.280,1238.000,313.000,105.200,28.090,205.700,51.910,15.170,5.375,329.600,86.700,22.250,7.889,hard
1189.000,310.000,98.760,28.920,1235.000,312.300,104.600,27.820,206.300,51.900,15.020,5.302,325.300,84.690,21.760,7.705,hard
1184.000,306.700,97.820,28.740,1232.000,312.900,104.100,27.880,203.800,51.440,14.870,5.286,323.300,84.410,21.710,7.665,hard
1184.000,309.300,98.380,28.980,1240.000,312.400,105.200,27.920,204.300,51.630,14.900,5.357,326.200,85.230,22.030,7.760,hard
1184.000,307.400,98.740,29.070,1235.000,313.700,105.000,27.980,206.100,51.810,14.970,5.322,326.400,85.540,22.060,7.805,hard
1186.000,310.100,98.920,29.190,1242.000,312.800,105.300,28.090,207.800,51.750,15.050,5.340,328.100,86.060,22.220,7.827,hard
1185.000,309.600,99.590,29.420,1236.000,315.300,105.200,28.060,207.600,51.850,15.020,5.344,330.900,86.730,22.360,7.888,hard
1192.000,309.300,98.830,28.910,1232.000,311.300,104.500,27.760,206.300,51.750,14.930,5.315,325.000,84.990,21.750,7.631,hard
1180.000,307.200,98.520,28.720,1233.000,312.100,104.500,27.900,203.700,51.410,14.960,5.250,324.900,84.640,21.770,7.720,hard
1180.000,309.200,98.880,29.070,1239.000,312.700,104.800,27.900,205.400,51.640,14.960,5.306,326.700,85.850,21.910,7.783,hard
1182.000,309.600,98.920,29.110,1241.000,312.900,105.100,27.950,206.700,51.760,14.960,5.294,328.400,85.680,21.880,7.822,hard
1194.000,311.200,99.280,29.370,1234.000,314.200,105.200,28.070,206.800,51.900,15.020,5.315,330.000,85.680,22.290,7.840,hard
1192.000,312.600,99.870,29.450,1236.000,314.400,104.900,27.840,207.000,51.900,15.080,5.339,332.400,86.410,22.200,7.771,hard
1182.000,308.700,98.620,28.800,1237.000,312.500,104.500,27.720,207.300,51.690,14.920,5.262,325.300,84.220,21.630,7.611,hard
1186.000,308.400,98.320,28.800,1232.000,312.000,104.200,27.760,205.100,51.420,14.850,5.264,323.300,84.390,21.570,7.635,hard
1186.000,309.900,98.430,28.820,1235.000,312.200,104.400,27.800,206.100,51.550,14.820,5.288,324.400,85.150,21.890,7.665,hard
1186.000,307.400,98.650,28.940,1227.000,312.200,104.700,27.840,205.300,51.390,14.940,5.270,325.500,84.820,21.820,7.685,hard
1187.000,310.400,98.670,29.050,1236.000,312.100,104.700,27.910,206.200,51.620,14.920,5.313,327.900,85.350,21.970,7.745,hard
1186.000,310.300,99.470,29.220,1233.000,312.800,104.300,27.790,207.600,51.730,14.930,5.315,328.800,85.280,21.960,7.661,hard
1178.000,307.800,97.610,28.470,1236.000,310.400,103.800,27.600,203.900,51.280,14.860,5.237,321.600,83.510,21.470,7.486,hard
1172.000,306.700,97.450,28.570,1224.000,311.200,103.900,27.660,204.000,51.350,14.800,5.249,320.800,83.710,21.500,7.578,hard
1175.000,307.700,97.650,28.540,1227.000,311.600,103.900,27.690,202.400,51.270,14.820,5.245,320.900,84.130,21.450,7.564,hard
1178.000,305.700,97.690,28.570,1230.000,310.700,103.600,27.670,205.600,51.440,14.850,5.232,321.800,83.860,21.600,7.555,hard
1182.000,306.500,97.960,28.760,1228.000,311.500,103.800,27.790,204.200,51.490,14.890,5.277,323.600,84.320,21.730,7.685,hard
1177.000,309.600,98.330,28.810,1233.000,309.400,104.000,27.540,205.400,51.650,14.930,5.287,326.100,84.360,21.490,7.505,hard
1171.000,305.200,96.810,28.210,1227.000,309.800,103.100,27.480,204.100,51.230,14.800,5.243,317.100,82.970,21.160,7.406,hard
1172.000,303.800,96.220,28.080,1221.000,309.500,103.200,27.600,202.500,50.970,14.760,5.199,316.700,82.560,21.140,7.391,hard
1170.000,302.400,96.380,28.130,1225.000,310.000,103.400,27.560,204.000,50.920,14.790,5.243,317.800,82.590,21.160,7.475,hard
1172.000,302.500,96.140,28.090,1223.000,309.400,103.100,27.530,204.000,51.130,14.800,5.224,317.300,83.050,21.130,7.463,hard
1172.000,303.900,96.430,28.210,1222.000,309.800,103.700,27.520,202.600,51.200,14.860,5.270,319.600,83.420,21.340,7.461,hard
1168.000,304.100,97.180,28.460,1221.000,311.100,103.700,27.680,203.800,51.350,14.900,5.299,321.700,83.790,21.380,7.503,hard
1172.000,302.800,95.730,27.810,1221.000,308.800,102.700,27.430,204.400,51.220,14.790,5.231,315.800,82.090,20.880,7.295,hard
1156.000,298.900,94.590,27.680,1219.000,308.000,102.500,27.450,200.600,50.860,14.650,5.188,313.600,81.810,20.840,7.302,hard
1160.000,301.800,95.310,27.620,1220.000,307.800,102.700,27.400,202.100,50.910,14.780,5.231,315.500,81.760,20.910,7.285,hard
1161.000,299.100,95.190,27.590,1221.000,308.300,103.000,27.490,202.800,50.960,14.730,5.241,313.600,82.000,20.880,7.356,hard
1162.000,301.600,95.290,27.800,1227.000,308.600,103.100,27.500,202.500,51.040,14.800,5.226,315.800,82.040,21.070,7.364,hard
1157.000,300.400,95.580,27.980,1223.000,309.700,103.700,27.600,203.700,51.190,14.880,5.266,316.800,82.890,21.220,7.472,hard
1164.000,303.600,96.100,28.300,1221.000,309.100,103.300,27.490,203.300,51.230,14.940,5.280,319.600,83.310,21.260,7.432,hard
1157.000,299.500,94.450,27.600,1219.000,308.500,102.600,27.370,201.300,50.880,14.740,5.202,311.800,81.290,20.560,7.258,hard
1150.000,297.600,94.070,27.380,1215.000,307.300,102.500,27.360,201.600,50.490,14.700,5.190,310.900,81.010,20.590,7.257,hard
1146.000,298.800,94.470,27.490,1217.000,308.000,102.500,27.410,201.500,50.800,14.750,5.226,311.900,81.120,20.660,7.262,hard
1151.000,298.000,94.240,27.450,1217.000,306.200,102.800,27.430,202.800,50.900,14.710,5.247,311.800,81.150,20.730,7.281,hard
1152.000,299.300,94.280,27.560,1216.000,307.600,103.000,27.590,202.400,50.980,14.760,5.245,311.800,81.480,20.880,7.377,hard
1158.000,299.400,94.890,27.720,1220.000,309.200,103.200,27.580,202.500,51.100,14.800,5.279,314.900,82.310,21.030,7.419,hard
1158.000,300.500,95.290,28.010,1228.000,309.200,103.500,27.730,203.200,51.440,14.920,5.282,316.800,82.920,21.330,7.483,hard
1156.000,302.800,96.000,28.200,1225.000,310.100,103.800,27.590,203.200,51.480,14.990,5.316,319.200,83.520,21.250,7.490,hard
1166.000,298.700,94.560,27.590,1218.000,308.100,103.100,27.500,204.400,51.220,14.810,5.236,310.800,81.170,20.730,7.237,hard
1153.000,296.800,93.570,27.330,1215.000,308.700,103.000,27.410,201.500,50.780,14.740,5.230,309.700,81.030,20.650,7.243,hard
1160.000,296.500,93.790,27.490,1223.000,309.100,102.900,27.500,202.000,50.820,14.800,5.232,310.300,80.820,20.730,7.287,hard
1157.000,297.500,93.510,27.280,1223.000,306.900,103.100,27.550,202.300,50.890,14.740,5.253,310.800,81.440,20.770,7.302,hard
1156.000,297.800,93.870,27.440,1215.000,309.500,103.100,27.600,200.800,50.970,14.750,5.245,310.800,81.600,20.910,7.322,hard
1158.000,299.800,94.900,27.560,1223.000,308.900,103.200,27.710,202.800,51.050,14.810,5.251,313.500,82.620,21.070,7.404,hard
1157.000,299.600,95.170,27.920,1228.000,310.700,103.800,27.810,202.800,51.560,14.960,5.290,315.800,82.430,21.220,7.485,hard
1166.000,301.100,95.980,28.060,1225.000,311.100,104.100,27.810,204.800,51.500,14.950,5.329,318.400,83.230,21.370,7.523,hard
1169.000,303.700,96.370,28.340,1227.000,312.200,104.100,27.920,203.500,51.950,15.030,5.331,320.300,83.760,21.670,7.633,hard
1166.000,304.500,95.410,27.860,1226.000,309.400,103.500,27.610,204.300,51.800,14.890,5.279,314.100,82.160,20.940,7.338,hard
1160.000,299.800,94.210,27.550,1227.000,310.400,103.400,27.630,202.500,50.900,14.700,5.262,312.100,81.210,20.850,7.306,hard
1157.000,299.500,94.200,27.520,1227.000,311.000,103.800,27.710,202.200,50.920,14.770,5.266,311.500,81.600,20.840,7.358,hard
1157.000,299.800,94.650,27.560,1222.000,311.200,103.900,27.730,202.400,51.280,14.870,5.237,312.100,81.600,20.910,7.411,hard
1163.000,300.900,94.600,27.650,1225.000,311.600,103.700,27.660,203.100,51.130,14.780,5.277,313.000,81.860,21.060,7.402,hard
1162.000,301.600,95.330,27.900,1232.000,311.800,104.300,27.860,204.300,51.370,14.890,5.295,314.700,82.430,21.220,7.475,hard
1170.000,304.400,96.260,28.130,1233.000,313.500,104.400,27.930,203.000,51.390,14.960,5.310,317.700,83.180,21.350,7.569,hard
1175.000,303.900,96.320,28.260,1233.000,313.700,104.800,27.930,205.400,51.720,14.990,5.330,320.500,83.560,21.570,7.628,hard
1175.000,304.800,96.980,28.560,1240.000,314.100,105.100,28.180,206.500,51.890,15.020,5.357,322.600,84.680,21.800,7.710,hard
1179.000,307.400,97.510,28.730,1235.000,313.000,105.000,27.980,206.900,52.000,15.110,5.361,325.000,84.700,21.670,7.640,hard
1175.000,304.800,96.260,28.000,1229.000,312.900,104.200,27.840,204.400,51.520,14.870,5.253,316.400,82.650,21.090,7.406,hard
1172.000,304.800,95.850,27.950,1231.000,313.100,104.600,27.860,203.000,51.300,14.800,5.234,313.900,82.520,21.070,7.424,hard
1175.000,305.700,96.210,28.170,1231.000,314.200,104.500,27.820,205.900,51.460,14.890,5.259,316.300,82.690,21.290,7.458,hard
1171.000,304.900,96.490,28.210,1231.000,313.800,104.900,27.910,204.400,51.430,14.910,5.267,317.200,82.900,21.340,7.469,hard
1178.000,307.400,97.100,28.260,1242.000,314.300,105.100,27.990,204.800,51.450,14.900,5.283,319.300,83.400,21.420,7.606,hard
1181.000,307.600,97.350,28.510,1238.000,315.100,105.300,28.120,203.100,51.750,15.020,5.296,321.300,84.940,21.680,7.649,hard
1183.000,309.900,98.020,28.720,1239.000,315.900,105.900,28.230,205.300,51.990,15.030,5.311,325.300,85.280,21.990,7.735,hard
1189.000,312.100,99.100,28.990,1242.000,315.600,106.200,28.320,206.500,52.160,15.060,5.358,327.700,86.170,22.110,7.798,hard
1196.000,311.800,98.740,28.820,1237.000,314.100,105.600,27.990,208.300,52.250,15.070,5.321,324.200,84.570,21.640,7.586,hard
1187.000,309.300,97.860,28.420,1241.000,316.000,105.300,27.990,207.500,51.530,14.890,5.231,320.100,83.800,21.330,7.503,hard
1184.000,309.500,97.830,28.540,1239.000,316.100,105.700,28.050,205.300,51.490,14.910,5.225,319.700,83.950,21.520,7.594,hard
1186.000,310.500,97.910,28.780,1241.000,316.300,105.800,28.100,205.300,51.650,15.000,5.290,321.900,84.610,21.580,7.592,hard
1187.000,310.700,98.620,28.850,1242.000,315.900,105.900,28.220,208.800,51.860,14.930,5.301,324.000,84.830,21.800,7.681,hard
1193.000,312.000,99.360,28.970,1240.000,317.300,106.200,28.230,207.300,51.930,15.060,5.324,325.700,85.710,22.020,7.778,hard
1196.000,314.600,100.200,29.260,1246.000,318.000,106.400,28.380,207.400,52.110,15.060,5.325,328.500,86.140,22.130,7.837,hard
1204.000,316.800,100.700,29.430,1243.000,317.900,106.700,28.340,207.900,52.450,15.120,5.339,331.300,86.980,22.360,7.917,hard
1192.000,314.900,99.000,28.970,1246.000,317.600,106.000,28.060,207.700,52.300,15.040,5.278,324.400,85.190,21.680,7.650,hard
1191.000,311.000,99.050,28.820,1246.000,315.900,106.100,28.190,205.200,51.760,14.930,5.304,323.100,85.050,21.710,7.696,hard
1191.000,313.300,99.740,29.000,1244.000,317.800,106.000,28.200,207.300,51.800,15.000,5.315,326.800,85.200,21.870,7.749,hard
1191.000,314.700,100.200,29.140,1243.000,317.200,106.300,28.150,207.700,52.270,15.070,5.302,327.400,85.280,22.000,7.795,hard
1197.000,314.700,100.800,29.240,1244.000,318.200,106.800,28.370,207.400,52.210,15.070,5.295,328.600,85.840,22.140,7.840,hard
1204.000,315.200,101.100,29.450,1252.000,318.600,106.800,28.420,208.500,52.300,15.160,5.361,331.600,87.300,22.320,7.888,hard
1210.000,318.500,101.800,29.960,1249.000,319.000,106.800,28.420,209.900,52.540,15.240,5.373,336.100,87.980,22.690,7.981,hard
1201.000,316.800,100.800,29.420,1245.000,315.900,106.000,28.210,208.600,52.640,15.150,5.333,328.400,85.940,21.980,7.725,hard
1194.000,312.900,99.880,29.050,1247.000,317.100,106.000,28.060,206.500,51.920,14.980,5.290,326.700,85.410,21.860,7.643,hard
1198.000,313.900,100.000,29.130,1248.000,318.400,106.400,28.220,205.300,51.930,15.030,5.255,327.300,86.240,21.990,7.787,hard
1200.000,317.200,100.500,29.220,1247.000,317.900,106.300,28.220,208.100,52.090,15.050,5.319,329.000,85.950,21.990,7.853,hard
1203.000,315.200,100.700,29.450,1246.000,317.000,106.400,28.310,208.100,52.430,15.120,5.310,330.100,86.550,22.190,7.855,hard
1206.000,316.600,101.400,29.460,1246.000,318.400,106.700,28.410,210.100,52.380,15.190,5.369,332.300,87.180,22.400,7.925,hard
1207.000,318.500,102.000,29.810,1252.000,320.000,106.700,28.450,209.900,52.510,15.180,5.371,336.700,88.040,22.730,8.004,hard
1210.000,318.200,101.400,29.630,1245.000,316.700,105.800,28.150,211.400,52.720,15.200,5.353,333.600,86.590,22.100,7.751,hard
1196.000,315.400,99.950,29.070,1244.000,316.900,105.500,28.050,209.300,52.000,15.090,5.278,327.000,85.440,21.680,7.670,hard
1194.000,314.600,100.100,29.120,1242.000,316.700,106.000,28.050,208.500,52.040,14.980,5.298,326.800,85.800,21.960,7.710,hard
1198.000,315.500,100.500,29.120,1245.000,315.700,105.500,28.080,206.900,52.120,15.030,5.344,328.700,86.090,22.030,7.773,hard
1197.000,313.700,100.400,29.240,1241.000,316.400,106.000,28.140,208.700,52.280,15.120,5.333,330.000,86.310,22.080,7.820,hard
1201.000,314.700,101.100,29.410,1245.000,317.000,106.300,28.320,208.800,52.520,15.100,5.341,331.000,86.740,22.300,7.855,hard
1201.000,317.000,101.300,29.750,1239.000,317.200,106.400,28.250,209.400,52.670,15.220,5.362,334.000,87.770,22.500,7.933,hard
1201.000,318.300,101.400,29.570,1238.000,316.000,105.800,28.000,210.300,52.690,15.200,5.343,333.000,86.650,22.020,7.739,hard
1193.000,313.100,99.600,28.890,1235.000,314.600,105.600,27.940,207.500,52.130,14.970,5.265,326.100,85.150,21.700,7.658,hard
1191.000,313.300,99.390,28.920,1235.000,314.300,105.300,27.930,207.100,52.160,14.980,5.292,327.600,85.690,21.890,7.703,hard
1187.000,313.300,99.910,29.000,1238.000,314.800,105.500,28.010,207.700,52.170,15.040,5.321,328.300,86.110,21.980,7.738,hard
1190.000,313.900,99.830,29.090,1231.000,314.000,105.600,28.070,208.400,52.090,15.040,5.302,329.400,85.900,22.030,7.743,hard
1194.000,313.700,100.400,29.360,1236.000,315.500,105.700,28.120,207.800,52.370,15.060,5.328,331.100,86.570,22.270,7.820,hard
1195.000,315.000,101.000,29.520,1234.000,316.000,105.500,28.060,209.200,52.540,15.250,5.373,333.000,87.650,22.470,7.819,hard
1187.000,313.800,99.740,28.850,1232.000,312.900,104.700,27.760,208.300,52.550,15.110,5.326,328.400,85.460,21.750,7.605,hard
1179.000,310.900,98.790,28.760,1232.000,312.800,104.700,27.830,206.700,52.000,15.000,5.265,325.200,85.290,21.660,7.606,hard
1180.000,312.100,99.280,28.910,1232.000,314.200,104.700,27.850,206.800,51.890,15.060,5.319,326.400,85.290,21.900,7.695,hard
1178.000,313.400,98.960,28.820,1234.000,312.900,104.900,27.910,208.800,52.040,15.090,5.344,327.300,85.230,21.840,7.738,hard
1184.000,310.800,99.380,28.970,1230.000,312.900,104.900,27.950,209.600,52.160,15.040,5.338,329.200,85.900,21.940,7.762,hard
1185.000,312.600,99.680,29.140,1231.000,313.100,105.100,28.000,208.700,52.360,15.170,5.389,329.900,86.570,22.330,7.853,hard
1186.000,312.900,100.100,29.130,1231.000,313.100,104.400,27.780,209.100,52.390,15.160,5.371,330.300,86.030,21.890,7.677,hard
1176.000,308.700,98.450,28.440,1222.000,311.800,103.900,27.740,207.900,52.040,15.040,5.300,323.600,84.530,21.600,7.587,hard
1176.000,309.100,98.460,28.540,1223.000,311.900,104.000,27.770,207.600,52.030,15.120,5.316,324.000,84.640,21.730,7.665,hard
1173.000,308.400,98.420,28.610,1225.000,311.600,104.300,27.780,206.900,52.010,15.120,5.335,325.500,84.940,21.790,7.630,hard
1171.000,309.400,98.220,28.590,1228.000,310.400,104.300,27.740,206.100,52.290,15.080,5.343,325.300,84.880,21.900,7.687,hard
1170.000,308.200,98.260,28.780,1228.000,312.300,104.600,27.770,208.300,52.250,15.150,5.343,327.400,85.380,22.080,7.752,hard
1178.000,310.400,99.060,29.040,1226.000,311.600,104.100,27.770,208.000,52.530,15.170,5.357,329.900,85.860,21.980,7.690,hard
1170.000,307.800,97.630,28.260,1222.000,310.000,103.600,27.580,208.700,52.030,15.000,5.324,322.400,84.430,21.570,7.553,hard
1163.000,303.700,96.820,28.160,1222.000,309.800,104.000,27.630,205.900,51.910,14.990,5.333,320.800,84.260,21.470,7.569,hard
1165.000,307.200,97.250,28.340,1221.000,309.800,103.600,27.550,204.800,52.170,15.000,5.295,322.700,84.500,21.640,7.573,hard
1164.000,305.600,97.630,28.240,1222.000,308.800,103.200,27.600,208.100,51.950,15.130,5.334,322.400,84.320,21.690,7.597,hard
1165.000,306.000,97.210,28.430,1222.000,310.300,103.600,27.630,206.700,52.040,15.190,5.365,324.100,84.550,21.770,7.691,hard
1167.000,306.400,97.860,28.530,1223.000,310.300,104.100,27.710,207.000,52.290,15.200,5.345,326.500,85.320,22.060,7.710,hard
1168.000,306.000,97.330,28.070,1218.000,307.900,103.500,27.400,207.400,52.150,15.090,5.334,322.000,83.730,21.490,7.491,hard
1158.000,303.000,95.860,27.950,1222.000,309.000,102.800,27.460,204.700,51.600,15.000,5.315,318.900,83.510,21.280,7.466,hard
1157.000,301.800,96.190,27.940,1214.000,309.200,103.200,27.470,204.900,51.550,15.020,5.311,319.700,83.620,21.330,7.564,hard
1164.000,303.800,95.980,27.870,1221.000,308.200,103.100,27.480,206.200,51.820,15.010,5.342,320.200,83.610,21.440,7.531,hard
1159.000,304.200,96.520,28.050,1217.000,309.200,103.600,27.500,203.900,51.890,15.080,5.353,320.500,83.890,21.570,7.576,hard
1161.000,303.100,96.490,28.150,1221.000,309.900,103.200,27.610,205.500,52.150,15.060,5.370,322.200,84.010,21.720,7.662,hard
1162.000,305.000,97.070,28.300,1222.000,309.500,103.500,27.550,207.900,52.140,15.190,5.408,324.200,84.910,21.710,7.581,hard
1159.000,302.100,95.930,27.560,1218.000,307.700,102.900,27.490,205.300,51.920,15.010,5.310,316.900,82.840,21.270,7.387,hard
1153.000,300.200,94.980,27.560,1213.000,307.800,102.600,27.410,204.600,51.600,14.910,5.317,316.000,82.390,21.250,7.344,hard
