A-DC1,A-DC2,A-DC3,A-DC4,A-DC5,A-DC6,A-DC7,A-DC8,B-DC1,B-DC2,B-DC3,B-DC4,B-DC5,B-DC6,B-DC7,B-DC8,condition
819.200,228.200,70.300,23.980,829.400,231.200,78.320,26.820,334.800,76.180,22.130,6.512,446.500,120.200,30.620,11.240,baseline
812.200,225.700,69.510,23.670,823.100,230.300,77.920,26.760,333.900,76.070,22.010,6.494,444.800,119.700,30.510,11.180,baseline
811.000,225.000,69.670,23.720,822.200,231.300,78.110,26.850,335.100,76.040,21.980,6.476,444.200,119.500,30.470,11.180,baseline
810.100,225.800,69.720,23.810,823.300,231.000,78.240,26.820,334.800,76.030,22.000,6.490,445.100,119.700,30.460,11.190,baseline
811.600,225.500,69.470,23.870,824.700,231.100,77.910,26.830,334.500,76.060,22.040,6.496,444.100,119.400,30.460,11.170,baseline
813.700,227.200,69.860,23.890,825.900,231.200,78.290,26.880,333.800,76.090,22.030,6.489,445.100,120.000,30.600,11.200,baseline
817.600,227.800,70.350,24.070,826.200,231.400,78.520,26.990,334.400,76.200,22.080,6.502,445.900,120.200,30.620,11.250,baseline
817.400,227.100,70.000,23.810,818.700,230.100,77.740,26.790,334.600,75.970,22.010,6.466,443.900,119.400,30.290,11.120,baseline
809.200,224.700,69.520,23.780,822.400,230.200,78.200,26.900,334.700,75.890,21.960,6.459,443.300,119.300,30.410,11.190,baseline
812.700,225.900,70.530,24.160,820.400,232.400,79.530,27.670,334.300,75.780,22.010,6.484,443.300,119.800,30.510,11.310,baseline
815.000,230.300,72.340,25.070,826.100,237.100,83.130,29.510,339.900,76.050,22.080,6.526,441.000,120.000,30.970,11.730,baseline
821.300,237.800,78.400,28.140,832.200,247.100,90.630,32.860,352.600,75.650,22.470,6.803,439.500,121.200,31.790,12.450,baseline
830.300,246.100,82.860,29.630,831.200,249.500,92.450,33.650,363.900,76.490,22.900,6.997,442.500,122.600,32.190,12.670,baseline
825.000,248.100,83.930,29.910,831.400,249.000,92.330,33.490,366.600,76.730,23.060,7.035,443.000,122.600,32.090,12.660,baseline
816.400,244.100,82.150,29.390,822.100,247.700,91.340,32.980,366.700,76.530,22.990,6.989,440.700,122.300,31.970,12.580,baseline
815.800,242.800,81.520,28.940,824.400,245.900,90.690,32.650,367.100,76.500,22.990,6.989,440.600,122.100,31.890,12.530,baseline
816.800,242.000,81.060,28.760,825.000,246.600,89.730,32.300,365.800,76.610,23.000,7.002,442.700,122.200,31.910,12.480,baseline
821.800,241.800,80.130,28.440,824.500,244.600,88.490,31.320,364.100,76.650,22.980,6.963,442.700,121.900,31.640,12.200,baseline
820.900,236.400,75.540,26.020,828.200,236.900,81.440,28.160,356.000,76.840,22.700,6.764,446.700,121.500,30.990,11.510,baseline
823.200,230.200,71.780,24.780,824.900,234.600,80.230,27.820,343.100,76.880,22.480,6.618,448.400,120.600,30.820,11.350,baseline
821.800,228.100,71.270,24.410,828.200,232.400,79.500,27.430,336.400,76.320,22.320,6.584,445.000,119.700,30.500,11.250,baseline
812.100,227.200,70.390,24.180,825.800,232.400,79.710,27.660,336.000,76.040,22.150,6.550,443.600,119.400,30.470,11.260,baseline
815.400,227.100,70.740,24.240,827.300,232.700,79.320,27.320,334.700,76.110,22.230,6.553,443.400,119.500,30.400,11.210,baseline
819.100,226.400,70.180,23.970,826.200,230.400,78.120,26.900,331.800,76.030,22.180,6.547,443.900,119.200,30.320,11.110,baseline
810.100,224.600,69.320,23.620,822.100,231.100,78.260,26.960,331.300,76.100,22.130,6.521,443.600,119.200,30.330,11.160,baseline
815.400,225.700,69.830,23.970,822.300,231.700,78.550,27.220,331.100,76.160,22.160,6.543,444.100,119.500,30.390,11.200,baseline
820.400,228.400,70.760,24.340,824.400,232.800,79.550,27.530,331.800,76.180,22.190,6.571,445.000,119.900,30.590,11.300,baseline
812.100,228.000,70.950,24.460,821.000,231.700,79.910,27.640,333.800,76.260,22.120,6.550,441.100,119.300,30.350,11.200,baseline
809.400,226.600,71.030,24.470,818.800,232.900,79.890,27.770,333.800,75.710,22.090,6.544,440.800,119.100,30.240,11.260,baseline
812.700,227.600,71.440,24.560,818.000,232.600,80.230,27.770,335.400,76.010,22.120,6.558,441.900,119.000,30.450,11.260,baseline
810.100,227.800,71.500,24.620,820.700,233.300,80.250,27.970,335.600,75.920,22.140,6.574,441.200,119.100,30.420,11.290,baseline
811.900,228.900,71.780,24.800,820.200,234.600,81.010,28.240,337.600,76.120,22.180,6.583,441.200,119.400,30.560,11.380,baseline
817.200,230.700,73.030,25.200,822.300,236.200,81.720,28.540,337.200,76.050,22.220,6.593,442.300,119.700,30.670,11.440,baseline
819.200,232.800,73.810,25.640,825.100,237.600,82.210,28.720,337.800,75.990,22.240,6.598,443.300,119.800,30.720,11.460,baseline
821.000,231.900,73.440,25.410,821.000,235.400,81.750,28.530,337.000,75.850,22.150,6.564,441.000,119.300,30.490,11.380,baseline
813.000,230.300,72.820,25.270,819.800,234.900,81.850,28.640,336.400,75.680,22.060,6.546,440.300,119.000,30.350,11.390,baseline
815.400,232.300,73.410,25.490,820.200,237.100,82.420,28.890,337.300,75.640,22.120,6.565,440.800,119.000,30.450,11.410,baseline
816.300,232.600,73.750,25.660,820.800,237.200,82.600,28.980,336.700,75.700,22.160,6.562,441.600,118.900,30.450,11.420,baseline
816.800,233.500,74.330,25.820,822.800,237.100,82.800,29.140,337.400,75.650,22.160,6.565,441.300,119.600,30.570,11.460,baseline
821.300,234.500,74.780,25.990,827.700,239.100,83.410,29.150,337.100,75.580,22.190,6.569,440.900,119.600,30.630,11.510,baseline
823.200,234.900,75.210,26.190,824.600,238.900,83.220,29.160,337.800,75.880,22.210,6.591,442.900,120.200,30.650,11.490,baseline
819.000,234.000,74.450,25.810,821.100,237.400,82.790,29.080,337.600,75.630,22.140,6.545,440.600,119.200,30.520,11.420,baseline
818.200,233.600,74.550,25.940,824.300,238.100,83.000,29.320,336.000,75.640,22.130,6.542,440.000,119.100,30.400,11.450,baseline
819.100,235.000,74.880,26.180,824.300,238.900,83.650,29.450,337.500,75.630,22.140,6.548,440.200,119.300,30.540,11.510,baseline
820.200,236.000,75.490,26.360,824.800,239.000,83.800,29.530,336.000,75.500,22.160,6.552,439.500,119.100,30.540,11.510,baseline
821.800,236.300,75.530,26.420,826.100,239.400,84.040,29.590,336.700,75.480,22.120,6.552,439.900,119.400,30.660,11.530,baseline
823.800,237.400,75.980,26.560,827.300,240.100,84.340,29.750,336.700,75.670,22.110,6.549,442.600,119.700,30.790,11.590,baseline
831.400,239.000,76.240,26.590,828.000,240.100,84.140,29.790,336.200,75.580,22.140,6.569,440.900,119.200,30.480,11.520,baseline
819.600,236.600,76.030,26.570,822.900,240.300,84.140,29.670,335.200,75.370,22.030,6.533,438.600,118.900,30.430,11.490,baseline
819.700,235.900,75.710,26.360,825.600,239.000,83.570,29.520,335.300,75.350,22.010,6.519,440.100,119.100,30.420,11.470,baseline
824.800,235.200,75.530,26.430,823.300,240.100,83.500,29.430,336.100,75.400,22.110,6.525,440.000,119.300,30.460,11.470,baseline
822.200,236.700,75.500,26.250,826.500,238.800,83.250,29.400,336.500,75.450,22.030,6.512,440.600,119.200,30.580,11.490,baseline
821.000,236.700,75.600,26.420,831.400,240.300,84.040,29.530,337.200,75.520,22.040,6.543,441.300,119.600,30.570,11.540,baseline
826.500,237.600,75.750,26.410,827.800,239.000,83.330,29.260,337.600,75.660,22.050,6.524,439.900,119.100,30.350,11.440,baseline
819.300,234.600,74.790,25.890,822.000,237.700,82.790,29.100,336.700,75.290,21.940,6.486,437.400,118.600,30.250,11.360,baseline
819.300,234.100,74.870,25.890,823.200,238.600,82.700,29.110,335.600,75.430,21.950,6.472,439.400,118.700,30.300,11.370,baseline
822.500,235.400,75.030,26.080,824.400,238.600,82.970,29.130,333.700,75.550,22.020,6.500,439.800,119.000,30.370,11.400,baseline
818.600,234.600,74.920,26.010,824.900,238.200,82.810,29.110,334.400,75.640,22.040,6.507,440.000,118.900,30.360,11.370,baseline
825.400,235.200,75.390,26.230,826.600,239.700,83.110,29.290,334.100,75.660,22.030,6.500,441.300,119.400,30.500,11.470,baseline
826.500,237.200,75.620,26.410,828.400,238.500,83.050,29.080,334.100,75.910,22.140,6.523,441.100,119.000,30.470,11.380,baseline
817.600,233.600,73.690,25.520,821.500,235.200,81.090,28.220,334.900,75.380,21.960,6.464,437.700,118.700,30.050,11.190,baseline
813.600,230.900,72.810,25.130,820.300,234.800,80.880,28.290,335.200,75.350,21.920,6.456,437.900,118.600,30.130,11.240,baseline
817.500,231.300,73.220,25.430,824.700,236.200,81.780,28.640,334.000,75.460,21.920,6.466,438.400,118.600,30.230,11.280,baseline
814.800,233.700,73.630,25.700,824.900,236.900,82.010,28.770,336.800,75.350,21.930,6.464,438.700,118.400,30.190,11.300,baseline
819.800,234.200,74.600,25.890,822.200,237.500,82.680,29.040,333.900,75.430,22.010,6.478,437.300,119.000,30.250,11.350,baseline
825.900,235.600,75.310,26.260,829.300,238.500,82.940,29.130,333.400,75.330,22.030,6.483,439.600,119.000,30.240,11.380,baseline
818.900,234.600,74.400,25.850,823.600,236.200,82.240,28.940,335.900,75.190,21.920,6.471,435.900,117.900,30.060,11.250,baseline
813.000,234.500,74.440,25.870,818.100,236.600,82.280,28.970,334.700,74.870,21.820,6.423,435.600,118.100,30.040,11.250,baseline
816.100,234.300,74.600,25.870,819.800,238.100,82.720,29.020,332.800,74.980,21.850,6.448,436.200,117.800,30.040,11.270,baseline
816.800,235.400,74.710,26.050,821.700,237.100,82.520,29.060,332.500,75.060,21.900,6.444,435.400,117.900,30.150,11.320,baseline
821.200,235.100,74.940,26.080,825.000,238.200,83.200,29.260,333.600,74.940,21.940,6.446,436.200,118.100,30.160,11.330,baseline
823.700,236.400,75.560,26.360,826.200,239.400,83.540,29.430,334.900,74.990,21.890,6.459,436.200,118.500,30.240,11.430,baseline
825.500,238.900,76.730,26.720,824.600,239.500,83.910,29.600,334.600,74.940,21.970,6.494,435.900,118.500,30.240,11.430,baseline
821.400,236.500,76.680,27.050,825.400,241.300,86.100,30.750,337.900,74.500,21.870,6.502,430.700,117.500,30.160,11.590,baseline
821.600,239.200,78.390,27.590,824.900,242.400,86.300,30.760,344.500,74.370,21.960,6.535,430.300,117.500,30.340,11.630,baseline
822.500,240.200,78.230,27.430,826.800,241.500,85.430,30.340,344.500,74.430,22.020,6.559,431.900,117.800,30.210,11.550,baseline
823.800,239.400,77.030,26.950,826.400,241.300,84.920,30.120,341.300,74.480,21.980,6.514,433.800,118.200,30.220,11.490,baseline
827.000,238.800,77.030,26.990,830.500,241.700,85.070,30.110,339.200,74.860,22.000,6.523,434.900,118.300,30.300,11.530,baseline
828.500,239.500,77.310,27.040,830.900,241.500,84.890,30.090,339.400,74.900,22.030,6.530,436.600,118.700,30.420,11.550,baseline
834.400,240.600,77.210,26.920,830.600,240.400,84.240,29.730,338.200,75.070,22.030,6.537,436.100,118.500,30.290,11.460,baseline
825.700,237.700,75.810,26.400,824.400,240.200,83.830,29.570,337.600,74.840,21.890,6.481,435.000,117.900,30.190,11.400,baseline
822.700,236.400,75.890,26.480,828.800,240.500,84.110,29.720,337.500,74.880,21.920,6.492,435.500,118.300,30.300,11.430,baseline
826.700,239.100,76.390,26.680,825.900,240.100,84.070,29.740,337.200,74.980,21.990,6.495,436.400,118.400,30.240,11.430,baseline
825.500,238.100,76.290,26.670,829.600,241.000,84.250,29.770,335.700,74.930,22.020,6.495,436.300,118.800,30.340,11.500,baseline
830.700,240.200,76.890,26.800,829.800,241.500,84.510,29.910,338.900,75.030,22.070,6.513,437.800,118.700,30.400,11.510,baseline
832.200,241.300,77.670,27.080,832.000,242.300,85.110,30.050,338.900,75.160,22.090,6.529,437.700,119.500,30.580,11.560,baseline
839.500,241.300,77.530,27.140,833.000,241.300,84.250,29.700,338.800,75.240,22.080,6.540,438.000,118.800,30.370,11.490,baseline
831.900,240.000,76.480,26.650,831.000,240.000,84.270,29.690,338.600,74.890,21.950,6.507,436.800,118.400,30.310,11.480,baseline
829.000,240.000,76.450,26.780,829.500,241.900,84.370,29.850,338.800,75.090,21.940,6.506,437.300,118.800,30.430,11.490,baseline
833.600,240.500,76.950,26.880,832.900,241.300,84.660,29.890,336.900,75.160,22.030,6.519,438.200,119.000,30.470,11.530,baseline
834.300,240.800,77.130,26.950,830.900,242.000,84.720,29.870,337.900,75.170,21.970,6.524,437.700,118.800,30.490,11.550,baseline
840.200,242.300,77.460,27.070,834.600,243.000,84.940,30.040,337.600,75.070,22.040,6.523,439.500,119.500,30.520,11.610,baseline
840.400,244.000,78.320,27.380,839.300,244.300,85.300,30.180,337.800,75.420,22.110,6.528,440.500,119.900,30.720,11.630,baseline
846.500,245.100,78.300,27.390,835.800,243.300,84.910,30.030,338.700,75.280,22.060,6.539,439.600,119.100,30.570,11.550,baseline
836.700,241.800,77.470,27.100,830.700,243.000,85.190,30.220,336.100,75.080,21.960,6.498,438.300,119.000,30.590,11.540,baseline
842.200,243.100,78.590,27.520,836.900,243.900,85.840,30.600,336.100,75.130,22.000,6.518,438.700,119.600,30.630,11.670,baseline
846.200,245.600,78.990,27.910,839.300,245.000,86.460,30.690,337.100,75.130,22.010,6.525,439.300,119.500,30.670,11.640,baseline
845.000,246.500,79.580,27.990,837.600,245.500,86.480,30.820,337.300,75.000,21.980,6.526,439.800,119.600,30.710,11.690,baseline
846.100,246.500,80.100,28.070,839.900,245.800,86.480,30.790,337.800,74.970,22.030,6.552,439.500,120.100,30.770,11.730,baseline
847.300,247.800,80.140,28.100,841.900,245.200,86.310,30.600,336.200,75.230,22.110,6.555,440.200,119.900,30.760,11.710,baseline
845.400,245.600,78.940,27.520,838.400,243.700,85.740,30.440,336.700,74.980,21.960,6.520,439.200,119.300,30.620,11.660,baseline
842.700,245.100,78.940,27.580,836.400,243.900,86.060,30.430,335.800,74.820,21.950,6.521,439.500,119.800,30.610,11.660,baseline
850.200,246.300,79.450,27.850,842.400,244.800,86.230,30.500,336.300,75.020,22.040,6.521,441.000,119.800,30.660,11.690,baseline
847.100,245.600,79.560,27.730,840.100,243.900,85.670,30.290,335.500,75.170,22.040,6.537,440.600,120.200,30.680,11.720,baseline
847.000,246.800,79.200,27.590,838.500,244.300,85.410,30.160,336.800,75.130,22.070,6.537,441.200,120.200,30.820,11.720,baseline
851.100,245.500,79.160,27.620,843.300,244.400,85.000,29.860,337.100,75.250,22.040,6.537,443.100,120.600,30.890,11.700,baseline
849.400,245.200,77.420,26.950,838.600,241.200,83.570,29.380,335.000,75.200,22.000,6.493,442.500,119.800,30.650,11.520,baseline
840.800,242.400,76.890,26.810,837.100,241.100,83.840,29.520,334.300,74.980,21.940,6.476,440.800,119.600,30.700,11.540,baseline
843.800,241.800,77.670,27.210,835.700,241.800,84.830,30.070,335.500,75.120,21.990,6.506,441.600,120.100,30.790,11.700,baseline
842.800,245.000,78.700,27.500,834.100,243.000,85.370,30.340,336.800,75.220,22.060,6.514,442.400,120.200,30.930,11.730,baseline
846.200,245.900,79.040,27.760,836.800,244.600,85.840,30.640,339.200,75.120,22.010,6.533,442.000,120.300,30.980,11.800,baseline
850.100,246.300,80.160,28.140,839.600,245.300,86.610,30.760,340.300,75.130,22.080,6.548,443.900,120.500,31.070,11.820,baseline
850.000,248.400,80.110,28.040,836.200,243.700,86.040,30.450,340.200,75.180,22.020,6.528,441.900,120.300,30.860,11.720,baseline
842.900,244.300,78.940,27.640,836.000,242.900,85.650,30.380,340.200,74.740,21.940,6.510,441.900,119.800,30.690,11.720,baseline
843.200,245.300,78.860,27.730,834.900,244.000,85.780,30.430,338.800,74.870,21.920,6.502,441.700,119.700,30.760,11.720,baseline
847.600,245.200,79.030,27.600,840.200,243.200,85.120,30.130,336.000,74.790,21.950,6.486,443.300,120.000,30.820,11.710,baseline
848.200,245.800,78.820,27.590,839.900,243.800,85.450,30.280,336.300,75.090,21.970,6.487,443.400,120.600,30.940,11.730,baseline
852.100,247.700,79.500,27.800,838.700,244.700,85.820,30.350,337.400,75.140,21.990,6.495,444.000,120.700,31.010,11.800,baseline
855.900,248.300,79.830,27.970,842.200,244.000,85.240,30.200,338.700,75.110,21.980,6.525,445.200,120.900,31.000,11.760,baseline
851.800,245.300,78.540,27.400,835.600,242.500,84.980,30.180,339.300,75.010,21.920,6.496,442.500,120.300,30.790,11.690,baseline
845.100,245.200,78.550,27.600,835.600,242.800,85.470,30.410,336.500,74.890,21.870,6.490,442.100,120.200,30.840,11.770,baseline
846.800,247.100,79.480,27.820,836.100,243.400,85.830,30.430,337.600,74.950,21.880,6.499,443.300,120.500,30.950,11.780,baseline
846.700,246.000,79.330,27.740,836.400,243.400,85.400,30.300,336.100,75.010,21.910,6.490,443.800,120.700,30.940,11.750,baseline
850.800,245.800,79.400,27.730,837.600,242.800,85.510,30.220,337.500,75.140,21.910,6.499,444.300,120.800,31.060,11.780,baseline
852.000,247.500,79.810,27.920,836.500,244.500,85.390,30.330,337.800,75.090,21.890,6.501,445.800,121.300,31.220,11.820,baseline
859.400,248.300,79.640,27.930,838.800,242.000,84.920,30.040,338.800,75.160,21.950,6.479,443.800,120.800,31.030,11.710,baseline
844.900,244.500,78.680,27.480,834.700,241.500,84.770,30.040,336.500,74.960,21.840,6.463,444.600,120.300,30.890,11.730,baseline
848.500,244.000,78.280,27.520,836.100,242.500,85.170,30.110,337.400,74.980,21.840,6.470,443.600,120.500,30.920,11.730,baseline
846.100,245.400,79.270,27.760,836.500,242.400,85.060,30.120,336.300,74.980,21.880,6.458,444.800,120.900,30.980,11.780,baseline
848.300,246.400,79.310,27.820,835.700,242.200,85.480,30.330,337.800,74.900,21.830,6.469,444.500,121.400,31.070,11.800,baseline
852.500,247.600,79.710,28.010,838.400,243.200,85.830,30.560,336.300,75.060,21.870,6.482,445.400,121.200,31.120,11.850,baseline
857.400,249.100,80.690,28.400,837.900,244.400,85.850,30.620,336.400,74.940,21.940,6.493,446.300,121.900,31.220,11.850,baseline
853.400,247.600,79.640,27.940,833.500,242.500,85.470,30.340,336.500,74.630,21.860,6.462,443.200,120.800,31.000,11.760,baseline
851.700,245.200,79.500,27.940,835.000,242.800,85.340,30.450,337.000,74.650,21.830,6.446,443.500,120.900,31.050,11.800,baseline
853.900,247.100,79.890,28.070,836.100,243.600,85.870,30.550,335.200,74.600,21.820,6.465,444.400,121.000,31.100,11.830,baseline
852.300,248.600,80.440,28.190,834.500,243.300,85.630,30.490,336.800,74.680,21.810,6.483,444.400,121.100,31.170,11.850,baseline
851.400,247.700,80.510,28.230,835.700,244.100,86.110,30.640,337.900,74.680,21.890,6.464,445.500,121.400,31.290,11.850,baseline
851.700,248.800,80.880,28.480,837.500,244.400,86.690,30.820,336.300,74.850,21.870,6.466,446.500,121.600,31.380,11.930,baseline
855.700,248.700,81.240,28.400,835.700,243.300,85.600,30.470,336.900,74.840,21.870,6.482,445.000,121.100,31.020,11.850,baseline
846.600,246.600,80.030,28.100,830.900,242.300,85.930,30.530,335.400,74.420,21.750,6.428,443.700,120.800,31.120,11.840,baseline
846.300,247.100,80.330,28.270,833.100,243.200,86.220,30.690,336.900,74.540,21.790,6.443,444.000,121.100,31.310,11.880,baseline
853.000,247.500,80.800,28.380,835.500,243.500,85.890,30.600,335.900,74.580,21.810,6.455,444.400,121.500,31.200,11.890,baseline
852.900,248.300,80.750,28.460,833.400,243.900,86.350,30.760,336.400,74.500,21.830,6.471,444.800,121.100,31.250,11.900,baseline
852.800,248.300,81.170,28.640,836.400,245.500,86.680,30.950,337.700,74.680,21.830,6.466,446.200,121.700,31.380,11.990,baseline
856.900,250.700,81.710,28.690,834.400,243.600,86.160,30.690,336.700,74.660,21.830,6.466,445.500,121.300,31.210,11.890,baseline
847.600,247.600,80.410,28.210,831.600,243.000,85.820,30.630,335.300,74.350,21.730,6.423,442.700,120.600,31.070,11.820,baseline
846.400,247.400,80.460,28.420,832.900,243.200,86.050,30.730,335.300,74.430,21.720,6.438,444.400,121.200,31.180,11.900,baseline
853.000,249.700,80.620,28.580,831.100,243.800,86.320,30.760,335.900,74.390,21.740,6.451,445.200,121.400,31.210,11.930,baseline
855.300,248.600,81.270,28.570,838.300,243.600,86.550,30.810,335.500,74.350,21.720,6.438,444.900,121.100,31.190,11.920,baseline
859.000,249.900,81.340,28.690,837.300,244.500,86.480,30.890,337.200,74.480,21.790,6.450,445.500,121.800,31.320,11.980,baseline
858.500,251.800,82.010,28.950,835.900,244.800,86.350,30.790,335.200,74.580,21.810,6.467,446.700,121.300,31.190,11.940,baseline
852.400,248.400,80.630,28.360,834.100,242.400,85.820,30.570,334.600,74.260,21.650,6.424,443.100,120.900,31.130,11.850,baseline
846.500,247.800,80.660,28.440,832.900,243.200,86.190,30.790,334.500,74.130,21.670,6.425,442.900,120.900,31.080,11.870,baseline
850.700,248.400,80.960,28.640,833.300,243.800,86.200,30.800,334.300,74.250,21.740,6.428,444.300,121.200,31.140,11.920,baseline
854.900,248.800,81.120,28.680,834.400,243.300,86.350,30.890,334.900,74.230,21.700,6.408,443.800,121.000,31.240,11.950,baseline
852.700,250.000,81.480,28.790,836.400,243.900,86.510,31.010,335.400,74.190,21.700,6.431,444.500,121.300,31.250,11.940,baseline
856.400,251.600,81.890,29.000,838.600,244.400,86.860,31.140,334.600,74.200,21.700,6.469,445.700,121.600,31.330,12.040,baseline
860.100,251.100,81.260,28.790,835.400,243.300,86.170,30.740,334.500,74.170,21.660,6.444,444.300,120.600,31.100,11.880,baseline
848.500,247.700,80.740,28.430,831.000,242.400,86.110,30.800,334.200,74.090,21.650,6.403,442.600,120.800,31.030,11.890,baseline
849.000,248.400,81.070,28.630,833.000,243.600,86.330,30.880,332.100,73.950,21.610,6.426,443.400,120.900,31.110,11.930,baseline
849.400,248.900,81.100,28.710,833.600,243.600,86.390,30.910,332.500,74.000,21.690,6.431,442.900,120.900,31.150,11.930,baseline
851.300,248.600,81.430,28.740,833.300,243.500,86.620,30.930,333.800,73.950,21.640,6.437,443.200,121.000,31.140,11.940,baseline
857.800,249.200,82.040,28.960,836.800,243.900,86.920,31.110,334.500,74.140,21.700,6.442,443.000,121.200,31.310,12.030,baseline
858.700,251.800,82.390,29.160,836.800,244.800,87.080,31.040,334.400,74.240,21.700,6.452,444.600,121.300,31.220,11.970,baseline
850.900,248.600,81.180,28.580,832.200,242.500,85.980,30.760,334.600,73.950,21.610,6.404,440.500,120.300,31.100,11.850,baseline
845.400,247.000,80.440,28.420,828.800,243.200,85.810,30.750,332.900,73.840,21.590,6.411,441.700,120.500,31.010,11.850,baseline
847.100,248.500,80.940,28.600,833.500,242.900,86.310,30.830,332.700,73.760,21.590,6.404,441.900,120.400,31.110,11.920,baseline
851.000,249.000,81.210,28.700,833.600,242.900,86.280,30.910,334.100,73.910,21.570,6.424,441.800,120.300,31.020,11.900,baseline
846.900,248.100,81.270,28.720,833.000,243.200,86.390,30.980,332.400,73.840,21.600,6.437,441.800,120.700,31.140,11.930,baseline
851.800,249.600,81.550,28.980,836.800,244.400,86.790,31.120,333.400,74.040,21.660,6.425,441.900,121.100,31.260,11.990,baseline
854.000,252.200,82.270,29.220,835.400,244.400,87.000,31.100,335.700,73.990,21.670,6.458,442.600,121.000,31.300,12.010,baseline
851.000,248.800,81.330,28.680,830.300,242.500,86.200,30.850,334.200,73.790,21.550,6.418,440.400,120.100,30.990,11.820,baseline
847.100,246.600,80.610,28.560,829.500,242.900,86.170,30.860,331.800,73.490,21.570,6.385,440.000,120.000,31.000,11.870,baseline
845.900,248.600,81.200,28.720,831.600,243.400,86.610,30.960,331.100,73.610,21.580,6.424,439.900,120.300,31.040,11.910,baseline
848.600,248.100,81.290,28.750,829.600,243.600,86.540,31.070,331.700,73.700,21.570,6.414,440.200,120.400,31.060,11.930,baseline
845.600,248.800,81.510,28.930,834.500,243.500,86.750,31.070,331.000,73.610,21.550,6.403,440.200,120.200,31.170,11.930,baseline
848.500,249.400,81.890,28.990,830.500,244.300,86.910,31.140,330.000,73.570,21.600,6.428,441.200,120.700,31.210,11.990,baseline
853.200,252.100,82.570,29.200,834.000,244.700,87.370,31.260,332.300,73.780,21.630,6.443,443.100,120.900,31.270,12.030,baseline
854.800,250.800,82.400,29.040,832.300,243.100,86.520,30.880,332.900,73.750,21.590,6.435,440.400,120.500,31.010,11.890,baseline
842.600,248.000,80.800,28.590,827.800,242.700,86.300,30.900,331.000,73.440,21.510,6.376,438.600,119.700,30.980,11.850,baseline
846.100,248.200,81.090,28.720,833.500,242.900,86.500,31.050,330.900,73.380,21.560,6.402,439.000,119.900,31.100,11.930,baseline
850.600,249.700,81.800,28.890,832.500,244.000,86.830,31.080,330.800,73.500,21.550,6.423,440.200,120.300,31.020,11.930,baseline
851.000,248.600,81.620,28.820,832.200,243.800,86.640,31.100,331.500,73.380,21.540,6.397,439.900,120.500,31.050,11.940,baseline
852.200,249.400,81.670,28.980,833.100,243.700,86.990,31.120,329.900,73.440,21.530,6.429,440.800,120.400,31.150,11.960,baseline
855.300,252.000,82.310,29.210,832.800,244.600,87.340,31.320,332.000,73.590,21.560,6.437,441.400,120.900,31.290,12.030,baseline
856.500,252.100,82.750,29.330,834.500,243.300,86.860,31.110,331.500,73.590,21.630,6.429,441.500,120.600,31.200,11.980,baseline
846.300,249.600,81.420,28.710,829.900,242.600,86.730,30.990,331.700,73.240,21.500,6.379,437.200,120.100,30.920,11.870,baseline
846.400,248.500,81.030,28.800,829.400,243.600,86.730,31.070,331.200,73.280,21.490,6.378,439.300,120.200,31.050,11.930,baseline
847.000,249.600,81.870,29.000,833.600,243.800,86.950,31.060,330.500,73.190,21.510,6.393,439.400,120.300,31.060,11.970,baseline
848.500,249.000,81.800,28.950,829.900,243.800,86.770,31.110,330.100,73.200,21.560,6.411,439.500,120.200,31.190,11.940,baseline
849.700,250.500,81.960,29.100,833.300,244.500,86.800,31.190,330.200,73.370,21.520,6.390,439.800,120.300,31.180,11.970,baseline
850.200,250.800,82.480,29.310,835.100,245.500,87.440,31.360,330.500,73.390,21.550,6.432,440.700,120.700,31.220,12.000,baseline
859.400,252.400,82.990,29.580,836.200,245.500,87.400,31.310,332.500,73.460,21.590,6.444,442.200,120.900,31.320,12.020,baseline
854.000,250.500,82.280,28.970,828.300,243.000,86.450,31.000,330.500,73.280,21.510,6.380,438.700,120.200,31.070,11.920,baseline
847.000,249.300,81.280,28.830,831.800,243.700,86.790,31.110,329.400,73.070,21.440,6.370,438.600,120.100,31.030,11.900,baseline
848.000,249.300,82.210,29.110,834.200,244.100,87.170,31.200,330.100,73.310,21.510,6.382,439.100,120.200,31.190,11.930,baseline
855.600,250.800,82.180,29.160,829.900,244.400,87.060,31.210,329.200,73.110,21.460,6.391,439.600,120.500,31.130,11.950,baseline
854.600,250.600,82.320,29.210,833.800,244.400,87.020,31.160,330.300,73.210,21.480,6.391,439.700,120.600,31.180,12.010,baseline
851.900,251.500,82.700,29.410,836.700,244.400,87.380,31.370,329.700,73.250,21.510,6.411,440.600,120.800,31.360,12.040,baseline
859.500,253.700,83.550,29.700,841.400,245.800,87.980,31.480,332.000,73.390,21.550,6.420,442.000,121.200,31.490,12.080,baseline
859.900,251.700,83.230,29.320,828.900,243.600,86.750,31.110,330.000,73.380,21.500,6.396,439.700,120.400,31.120,11.920,baseline
848.000,249.400,81.910,28.950,832.500,243.700,86.900,31.130,329.900,73.030,21.480,6.381,439.200,120.200,31.040,11.940,baseline
853.600,250.500,82.120,29.230,833.800,244.600,87.120,31.240,330.600,73.020,21.470,6.370,439.500,120.400,31.260,12.000,baseline
854.300,251.500,82.830,29.370,833.200,244.800,87.180,31.180,329.000,73.120,21.480,6.397,440.800,120.500,31.290,12.010,baseline
856.100,252.100,82.750,29.380,835.400,244.800,87.340,31.250,330.600,73.260,21.490,6.392,439.100,120.500,31.320,12.010,baseline
857.100,252.700,83.180,29.570,836.700,245.500,87.420,31.360,330.000,73.250,21.450,6.385,440.500,120.900,31.310,12.090,baseline
860.300,254.400,83.810,29.800,836.400,246.800,87.700,31.430,330.400,73.300,21.560,6.402,442.600,121.000,31.380,12.110,baseline
860.400,252.100,82.930,29.180,833.100,243.300,86.560,31.030,330.300,73.180,21.470,6.383,439.400,120.100,31.110,11.960,baseline
849.500,249.000,81.960,29.030,827.700,243.800,86.860,31.100,329.600,72.900,21.390,6.356,440.000,120.500,31.050,11.980,baseline
850.800,251.200,82.480,29.270,834.900,244.600,87.160,31.130,330.100,73.080,21.410,6.361,439.900,120.400,31.280,12.000,baseline
853.400,250.900,82.650,29.360,833.300,244.300,86.860,31.190,330.700,73.010,21.410,6.370,439.600,120.400,31.190,12.030,baseline
857.000,251.400,82.940,29.320,835.000,244.900,87.110,31.280,329.900,73.010,21.380,6.363,439.700,120.600,31.270,12.020,baseline
860.300,252.600,83.230,29.700,834.300,245.400,87.610,31.380,330.500,73.070,21.380,6.383,441.200,120.900,31.380,12.080,baseline
859.500,254.000,83.680,29.650,836.400,244.800,86.880,31.220,330.500,73.100,21.460,6.367,441.000,120.600,31.250,11.970,baseline
853.200,249.200,82.010,29.060,831.800,243.600,86.580,31.060,330.500,72.750,21.300,6.343,437.900,120.200,31.070,11.920,baseline
846.600,249.700,82.230,29.120,830.200,243.900,86.970,31.140,329.400,72.620,21.300,6.348,438.000,119.800,31.130,11.980,baseline
852.400,251.200,82.620,29.300,833.700,243.900,87.090,31.130,330.800,72.920,21.330,6.351,439.000,120.300,31.200,11.960,baseline
851.000,250.300,82.640,29.300,829.600,244.000,86.950,31.090,330.900,72.790,21.300,6.335,438.700,120.400,31.160,11.980,baseline
853.600,250.900,82.540,29.360,832.200,244.600,86.910,31.150,330.500,72.790,21.330,6.362,440.000,120.300,31.350,11.990,baseline
852.000,252.100,83.140,29.540,833.100,244.100,86.920,31.070,330.400,72.790,21.340,6.364,440.100,120.700,31.220,11.990,baseline
854.200,249.600,81.780,29.010,827.800,242.500,86.350,30.780,330.800,72.650,21.320,6.336,438.300,119.900,30.900,11.870,baseline
843.100,246.900,80.980,28.780,824.700,242.700,86.190,30.830,329.500,72.540,21.280,6.315,436.700,119.500,30.850,11.880,baseline
845.600,248.300,81.700,28.970,826.500,242.700,86.420,30.900,330.400,72.700,21.270,6.334,437.200,119.700,31.090,11.890,baseline
847.300,248.100,81.770,28.970,825.400,242.100,86.300,30.860,331.500,72.770,21.290,6.321,437.300,119.700,30.910,11.850,baseline
847.200,249.700,81.660,29.020,828.100,243.000,86.560,30.890,330.600,72.600,21.280,6.337,437.900,119.800,30.970,11.910,baseline
851.900,250.300,82.080,29.220,830.300,243.900,86.580,31.080,330.800,72.630,21.330,6.343,438.100,120.300,31.120,11.970,baseline
848.900,250.500,82.570,29.190,828.500,241.600,86.160,30.830,330.500,72.620,21.330,6.315,437.100,119.500,30.930,11.830,baseline
838.800,246.300,80.730,28.600,825.200,241.300,86.080,30.690,327.200,72.460,21.220,6.302,434.500,118.800,30.710,11.770,baseline
838.200,246.000,80.870,28.660,823.800,241.900,86.210,30.890,329.300,72.340,21.210,6.295,434.300,118.700,30.730,11.810,baseline
841.600,246.800,81.180,28.810,824.100,242.500,86.210,30.870,327.600,72.460,21.240,6.327,434.700,119.200,30.790,11.850,baseline
840.900,246.400,81.370,28.740,824.400,242.000,86.170,30.870,326.400,72.430,21.240,6.313,435.200,119.200,30.780,11.820,baseline
844.900,247.300,81.410,28.970,826.800,242.100,86.440,30.930,327.800,72.500,21.210,6.328,435.500,119.100,30.830,11.900,baseline
849.100,248.400,81.820,29.160,826.800,243.500,86.700,31.050,328.200,72.510,21.280,6.332,436.600,119.600,30.960,11.900,baseline
844.000,247.800,81.340,28.670,821.800,241.300,85.780,30.680,328.400,72.470,21.250,6.304,433.700,118.800,30.590,11.740,baseline
835.000,244.500,80.010,28.430,820.800,240.200,85.860,30.690,326.600,72.040,21.140,6.295,432.700,118.300,30.510,11.720,baseline
833.400,244.700,80.310,28.370,822.000,241.400,85.710,30.740,326.500,72.200,21.180,6.295,433.100,118.500,30.580,11.760,baseline
836.400,245.600,80.480,28.530,819.000,241.300,86.020,30.730,326.100,72.270,21.200,6.297,433.100,118.300,30.550,11.750,baseline
834.000,246.100,80.030,28.540,824.500,241.000,85.950,30.790,327.400,72.360,21.170,6.303,433.100,118.200,30.640,11.780,baseline
836.500,245.500,80.690,28.670,822.700,241.800,86.110,30.900,326.700,72.330,21.260,6.312,434.200,118.900,30.670,11.830,baseline
841.000,246.900,81.420,28.940,827.400,242.800,86.560,30.980,327.300,72.500,21.300,6.336,434.700,119.000,30.810,11.870,baseline
845.200,246.900,81.130,28.620,821.200,240.500,85.660,30.640,326.900,72.480,21.250,6.327,432.400,118.400,30.580,11.730,baseline
826.600,242.800,79.460,28.110,817.700,240.600,85.450,30.650,325.900,72.290,21.130,6.260,430.400,117.900,30.410,11.690,baseline
831.200,243.000,79.700,28.260,822.700,240.800,85.820,30.740,324.900,72.090,21.150,6.304,431.100,118.000,30.520,11.710,baseline
832.500,244.200,80.120,28.360,819.800,239.900,85.550,30.760,324.800,72.180,21.240,6.315,432.000,118.100,30.460,11.720,baseline
832.100,244.300,80.090,28.380,820.600,240.600,86.180,30.830,325.600,72.280,21.240,6.319,432.300,118.100,30.510,11.750,baseline
833.400,244.700,80.240,28.510,824.100,240.600,86.160,30.930,325.500,72.330,21.280,6.347,432.300,118.400,30.570,11.790,baseline
839.200,245.800,81.100,28.720,823.900,242.300,86.770,31.110,325.500,72.390,21.320,6.361,432.900,118.800,30.780,11.840,baseline
844.800,247.200,81.420,28.940,822.600,241.900,86.210,30.840,326.500,72.360,21.280,6.359,432.800,118.500,30.610,11.780,baseline
832.800,243.600,79.670,28.170,820.600,239.700,85.720,30.700,324.700,72.240,21.190,6.293,430.400,117.700,30.380,11.670,baseline
829.600,243.100,79.380,28.130,821.600,240.500,85.920,30.880,324.500,72.190,21.200,6.304,430.600,117.700,30.440,11.670,baseline
831.900,242.500,79.880,28.340,820.600,241.500,86.270,30.880,326.000,72.270,21.240,6.321,431.600,117.700,30.490,11.710,baseline
832.000,243.600,79.770,28.330,821.400,240.700,85.900,30.850,325.800,72.340,21.200,6.336,430.000,118.100,30.420,11.740,baseline
834.200,243.600,80.030,28.350,821.900,241.300,86.200,30.990,325.900,72.200,21.330,6.355,431.400,118.100,30.490,11.760,baseline
837.700,244.400,80.430,28.610,823.100,242.100,86.710,31.080,326.100,72.480,21.280,6.344,432.100,118.300,30.660,11.800,baseline
838.400,246.400,80.940,28.810,824.900,242.900,86.590,31.160,325.900,72.270,21.350,6.364,433.300,118.500,30.800,11.820,baseline
843.500,245.000,80.490,28.420,819.300,240.700,86.050,30.780,325.000,72.500,21.320,6.318,430.900,117.800,30.440,11.650,baseline
827.100,241.900,79.450,28.090,820.900,240.900,86.030,30.820,325.700,72.140,21.250,6.292,430.000,117.600,30.370,11.670,baseline
827.900,241.200,79.730,28.180,820.200,241.200,86.170,30.970,325.400,72.270,21.240,6.326,431.000,117.700,30.490,11.720,baseline
830.400,244.100,79.760,28.380,822.400,242.100,86.190,30.900,324.800,72.150,21.250,6.337,431.900,117.600,30.520,11.700,baseline
829.300,243.500,79.810,28.360,821.100,241.700,86.290,31.030,325.500,72.370,21.270,6.328,431.200,117.900,30.450,11.730,baseline
833.100,244.200,80.090,28.450,823.700,241.800,86.700,31.150,324.900,72.370,21.330,6.329,431.300,118.200,30.550,11.800,baseline
840.000,245.500,80.500,28.700,825.400,243.000,87.090,31.270,325.000,72.600,21.360,6.360,433.100,118.600,30.750,11.830,baseline
841.200,246.300,81.490,28.970,826.700,242.500,86.820,31.220,325.700,72.540,21.340,6.362,433.700,118.700,30.650,11.800,baseline
836.300,244.000,80.170,28.240,821.800,241.100,86.280,30.910,326.800,72.390,21.280,6.335,431.000,117.700,30.390,11.680,baseline
834.500,242.700,79.730,28.160,822.500,241.400,86.660,31.010,327.200,72.430,21.220,6.327,430.200,117.800,30.400,11.680,baseline
830.100,243.900,80.110,28.410,822.700,242.400,86.720,31.100,325.200,72.440,21.300,6.332,431.500,118.100,30.460,11.770,baseline
833.700,243.500,80.260,28.410,823.100,241.500,86.580,30.990,325.400,72.410,21.300,6.342,432.000,117.900,30.510,11.720,baseline
832.300,243.600,80.200,28.420,826.800,242.200,86.860,31.080,325.300,72.420,21.320,6.361,432.900,118.100,30.550,11.760,baseline
838.200,244.600,80.650,28.630,829.400,243.200,87.060,31.190,323.900,72.470,21.320,6.352,433.300,118.500,30.790,11.790,baseline
843.500,245.700,81.050,28.780,831.800,244.100,87.160,31.220,326.100,72.630,21.340,6.391,434.400,118.800,30.740,11.820,baseline
837.900,244.900,80.320,28.360,823.200,242.200,86.570,31.000,327.000,72.440,21.340,6.367,432.200,118.000,30.460,11.690,baseline
828.600,243.500,79.520,28.230,824.500,242.400,86.480,30.900,326.400,72.520,21.260,6.330,431.300,118.100,30.510,11.700,baseline
836.600,242.800,79.910,28.290,825.300,242.800,86.530,31.020,325.300,72.460,21.270,6.359,432.400,118.300,30.630,11.760,baseline
834.300,244.300,80.110,28.330,826.500,242.600,86.690,31.010,326.000,72.580,21.300,6.334,432.300,118.600,30.600,11.740,baseline
838.500,244.200,80.010,28.410,829.500,243.100,86.850,31.110,327.500,72.680,21.320,6.344,433.200,118.400,30.660,11.750,baseline
839.100,246.000,80.660,28.670,828.900,243.700,87.330,31.270,328.400,72.740,21.310,6.361,433.200,118.800,30.700,11.800,baseline
844.600,245.700,81.010,28.830,830.700,243.200,87.130,31.130,326.300,72.800,21.430,6.395,433.800,118.700,30.680,11.770,baseline
834.800,243.800,79.890,28.200,822.000,242.300,86.560,30.910,326.300,72.680,21.240,6.321,432.600,118.200,30.430,11.710,baseline
832.600,242.900,79.540,28.270,827.800,241.900,86.520,31.020,324.800,72.560,21.330,6.332,432.400,118.300,30.530,11.730,baseline
834.700,244.400,80.240,28.460,828.600,243.100,86.790,31.030,326.500,72.560,21.340,6.341,432.900,118.400,30.640,11.770,baseline
836.400,244.500,80.010,28.420,827.600,243.200,87.020,31.110,326.700,72.670,21.370,6.339,432.500,118.300,30.420,11.740,baseline
837.500,245.700,80.230,28.490,828.500,244.000,86.970,31.270,327.100,72.680,21.320,6.337,434.100,118.700,30.760,11.780,baseline
839.500,246.600,80.990,28.740,832.100,244.600,87.310,31.390,328.700,72.750,21.340,6.372,433.300,118.700,30.710,11.830,baseline
842.000,246.400,81.060,28.650,829.400,243.600,86.650,31.050,328.400,72.700,21.400,6.369,433.300,118.400,30.550,11.710,baseline
832.400,242.300,79.550,28.140,829.500,242.300,86.500,30.990,326.400,72.510,21.220,6.332,431.200,118.100,30.500,11.680,baseline
834.600,242.600,79.840,28.130,826.200,243.600,86.850,31.110,326.500,72.570,21.280,6.319,431.500,117.900,30.440,11.700,baseline
835.400,243.500,80.030,28.330,825.400,243.000,86.460,31.040,326.400,72.710,21.330,6.341,431.000,118.400,30.430,11.710,baseline
831.900,244.500,79.760,28.320,823.700,243.100,86.780,31.110,327.400,72.540,21.310,6.309,431.600,118.300,30.490,11.740,baseline
835.300,243.300,80.290,28.480,829.900,243.500,86.940,31.250,327.600,72.500,21.330,6.340,432.000,118.700,30.600,11.780,baseline
839.800,246.700,80.570,28.680,836.000,244.500,87.330,31.300,325.800,72.560,21.300,6.362,433.800,119.100,30.750,11.770,baseline
837.000,244.000,80.120,28.320,822.800,242.100,86.510,30.970,326.500,72.600,21.270,6.343,431.000,117.900,30.480,11.670,baseline
829.900,241.900,79.260,28.050,822.700,242.600,86.420,31.020,326.400,72.370,21.210,6.295,430.400,117.800,30.280,11.660,baseline
831.600,242.900,79.290,28.110,821.100,242.600,86.730,31.060,326.900,72.430,21.230,6.324,430.500,117.800,30.470,11.700,baseline
830.400,243.500,79.730,28.100,825.900,242.900,86.490,31.060,325.500,72.450,21.210,6.331,431.500,118.000,30.350,11.670,baseline
831.700,242.000,79.500,28.230,825.000,243.300,86.640,31.060,325.600,72.530,21.210,6.315,431.600,117.700,30.460,11.690,baseline
831.800,244.000,79.850,28.350,825.600,243.500,87.040,31.230,324.200,72.430,21.260,6.349,430.500,118.500,30.600,11.750,baseline
837.000,244.000,80.590,28.590,826.700,245.000,87.320,31.300,326.600,72.610,21.320,6.355,432.800,118.700,30.600,11.760,baseline
834.400,243.100,79.500,28.140,824.200,242.100,86.430,31.020,326.400,72.460,21.240,6.323,430.100,117.700,30.350,11.630,baseline
824.500,241.600,79.150,27.880,823.000,242.400,86.600,31.020,324.000,72.240,21.200,6.307,428.900,117.300,30.250,11.590,baseline
828.100,241.400,78.960,28.050,826.000,242.400,86.360,31.070,325.100,72.290,21.210,6.309,430.200,117.300,30.350,11.640,baseline
827.600,242.700,79.190,28.050,823.000,242.900,86.590,31.090,324.400,72.280,21.260,6.332,429.800,117.300,30.280,11.610,baseline
826.300,241.800,79.010,28.070,825.000,242.800,86.860,31.150,325.500,72.410,21.290,6.319,429.400,117.700,30.380,11.680,baseline
832.600,243.100,79.650,28.240,825.000,243.500,87.010,31.220,324.200,72.450,21.300,6.347,429.300,117.900,30.420,11.710,baseline
834.500,244.500,80.130,28.410,830.200,243.900,87.140,31.340,326.300,72.510,21.320,6.348,431.000,118.400,30.520,11.750,baseline
838.400,244.100,79.970,28.140,827.600,242.500,86.260,30.990,325.100,72.540,21.330,6.336,429.500,117.500,30.220,11.580,baseline
826.100,240.700,78.440,27.780,826.100,242.300,86.550,30.970,326.300,72.170,21.190,6.299,427.900,117.000,30.120,11.590,baseline
821.100,240.900,78.480,27.810,822.700,241.700,86.380,31.070,325.100,72.290,21.230,6.305,428.300,117.000,30.210,11.600,baseline
825.400,241.700,79.060,27.830,824.700,241.900,86.590,31.070,326.800,72.390,21.240,6.323,427.800,117.000,30.180,11.580,baseline
824.700,241.100,78.690,27.870,822.700,242.800,86.670,31.050,325.000,72.390,21.230,6.320,428.600,116.900,30.270,11.610,baseline
826.600,242.200,79.470,28.010,826.100,243.700,86.990,31.200,324.800,72.340,21.280,6.344,428.900,117.300,30.320,11.670,baseline
830.600,243.400,79.590,28.240,827.700,244.200,87.460,31.320,325.500,72.360,21.350,6.357,429.100,117.700,30.400,11.700,baseline
835.500,243.700,80.360,28.450,827.900,244.200,87.070,31.210,326.000,72.550,21.360,6.349,430.300,117.600,30.280,11.670,baseline
827.000,240.700,78.790,27.710,822.800,242.100,86.250,31.000,325.300,72.380,21.240,6.319,427.300,116.900,30.100,11.550,baseline
821.700,240.100,78.540,27.710,822.100,242.500,86.660,31.050,326.000,72.090,21.260,6.325,426.900,116.600,30.200,11.550,baseline
823.700,240.300,78.460,27.780,821.600,242.400,86.740,31.080,324.000,72.270,21.290,6.315,428.000,117.000,30.150,11.580,baseline
826.800,240.700,78.630,27.780,824.600,242.500,86.800,31.130,324.400,72.360,21.230,6.333,426.400,116.900,30.130,11.590,baseline
826.500,240.400,78.910,27.850,823.200,242.400,87.020,31.190,325.000,72.320,21.290,6.335,427.200,117.000,30.170,11.610,baseline
827.700,241.100,79.390,28.050,827.300,243.500,87.070,31.290,324.500,72.490,21.300,6.350,428.400,117.200,30.280,11.670,baseline
833.400,243.400,79.850,28.300,826.600,245.200,87.400,31.450,325.000,72.500,21.340,6.370,429.100,117.400,30.420,11.680,baseline
833.400,244.400,79.750,28.230,826.600,243.700,86.840,31.150,324.700,72.680,21.430,6.357,428.500,117.100,30.150,11.570,baseline
823.300,240.800,78.310,27.670,822.000,242.900,86.650,31.140,325.100,72.260,21.260,6.328,426.000,116.600,30.050,11.560,baseline
823.700,239.700,78.550,27.780,822.500,242.600,87.150,31.190,324.800,72.350,21.260,6.331,426.900,116.800,30.050,11.560,baseline
825.300,240.200,79.040,27.940,823.300,243.300,87.090,31.240,324.400,72.340,21.320,6.338,427.100,116.400,30.110,11.600,baseline
824.600,241.000,78.720,27.910,825.400,244.200,86.950,31.300,324.900,72.350,21.330,6.334,427.200,117.000,30.170,11.590,baseline
826.800,241.100,79.190,28.090,825.300,243.200,87.520,31.450,324.900,72.410,21.330,6.350,428.000,117.300,30.270,11.650,baseline
830.900,243.000,79.630,28.260,828.500,244.400,87.770,31.530,325.300,72.480,21.370,6.349,427.200,117.600,30.350,11.700,baseline
834.400,243.800,80.150,28.540,834.200,244.800,87.810,31.490,326.500,72.670,21.440,6.400,428.900,117.500,30.310,11.690,baseline
830.200,242.300,79.120,27.960,827.900,242.500,86.860,31.190,325.400,72.430,21.300,6.361,426.800,116.700,30.030,11.550,baseline
824.200,240.600,78.400,27.860,823.900,243.000,87.090,31.260,323.400,72.540,21.300,6.345,426.100,116.600,30.090,11.600,baseline
825.700,241.500,79.080,28.020,828.400,244.300,87.600,31.450,325.500,72.460,21.300,6.367,426.200,116.700,30.160,11.620,baseline
826.600,242.900,79.450,28.000,827.500,243.900,87.480,31.370,327.100,72.540,21.290,6.363,426.800,116.600,30.090,11.620,baseline
829.600,241.900,79.350,28.150,828.400,244.100,87.620,31.470,325.500,72.320,21.370,6.354,427.800,116.700,30.260,11.650,baseline
832.500,243.900,79.960,28.340,831.900,244.400,88.060,31.660,326.500,72.690,21.390,6.377,429.100,117.600,30.320,11.680,baseline
832.100,243.900,80.450,28.600,832.900,246.000,87.950,31.720,325.800,72.750,21.460,6.375,428.900,117.700,30.440,11.730,baseline
830.700,244.300,80.100,28.300,828.600,244.400,87.340,31.400,326.600,72.670,21.390,6.368,427.500,116.800,30.170,11.610,baseline
827.100,240.600,79.170,28.030,825.300,243.600,87.440,31.430,325.700,72.310,21.330,6.342,425.600,116.800,30.160,11.610,baseline
827.500,242.700,79.340,28.090,827.400,244.200,87.690,31.490,325.900,72.580,21.370,6.362,427.300,117.000,30.180,11.680,baseline
827.800,243.100,79.930,28.270,827.600,245.100,87.900,31.580,326.500,72.620,21.350,6.385,427.400,117.200,30.290,11.660,baseline
831.600,242.800,79.710,28.240,828.600,245.000,87.900,31.600,326.100,72.580,21.390,6.373,427.100,117.000,30.230,11.650,baseline
827.600,244.600,80.220,28.420,831.800,245.500,88.290,31.810,325.600,72.680,21.450,6.393,428.900,117.100,30.300,11.710,baseline
833.100,245.000,80.800,28.640,834.300,245.900,88.390,31.770,327.100,72.660,21.450,6.405,429.200,117.400,30.400,11.740,baseline
832.400,244.600,79.990,28.270,827.200,244.200,87.640,31.530,327.900,72.730,21.380,6.378,425.300,116.500,30.130,11.600,baseline
822.900,241.900,79.390,28.200,825.200,244.300,87.720,31.690,324.500,72.320,21.320,6.363,425.200,116.600,30.130,11.620,baseline
829.100,244.500,79.920,28.410,828.400,245.500,88.050,31.810,326.400,72.430,21.350,6.375,427.000,116.500,30.170,11.690,baseline
831.900,243.400,80.290,28.500,828.800,245.600,88.140,31.720,326.700,72.490,21.380,6.375,427.000,116.800,30.120,11.690,baseline
832.300,243.800,80.310,28.370,829.600,245.300,88.070,31.750,327.100,72.530,21.390,6.376,427.300,116.800,30.210,11.720,baseline
834.400,244.400,80.850,28.590,831.200,246.200,88.660,31.870,327.100,72.650,21.410,6.394,428.100,117.300,30.360,11.790,baseline
837.300,245.700,81.140,28.850,830.500,246.400,88.100,31.810,327.200,72.900,21.480,6.397,427.900,117.100,30.260,11.730,baseline
827.400,242.900,79.650,28.210,828.200,245.000,87.840,31.650,326.100,72.550,21.360,6.376,425.400,116.400,30.010,11.630,baseline
827.400,241.500,79.760,28.270,830.600,245.300,88.220,31.760,326.300,72.460,21.300,6.350,424.800,116.300,30.150,11.640,baseline
825.700,242.700,80.050,28.440,828.100,245.900,88.230,31.800,327.400,72.510,21.340,6.387,425.800,116.500,30.130,11.680,baseline
827.300,242.900,79.910,28.340,829.800,245.900,88.190,31.720,326.300,72.500,21.280,6.374,426.000,116.500,30.180,11.650,baseline
828.900,243.100,80.280,28.410,832.100,246.200,88.110,31.900,325.200,72.640,21.350,6.393,426.100,116.800,30.230,11.670,baseline
835.400,244.000,80.700,28.720,835.600,247.200,88.640,31.980,326.400,72.700,21.430,6.396,426.400,117.000,30.260,11.740,baseline
831.000,243.600,80.450,28.600,830.400,246.200,88.610,32.030,326.200,72.550,21.390,6.389,425.700,117.000,30.180,11.740,hard
836.200,244.800,80.930,28.850,831.200,246.400,88.430,31.880,327.100,72.700,21.460,6.420,426.100,116.400,30.150,11.660,hard
826.500,240.700,79.190,28.130,823.500,244.600,87.800,31.590,327.400,72.250,21.280,6.361,423.000,115.500,29.880,11.550,hard
818.900,239.800,79.010,28.030,824.000,245.200,87.630,31.670,324.300,72.210,21.230,6.364,422.800,115.600,29.900,11.570,hard
818.200,240.400,79.070,28.100,825.600,244.400,87.800,31.720,325.500,72.190,21.300,6.350,422.400,115.800,29.830,11.600,hard
821.500,240.000,79.150,28.200,826.400,243.900,88.240,31.750,325.000,72.490,21.340,6.347,422.100,115.600,29.850,11.590,hard
824.000,240.400,79.890,28.230,828.700,245.300,88.140,31.800,324.300,72.480,21.330,6.350,422.800,116.100,29.950,11.650,hard
820.300,241.700,79.820,28.300,829.300,245.700,88.440,31.890,325.400,72.460,21.320,6.388,423.500,116.000,30.050,11.650,hard
829.200,243.600,80.330,28.520,829.900,246.100,88.640,31.850,325.600,72.600,21.390,6.407,425.300,116.000,30.130,11.690,hard
827.000,242.300,79.660,28.110,825.900,244.300,87.590,31.610,325.100,72.370,21.360,6.366,421.600,115.200,29.690,11.560,hard
819.100,240.600,78.620,27.900,822.600,243.600,87.910,31.680,323.300,72.300,21.280,6.338,421.200,115.300,29.690,11.490,hard
819.300,239.100,78.630,27.960,826.600,244.400,87.820,31.570,324.400,72.310,21.290,6.350,422.300,115.300,29.820,11.550,hard
819.300,239.800,78.690,27.810,825.500,243.400,87.440,31.480,322.900,72.360,21.340,6.345,422.100,115.700,29.830,11.540,hard
818.600,238.800,78.260,27.740,825.800,243.200,87.260,31.420,324.400,72.430,21.340,6.354,422.900,115.600,29.860,11.530,hard
818.500,240.100,78.920,27.860,825.000,243.800,87.480,31.520,325.000,72.500,21.340,6.374,424.000,116.200,29.920,11.600,hard
822.800,242.100,79.300,28.150,828.700,244.700,87.910,31.720,324.400,72.660,21.410,6.382,425.700,116.400,30.070,11.630,hard
828.300,242.100,79.720,28.130,824.100,244.000,87.150,31.380,326.300,72.740,21.440,6.397,425.200,116.100,29.890,11.510,hard
821.500,238.700,77.920,27.550,822.300,243.000,86.870,31.240,325.400,72.450,21.260,6.351,422.500,115.300,29.700,11.460,hard
814.800,236.900,77.770,27.510,825.100,243.200,86.990,31.290,324.500,72.590,21.330,6.351,422.300,115.600,29.740,11.480,hard
821.400,238.400,78.220,27.630,824.000,243.400,87.010,31.330,323.900,72.470,21.340,6.352,423.100,115.600,29.730,11.510,hard
817.700,238.100,78.060,27.470,827.100,243.200,87.080,31.360,323.400,72.410,21.320,6.347,422.800,115.400,29.790,11.500,hard
815.800,238.300,78.220,27.640,826.300,243.900,87.320,31.490,323.000,72.430,21.370,6.347,423.700,115.700,29.870,11.530,hard
823.800,240.100,78.830,27.890,827.000,244.900,87.520,31.560,325.300,72.600,21.440,6.392,423.900,115.900,30.000,11.590,hard
825.200,241.100,79.290,28.050,826.600,244.700,87.540,31.450,326.000,72.770,21.470,6.377,424.500,116.200,29.900,11.560,hard
823.600,239.500,78.010,27.510,822.800,242.700,86.860,31.260,324.000,72.470,21.340,6.348,421.800,115.300,29.670,11.460,hard
814.800,237.700,77.720,27.540,825.000,243.400,87.240,31.280,324.100,72.440,21.300,6.337,422.000,115.300,29.730,11.480,hard
817.500,238.100,78.280,27.600,825.200,244.200,87.530,31.440,324.500,72.450,21.280,6.367,423.000,115.500,29.760,11.500,hard
821.700,239.100,78.350,27.630,825.400,244.300,87.150,31.480,325.200,72.580,21.320,6.332,421.900,115.400,29.790,11.510,hard
817.700,239.500,78.610,27.720,826.600,244.200,87.610,31.570,323.200,72.530,21.400,6.348,422.600,115.700,29.790,11.500,hard
820.500,239.800,78.730,27.980,826.200,245.000,88.120,31.690,324.400,72.630,21.390,6.372,424.000,115.800,29.880,11.560,hard
827.700,242.300,79.540,28.150,831.200,246.000,88.090,31.630,327.500,72.670,21.420,6.376,424.700,116.200,29.900,11.580,hard
825.700,240.700,78.490,27.710,826.000,243.800,87.190,31.390,325.700,72.680,21.390,6.361,421.200,115.400,29.660,11.470,hard
818.900,239.400,77.980,27.600,827.100,243.100,87.350,31.370,323.800,72.350,21.310,6.324,422.500,115.000,29.730,11.480,hard
819.200,240.000,78.360,27.690,827.500,244.900,87.690,31.510,324.900,72.480,21.340,6.363,422.900,115.800,29.750,11.500,hard
818.900,238.800,78.350,27.710,829.900,244.400,87.490,31.540,324.100,72.610,21.340,6.337,422.800,115.400,29.810,11.510,hard
822.100,239.800,78.650,27.800,827.600,244.900,87.550,31.570,325.300,72.610,21.370,6.368,423.200,115.700,29.910,11.490,hard
823.200,240.800,79.080,27.950,829.000,244.700,88.020,31.690,326.000,72.640,21.380,6.369,424.400,115.900,29.980,11.570,hard
827.700,241.200,79.630,28.240,830.000,246.100,88.090,31.680,324.800,72.670,21.430,6.387,424.900,115.900,29.930,11.590,hard
821.900,240.200,78.710,27.750,824.800,244.300,87.290,31.420,325.300,72.680,21.350,6.324,422.100,115.500,29.670,11.480,hard
821.600,240.000,78.220,27.680,824.800,244.800,87.660,31.470,323.900,72.540,21.350,6.353,422.600,115.700,29.770,11.510,hard
821.000,239.700,78.840,27.800,827.700,245.300,88.020,31.580,325.300,72.400,21.410,6.334,423.700,115.800,29.800,11.550,hard
825.500,240.100,78.870,27.860,827.800,245.000,87.690,31.600,324.700,72.540,21.390,6.354,423.000,115.800,29.880,11.530,hard
819.800,239.600,78.940,27.940,831.600,245.600,88.140,31.720,326.600,72.400,21.380,6.342,423.600,115.500,29.910,11.580,hard
827.700,241.100,79.390,28.100,830.400,245.900,88.150,31.760,325.100,72.540,21.410,6.363,424.000,116.000,30.050,11.620,hard
830.400,243.300,79.690,28.170,830.000,245.600,87.970,31.520,324.900,72.750,21.480,6.377,423.400,115.800,29.880,11.510,hard
820.000,239.900,78.430,27.660,825.500,244.500,87.680,31.540,324.500,72.470,21.300,6.324,422.100,115.200,29.720,11.500,hard
821.200,239.400,78.510,27.780,828.400,244.400,87.910,31.560,324.400,72.490,21.310,6.332,422.200,115.400,29.830,11.500,hard
823.600,241.000,78.900,27.830,829.400,245.400,87.900,31.540,325.100,72.510,21.320,6.333,423.400,115.600,29.710,11.530,hard
825.700,239.600,78.840,27.850,829.800,245.300,87.840,31.620,324.900,72.610,21.370,6.333,423.400,115.700,29.950,11.540,hard
824.800,242.200,79.060,27.970,829.000,245.500,88.330,31.820,326.200,72.720,21.400,6.345,424.400,115.800,30.020,11.590,hard
828.500,242.400,79.760,28.290,834.500,247.000,88.350,31.780,327.600,72.840,21.440,6.356,425.600,116.400,30.010,11.640,hard
826.800,242.300,78.920,27.850,827.200,244.600,87.490,31.540,327.700,72.800,21.420,6.345,422.000,115.600,29.690,11.450,hard
822.500,239.200,78.290,27.640,827.000,244.100,87.730,31.550,324.800,72.530,21.340,6.333,423.400,115.500,29.730,11.500,hard
821.400,240.300,78.520,27.800,829.300,245.300,88.030,31.660,325.200,72.720,21.360,6.347,423.900,115.700,29.840,11.530,hard
826.600,241.500,78.770,27.870,832.000,245.100,88.010,31.610,326.000,72.610,21.380,6.340,422.900,116.000,29.720,11.510,hard
822.500,239.600,78.890,27.960,830.800,245.500,88.030,31.730,325.500,72.570,21.430,6.362,424.000,115.800,29.920,11.540,hard
826.900,242.200,79.360,28.120,833.600,246.200,88.420,31.860,326.300,72.730,21.420,6.358,425.200,116.600,30.070,11.620,hard
830.300,243.600,79.910,28.330,834.200,246.400,87.960,31.700,326.500,72.830,21.460,6.374,425.600,116.200,30.050,11.590,hard
820.800,240.800,78.570,27.780,829.000,244.100,87.620,31.540,324.300,72.580,21.320,6.312,423.200,115.700,29.710,11.500,hard
819.700,239.800,78.420,27.700,825.100,245.100,87.790,31.560,325.600,72.500,21.290,6.334,422.600,115.500,29.920,11.540,hard
820.700,240.300,78.720,27.860,830.500,245.000,88.130,31.670,324.000,72.500,21.350,6.355,423.800,115.700,29.870,11.570,hard
826.100,242.200,78.890,27.900,827.400,245.800,87.860,31.680,325.200,72.580,21.440,6.357,423.600,115.800,29.840,11.560,hard
828.600,241.900,78.860,28.040,829.800,245.600,88.280,31.810,325.300,72.730,21.420,6.356,424.300,116.200,30.000,11.600,hard
826.400,242.400,79.550,28.170,833.800,246.800,88.620,31.900,327.100,72.790,21.460,6.369,425.400,116.500,30.060,11.650,hard
831.800,243.700,80.290,28.290,836.400,246.400,88.250,31.760,326.900,72.950,21.480,6.388,425.700,116.500,30.040,11.610,hard
824.800,241.100,78.630,27.820,827.400,245.200,87.830,31.580,325.100,72.660,21.350,6.332,423.600,115.500,29.840,11.530,hard
823.100,239.800,78.540,27.760,826.900,246.000,87.830,31.630,326.600,72.670,21.390,6.327,423.400,115.800,29.870,11.550,hard
824.200,241.000,78.820,27.860,828.300,245.800,87.840,31.660,327.000,72.580,21.380,6.379,423.500,116.100,29.860,11.540,hard
823.200,241.500,79.070,27.860,827.400,245.500,87.840,31.740,324.300,72.780,21.420,6.354,424.100,116.000,29.900,11.540,hard
827.300,241.500,79.050,28.070,832.700,246.500,88.370,31.830,325.900,72.700,21.430,6.378,424.800,116.500,30.090,11.630,hard
830.300,242.200,79.680,28.230,832.700,247.200,88.690,31.960,327.100,72.950,21.500,6.381,425.900,116.900,30.130,11.660,hard
833.100,244.400,80.270,28.420,836.000,247.100,88.590,31.940,326.800,72.760,21.500,6.397,426.900,116.900,30.200,11.650,hard
830.200,241.600,79.130,27.870,833.400,245.400,87.810,31.650,326.600,72.820,21.440,6.373,424.200,116.000,29.900,11.570,hard
824.700,240.100,78.420,27.850,829.300,245.800,88.010,31.690,326.600,72.530,21.400,6.356,424.000,116.000,29.950,11.580,hard
827.500,241.700,78.890,27.970,830.500,245.700,87.990,31.810,324.900,72.730,21.400,6.363,425.600,116.300,29.950,11.610,hard
824.400,241.500,79.060,27.960,831.200,246.300,88.130,31.880,326.300,72.710,21.440,6.358,425.300,116.400,29.990,11.610,hard
825.700,242.300,79.180,28.110,831.300,246.400,88.160,31.850,326.500,72.790,21.460,6.378,425.500,116.800,30.130,11.640,hard
828.000,243.800,79.560,28.320,830.500,247.000,88.510,32.040,326.500,72.990,21.500,6.420,427.100,116.900,30.240,11.730,hard
835.800,244.000,80.590,28.420,833.300,247.800,88.780,32.080,325.200,72.990,21.530,6.403,427.900,117.000,30.370,11.740,hard
835.500,244.600,79.850,28.180,831.600,245.700,88.170,31.720,326.100,72.900,21.470,6.380,425.400,116.300,30.050,11.610,hard
824.400,240.800,79.030,27.880,829.200,245.400,88.000,31.650,325.200,72.790,21.410,6.368,424.700,116.000,30.110,11.570,hard
825.700,241.000,79.090,27.950,826.500,246.300,87.940,31.700,324.900,72.800,21.390,6.373,425.700,116.300,30.080,11.650,hard
825.600,240.900,79.410,27.980,827.400,245.700,88.010,31.670,326.300,72.840,21.480,6.396,426.500,116.400,30.010,11.620,hard
827.600,241.700,79.030,28.060,832.400,245.300,87.980,31.610,324.200,72.850,21.450,6.383,426.500,116.900,30.160,11.660,hard
828.300,242.500,79.580,28.180,834.600,246.300,87.990,31.740,327.300,73.110,21.480,6.386,427.900,117.100,30.320,11.700,hard
832.300,243.400,79.980,28.400,836.200,248.000,88.490,31.890,326.100,73.040,21.580,6.410,428.600,117.400,30.380,11.760,hard
837.400,245.400,80.670,28.700,835.500,247.400,88.460,31.860,328.500,73.190,21.590,6.410,429.700,118.000,30.340,11.740,hard
832.300,242.900,79.230,28.030,834.300,245.600,87.930,31.580,327.900,72.860,21.520,6.393,427.000,117.000,30.110,11.650,hard
826.600,241.800,78.990,27.950,828.100,245.900,88.110,31.640,325.800,72.890,21.430,6.372,426.500,117.100,30.190,11.670,hard
829.800,242.600,79.340,28.090,830.200,245.900,87.890,31.760,326.400,73.000,21.500,6.376,426.800,117.200,30.270,11.700,hard
829.400,242.900,79.620,28.140,831.400,246.500,88.160,31.740,327.000,73.030,21.500,6.386,427.600,117.000,30.240,11.680,hard
832.800,242.300,79.530,28.250,831.900,246.400,88.260,31.850,326.800,72.970,21.490,6.387,427.700,117.000,30.310,11.680,hard
830.800,243.900,80.050,28.330,834.000,247.000,88.610,31.940,327.300,73.000,21.550,6.407,428.500,117.600,30.420,11.790,hard
838.300,245.300,80.730,28.760,837.800,248.300,89.190,32.150,327.700,73.170,21.480,6.416,429.500,118.000,30.450,11.820,hard
844.000,247.100,81.070,28.690,835.000,247.500,88.320,31.850,326.200,73.020,21.610,6.411,429.800,117.700,30.390,11.710,hard
829.400,242.200,79.510,28.140,833.000,245.400,88.250,31.750,326.000,72.840,21.500,6.376,427.100,117.200,30.280,11.660,hard
830.900,242.600,79.440,28.330,834.300,247.000,88.350,31.910,327.100,72.890,21.500,6.397,427.500,117.300,30.320,11.750,hard
830.700,244.100,80.060,28.440,833.400,247.300,88.520,31.870,327.800,73.020,21.520,6.397,428.400,117.300,30.410,11.770,hard
832.200,243.900,79.830,28.410,834.100,247.700,88.340,31.940,325.200,72.940,21.570,6.396,428.800,117.400,30.400,11.770,hard
834.500,245.100,80.420,28.490,835.900,247.800,88.700,32.040,326.900,73.010,21.540,6.401,429.300,118.100,30.390,11.800,hard
839.700,245.600,81.050,28.740,835.300,248.800,89.200,32.170,328.200,73.190,21.600,6.418,429.900,118.400,30.560,11.850,hard
843.100,247.900,81.590,29.030,838.000,248.500,88.990,32.070,327.500,73.320,21.580,6.434,430.900,118.200,30.540,11.850,hard
834.300,244.700,80.160,28.340,834.900,247.100,88.320,31.830,327.500,73.060,21.500,6.380,427.700,117.500,30.330,11.730,hard
829.100,244.300,80.070,28.260,833.200,246.500,88.500,31.970,325.600,72.990,21.440,6.372,428.000,117.300,30.340,11.730,hard
833.800,245.500,80.610,28.680,832.700,247.100,88.800,31.970,327.400,72.990,21.480,6.386,428.700,117.800,30.420,11.830,hard
836.600,244.900,80.450,28.570,836.000,247.600,88.730,32.000,324.800,72.920,21.550,6.383,428.500,117.800,30.500,11.800,hard
836.600,246.000,80.870,28.700,835.100,247.400,89.120,32.170,327.700,72.970,21.510,6.404,429.700,117.700,30.520,11.840,hard
841.700,247.700,81.420,28.980,840.100,248.800,89.370,32.300,328.400,73.120,21.580,6.429,429.000,118.300,30.670,11.900,hard
842.700,249.000,81.650,29.280,837.600,249.000,89.370,32.180,328.200,73.000,21.570,6.436,430.900,118.700,30.650,11.880,hard
839.600,245.200,80.490,28.550,834.400,247.500,88.260,31.950,327.700,72.860,21.410,6.380,428.300,117.400,30.430,11.750,hard
833.100,245.200,80.400,28.530,838.500,247.500,88.950,31.990,325.600,72.730,21.470,6.391,428.200,117.500,30.430,11.820,hard
840.100,245.300,80.820,28.820,835.200,247.500,89.090,32.090,327.800,72.920,21.420,6.392,428.600,117.600,30.530,11.840,hard
843.900,245.400,80.990,28.800,834.500,247.700,88.850,32.040,327.200,72.900,21.430,6.389,428.500,117.500,30.480,11.810,hard
839.300,246.700,81.210,28.790,835.000,248.300,88.980,32.130,327.300,72.920,21.470,6.391,428.200,117.700,30.550,11.850,hard
843.400,247.400,81.710,29.010,837.400,248.800,89.550,32.310,325.500,72.960,21.530,6.406,429.900,118.400,30.620,11.910,hard
845.400,248.500,81.820,29.160,836.800,247.500,88.640,31.940,327.500,72.920,21.470,6.396,429.200,118.000,30.470,11.820,hard
837.500,244.900,80.450,28.490,831.200,246.000,88.610,31.910,325.100,72.710,21.370,6.368,427.400,117.400,30.350,11.760,hard
834.900,244.900,80.090,28.640,832.300,247.300,88.620,32.040,325.000,72.860,21.330,6.359,427.800,117.600,30.430,11.800,hard
837.000,246.600,81.180,28.780,834.700,246.800,88.870,31.990,324.100,72.780,21.390,6.372,428.000,117.600,30.400,11.840,hard
837.900,245.500,80.690,28.740,831.200,246.700,88.690,32.010,325.700,72.640,21.360,6.369,427.100,117.600,30.450,11.810,hard
835.700,246.400,81.280,28.930,834.000,248.000,89.030,32.120,325.900,72.700,21.460,6.379,427.600,117.900,30.570,11.870,hard
843.200,247.500,81.630,29.210,838.000,248.100,89.460,32.260,326.800,72.790,21.430,6.398,429.800,118.300,30.690,11.930,hard
848.000,247.800,81.380,28.880,834.000,247.100,88.420,31.800,328.300,72.850,21.430,6.375,427.800,117.300,30.420,11.770,hard
830.100,243.300,80.260,28.520,831.600,246.300,88.300,31.810,326.500,72.390,21.350,6.356,425.800,116.800,30.300,11.770,hard
832.900,243.100,80.470,28.540,831.200,246.800,88.630,31.870,327.200,72.520,21.330,6.359,426.500,117.200,30.350,11.780,hard
833.600,245.500,80.690,28.680,831.500,247.300,88.440,31.890,326.500,72.370,21.380,6.372,426.100,117.000,30.350,11.790,hard
835.500,244.000,80.570,28.690,830.800,247.000,88.440,31.970,325.100,72.430,21.350,6.362,425.800,117.200,30.360,11.780,hard
840.500,244.500,80.940,28.770,834.700,246.700,88.780,32.040,326.100,72.550,21.400,6.352,426.800,117.300,30.430,11.840,hard
840.100,246.200,81.530,29.040,833.400,248.000,88.830,32.060,324.000,72.570,21.400,6.393,428.300,117.400,30.570,11.870,hard
837.300,246.200,80.860,28.660,827.500,246.000,87.900,31.610,324.900,72.480,21.380,6.345,425.100,116.500,30.260,11.700,hard
828.000,243.200,79.880,28.270,828.000,244.600,88.040,31.680,322.600,72.250,21.290,6.307,423.500,116.300,30.190,11.690,hard
826.300,243.700,79.510,28.340,826.800,245.400,87.700,31.630,323.400,72.290,21.270,6.328,424.800,116.300,30.220,11.700,hard
830.600,244.300,79.980,28.340,826.000,244.800,87.880,31.690,324.400,72.190,21.250,6.360,423.700,116.200,30.190,11.720,hard
833.100,243.100,80.090,28.420,826.800,245.100,88.070,31.770,324.300,72.160,21.330,6.330,423.300,116.500,30.140,11.720,hard
830.200,244.100,80.410,28.450,833.000,245.800,88.120,31.920,324.900,72.310,21.340,6.334,424.600,116.600,30.270,11.800,hard
835.300,243.900,80.920,28.710,828.600,247.000,88.570,32.010,323.800,72.240,21.370,6.369,424.500,117.000,30.300,11.800,hard
834.300,245.900,80.810,28.680,826.900,245.000,87.700,31.590,325.100,72.420,21.340,6.356,423.800,116.300,30.070,11.680,hard
825.700,242.000,79.000,28.060,823.500,244.000,87.610,31.570,322.200,72.050,21.170,6.309,422.000,115.700,30.010,11.630,hard
818.000,241.000,79.170,28.000,824.100,244.200,87.940,31.640,323.900,71.840,21.250,6.300,420.900,115.600,29.950,11.640,hard
824.900,241.500,79.160,28.250,827.100,244.800,87.570,31.570,323.600,71.930,21.260,6.303,420.700,115.800,29.910,11.630,hard
823.900,241.100,79.300,28.120,824.700,243.800,87.740,31.590,322.100,71.920,21.280,6.298,420.700,115.500,29.990,11.660,hard
823.000,242.300,79.400,28.260,823.800,245.100,88.040,31.670,321.800,72.020,21.280,6.314,422.200,115.900,30.110,11.680,hard
829.700,243.000,80.090,28.490,825.700,245.400,88.600,31.810,320.900,71.980,21.280,6.333,422.200,116.200,30.100,11.710,hard
828.300,243.200,80.260,28.500,823.600,244.300,87.550,31.550,322.800,72.040,21.290,6.337,421.600,115.500,29.950,11.640,hard
821.800,240.200,78.730,27.970,821.800,242.800,87.110,31.480,321.300,71.750,21.180,6.292,418.200,114.900,29.750,11.570,hard
818.500,240.300,78.850,27.920,820.100,243.200,87.520,31.580,322.500,71.740,21.120,6.296,418.800,115.100,29.810,11.560,hard
821.500,240.300,79.120,28.060,823.200,243.300,87.430,31.640,321.100,71.630,21.150,6.310,418.800,115.000,29.830,11.560,hard
821.300,240.200,78.970,28.130,823.100,243.700,87.440,31.590,321.300,71.680,21.190,6.283,419.100,115.200,29.800,11.560,hard
820.600,239.900,78.880,28.210,823.100,244.300,87.720,31.730,321.200,71.730,21.210,6.304,418.000,114.900,29.840,11.630,hard
823.400,241.100,79.600,28.340,822.700,244.600,88.410,31.840,320.100,71.770,21.200,6.314,420.600,115.400,29.940,11.660,hard
828.200,243.300,80.400,28.600,826.200,244.500,87.670,31.660,319.800,71.870,21.190,6.332,420.100,115.400,29.790,11.570,hard
819.900,240.000,78.590,27.770,817.200,242.300,87.120,31.510,322.100,71.620,21.110,6.279,417.000,114.200,29.660,11.500,hard
813.100,238.400,78.730,27.860,821.400,242.900,87.380,31.580,318.500,71.540,21.100,6.291,416.700,114.600,29.640,11.530,hard
819.500,240.000,78.570,27.970,822.700,243.700,87.450,31.590,320.100,71.530,21.190,6.302,416.400,114.400,29.700,11.540,hard
815.000,239.600,78.800,27.970,819.700,243.300,87.710,31.660,321.900,71.650,21.150,6.291,416.900,114.500,29.710,11.550,hard
819.300,240.400,78.930,28.030,824.000,243.500,87.840,31.780,319.100,71.640,21.150,6.314,418.000,114.800,29.790,11.590,hard
822.600,241.200,79.700,28.320,825.100,245.200,88.150,31.910,320.700,71.770,21.210,6.320,419.000,114.900,29.960,11.640,hard
824.400,243.600,80.330,28.510,824.300,244.700,88.080,31.770,322.100,71.800,21.240,6.332,418.800,115.100,29.860,11.580,hard
820.100,239.900,78.740,27.980,819.800,243.100,87.430,31.640,321.800,71.540,21.150,6.277,416.400,114.200,29.620,11.520,hard
816.400,240.200,78.780,27.990,823.200,243.600,87.640,31.660,319.600,71.520,21.180,6.290,417.200,114.400,29.660,11.510,hard
820.400,239.700,79.020,28.030,822.900,244.300,87.910,31.700,319.700,71.520,21.120,6.294,416.000,114.300,29.700,11.530,hard
821.800,240.000,79.150,28.110,824.900,243.600,87.760,31.770,319.600,71.620,21.150,6.307,416.700,114.300,29.750,11.520,hard
819.900,240.400,79.450,28.160,822.900,244.100,88.040,31.850,320.000,71.770,21.170,6.310,417.200,114.700,29.780,11.570,hard
826.700,242.700,79.790,28.310,825.500,245.600,88.620,31.960,321.300,71.800,21.230,6.324,418.300,115.200,29.910,11.630,hard
824.000,241.800,79.760,28.170,823.000,244.500,87.560,31.660,320.400,71.820,21.270,6.309,416.800,114.200,29.740,11.510,hard
818.200,238.500,78.240,27.750,821.600,243.400,87.610,31.660,319.600,71.610,21.130,6.286,415.400,114.100,29.500,11.500,hard
815.900,239.100,78.700,27.920,825.000,243.300,87.590,31.760,321.000,71.640,21.200,6.303,415.000,114.000,29.570,11.500,hard
817.800,238.500,78.730,27.900,823.900,243.300,87.720,31.680,320.500,71.740,21.190,6.313,416.600,114.600,29.590,11.500,hard
815.800,239.900,78.680,27.940,821.800,244.700,87.930,31.740,319.900,71.620,21.260,6.317,416.100,114.300,29.560,11.490,hard
820.400,240.100,79.170,28.080,827.100,244.200,88.290,31.890,320.700,71.820,21.270,6.318,417.200,114.600,29.770,11.570,hard
822.300,241.500,79.660,28.340,827.600,245.300,88.410,31.930,321.200,71.900,21.280,6.358,418.400,114.800,29.750,11.600,hard
824.500,240.400,78.710,27.810,821.500,243.900,87.460,31.710,321.800,71.840,21.200,6.313,415.700,114.000,29.510,11.450,hard
816.300,238.700,77.920,27.670,824.300,243.800,87.730,31.650,320.400,71.660,21.160,6.303,415.100,113.700,29.430,11.430,hard
814.000,238.600,78.220,27.770,826.200,243.700,88.060,31.740,319.800,71.640,21.230,6.326,415.800,113.700,29.440,11.450,hard
818.000,238.700,78.570,27.810,822.700,244.400,87.770,31.770,318.600,71.760,21.250,6.328,415.100,114.100,29.440,11.490,hard
819.000,239.000,78.580,27.880,823.800,244.600,87.960,31.820,320.100,71.850,21.210,6.304,416.100,114.100,29.550,11.530,hard
821.300,241.500,79.390,28.060,826.700,244.900,88.450,31.990,320.600,71.900,21.260,6.331,416.500,114.400,29.660,11.590,hard
828.200,242.300,79.450,28.180,826.900,245.300,88.070,31.870,320.300,72.020,21.370,6.369,417.500,114.400,29.670,11.510,hard
817.600,238.800,78.260,27.660,823.700,243.800,87.640,31.650,320.200,71.800,21.230,6.310,414.900,113.700,29.490,11.460,hard
810.500,238.800,78.190,27.650,820.100,243.400,87.670,31.790,321.200,71.730,21.240,6.325,414.300,113.500,29.470,11.430,hard
816.700,239.000,78.330,27.680,823.800,244.500,87.870,31.750,320.600,71.700,21.250,6.343,415.400,113.800,29.480,11.460,hard
818.300,238.900,78.720,27.720,822.600,244.100,87.900,31.760,320.300,71.890,21.280,6.334,415.300,114.000,29.510,11.500,hard
812.000,238.300,78.570,27.860,823.700,244.300,88.310,31.950,321.900,71.990,21.310,6.348,416.400,114.000,29.640,11.500,hard
824.600,240.900,79.600,28.150,829.800,245.800,88.570,32.110,320.000,72.120,21.350,6.360,417.500,114.700,29.680,11.560,hard
824.400,242.600,79.710,28.180,824.600,245.500,88.080,31.850,320.900,72.230,21.340,6.367,416.800,114.300,29.490,11.500,hard
817.000,239.100,78.120,27.630,823.500,244.500,87.750,31.750,319.000,71.940,21.270,6.336,414.100,113.600,29.400,11.410,hard
814.700,238.900,78.100,27.710,824.300,244.500,87.940,31.830,318.700,72.030,21.270,6.331,415.000,113.700,29.440,11.420,hard
819.200,238.600,78.620,27.720,826.400,245.000,88.380,31.850,321.800,72.130,21.300,6.363,415.600,113.600,29.470,11.450,hard
815.500,239.200,78.750,27.830,825.300,245.000,88.370,31.960,320.600,71.990,21.330,6.348,415.500,113.800,29.520,11.510,hard
815.900,239.400,78.930,27.960,827.200,245.200,88.700,32.130,321.300,72.260,21.360,6.389,416.100,114.000,29.500,11.550,hard
826.100,241.400,79.560,28.350,828.300,246.200,89.210,32.310,322.300,72.290,21.420,6.387,417.100,114.700,29.700,11.630,hard
828.700,242.500,79.880,28.400,828.800,246.500,88.560,32.130,320.900,72.360,21.460,6.401,418.000,114.600,29.630,11.520,hard
824.900,240.100,78.610,27.820,822.500,244.700,88.360,32.060,324.000,72.170,21.360,6.393,415.000,114.000,29.530,11.490,hard
821.700,241.100,78.630,27.910,825.700,246.000,88.540,32.080,323.400,72.210,21.430,6.380,415.400,114.100,29.530,11.520,hard
817.700,240.900,78.990,28.040,824.300,246.200,88.820,32.190,322.700,72.170,21.410,6.390,416.100,114.200,29.600,11.570,hard
821.200,240.200,79.190,28.020,827.300,246.200,88.720,32.140,323.700,72.270,21.430,6.423,416.500,114.500,29.590,11.540,hard
822.400,241.600,79.440,28.070,829.200,246.400,89.040,32.290,322.100,72.530,21.450,6.431,417.000,114.700,29.710,11.600,hard
824.500,242.100,80.010,28.300,828.600,247.200,89.410,32.470,323.400,72.680,21.550,6.447,417.400,114.900,29.980,11.700,hard
827.900,244.300,80.250,28.490,832.800,247.600,89.130,32.360,323.900,72.750,21.610,6.442,419.400,115.600,29.930,11.630,hard
830.700,242.400,79.450,28.000,828.100,246.400,88.420,32.190,324.900,72.580,21.490,6.419,417.500,114.300,29.590,11.520,hard
825.600,241.800,79.130,27.920,827.400,246.500,88.740,32.170,323.600,72.380,21.520,6.405,416.800,114.400,29.600,11.570,hard
825.600,242.100,79.520,28.150,830.500,246.900,89.020,32.280,323.900,72.690,21.580,6.441,418.200,114.800,29.780,11.630,hard
828.900,241.700,79.270,28.170,828.100,246.800,88.940,32.280,324.100,72.680,21.570,6.443,418.300,114.800,29.780,11.630,hard
827.900,243.000,79.620,28.230,831.900,247.900,89.290,32.420,324.800,72.660,21.570,6.438,418.000,115.000,29.860,11.650,hard
829.900,243.600,80.210,28.470,833.300,248.400,89.660,32.470,324.600,72.830,21.650,6.461,419.200,115.300,30.000,11.690,hard
835.400,245.000,80.670,28.640,835.100,248.600,89.480,32.450,324.800,72.890,21.680,6.465,420.300,115.500,30.020,11.640,hard
833.700,243.200,79.620,28.190,829.300,246.900,89.170,32.370,326.200,72.800,21.590,6.449,417.800,114.800,29.670,11.610,hard
827.400,242.700,79.410,28.270,833.200,247.200,89.170,32.400,325.400,72.710,21.580,6.431,418.100,115.000,29.770,11.630,hard
829.700,242.000,80.050,28.320,831.600,247.300,89.360,32.330,325.500,72.900,21.630,6.458,419.000,115.100,29.820,11.660,hard
832.600,243.200,79.720,28.240,831.200,247.400,89.200,32.380,325.400,72.890,21.610,6.453,419.400,115.100,29.910,11.670,hard
831.300,244.000,79.950,28.350,834.500,247.800,89.430,32.540,326.200,73.160,21.650,6.485,420.600,115.700,29.890,11.710,hard
832.900,244.800,80.700,28.620,839.200,249.100,90.170,32.650,324.500,73.010,21.760,6.490,422.000,115.900,30.020,11.760,hard
839.200,246.800,80.790,28.500,834.600,247.900,89.280,32.370,325.400,73.220,21.740,6.484,420.900,115.300,29.820,11.640,hard
830.700,242.400,79.550,28.180,830.500,247.700,89.310,32.370,324.700,72.880,21.640,6.458,419.300,114.800,29.800,11.650,hard
827.700,243.800,79.460,28.230,831.000,247.800,89.360,32.460,325.200,72.890,21.600,6.473,419.300,115.100,29.800,11.660,hard
829.700,243.200,79.920,28.430,832.100,248.200,89.680,32.460,324.200,73.030,21.650,6.478,419.900,115.400,29.850,11.670,hard
832.800,244.300,79.940,28.390,833.700,247.900,89.530,32.500,324.700,73.030,21.730,6.493,420.200,115.400,29.980,11.690,hard
831.500,245.400,80.360,28.500,834.200,249.100,89.950,32.670,326.200,73.170,21.740,6.501,420.500,115.300,30.010,11.770,hard
838.900,245.700,81.370,28.810,837.300,250.000,89.940,32.700,325.800,73.380,21.780,6.521,422.800,116.000,30.040,11.740,hard
838.500,245.100,80.240,28.310,834.400,247.800,89.020,32.290,325.800,73.150,21.700,6.496,419.500,115.200,29.780,11.610,hard
826.300,242.900,79.490,28.230,832.000,247.300,89.320,32.380,324.900,73.090,21.620,6.442,418.800,114.600,29.680,11.620,hard
827.000,243.200,80.120,28.270,832.900,247.600,89.470,32.470,323.200,72.970,21.670,6.466,419.600,115.300,29.790,11.650,hard
831.000,244.500,79.920,28.420,831.600,247.100,89.560,32.470,324.400,73.160,21.660,6.474,419.800,115.400,29.830,11.660,hard
831.300,244.200,80.080,28.400,831.400,248.000,89.500,32.580,326.000,72.970,21.730,6.482,420.500,115.100,29.890,11.700,hard
832.000,244.800,80.760,28.640,839.600,248.300,90.250,32.770,325.100,73.270,21.710,6.507,421.200,115.700,29.970,11.750,hard
836.500,247.300,81.600,28.850,837.600,249.600,90.070,32.730,326.300,73.340,21.710,6.515,421.800,115.900,30.020,11.740,hard
831.300,245.700,79.860,28.350,829.000,247.900,89.450,32.400,326.800,73.170,21.700,6.484,419.400,115.100,29.790,11.650,hard
828.000,242.100,79.680,28.230,829.500,247.000,89.460,32.440,326.300,73.010,21.680,6.464,419.000,115.000,29.820,11.650,hard
829.300,243.500,79.890,28.290,831.200,248.500,89.400,32.480,325.600,72.940,21.730,6.487,419.800,115.000,29.770,11.660,hard
829.500,243.300,80.230,28.410,830.700,247.100,89.490,32.380,325.500,73.050,21.720,6.487,419.600,115.300,29.860,11.700,hard
830.400,243.200,80.380,28.440,830.500,248.800,89.770,32.610,324.200,73.200,21.640,6.483,420.400,115.400,29.900,11.720,hard
835.900,244.700,80.650,28.670,836.000,249.400,89.920,32.700,325.800,73.230,21.780,6.504,421.300,115.600,30.010,11.740,hard
840.000,246.100,81.380,28.890,839.600,249.700,90.100,32.740,326.100,73.170,21.790,6.527,422.100,115.800,30.140,11.740,hard
836.600,245.200,80.540,28.390,831.500,247.500,89.050,32.380,327.500,73.150,21.680,6.485,418.400,115.000,29.680,11.630,hard
824.500,242.800,79.550,28.220,834.100,247.100,89.300,32.450,325.400,73.030,21.660,6.463,419.300,114.700,29.710,11.620,hard
828.100,243.200,79.960,28.350,834.600,247.600,89.540,32.490,325.400,73.010,21.660,6.482,419.100,115.500,29.820,11.640,hard
828.800,243.900,79.970,28.340,829.000,248.100,89.490,32.590,326.800,73.090,21.690,6.476,419.300,115.100,29.860,11.660,hard
826.800,244.600,80.210,28.440,834.000,248.100,89.790,32.610,326.600,73.160,21.690,6.490,419.800,115.100,29.830,11.670,hard
831.900,244.100,80.880,28.700,835.900,249.200,90.140,32.720,325.300,73.220,21.760,6.496,421.100,115.300,29.970,11.760,hard
837.600,246.800,81.140,28.890,835.700,248.800,90.290,32.810,326.400,73.250,21.790,6.518,421.900,115.900,30.140,11.790,hard
836.400,244.600,80.750,28.590,829.700,247.500,89.390,32.400,325.200,73.200,21.750,6.484,419.500,115.100,29.690,11.640,hard
828.400,244.200,79.980,28.290,830.700,246.000,89.450,32.380,326.900,73.150,21.680,6.473,418.700,115.000,29.770,11.640,hard
829.800,242.900,80.080,28.520,829.500,247.900,89.470,32.480,325.500,73.150,21.680,6.482,418.600,115.200,29.880,11.690,hard
830.300,244.200,80.420,28.500,833.100,248.200,89.520,32.480,327.100,73.020,21.700,6.484,419.700,115.200,29.880,11.680,hard
832.100,244.300,80.220,28.460,828.500,247.700,89.520,32.550,325.800,73.150,21.700,6.493,420.100,115.400,29.930,11.700,hard
834.700,245.500,80.800,28.640,833.200,248.900,89.840,32.750,324.700,73.090,21.710,6.489,420.200,115.700,30.010,11.750,hard
836.600,246.100,81.430,28.970,835.200,249.300,89.970,32.810,325.000,73.140,21.810,6.516,421.900,116.000,30.070,11.770,hard
832.200,245.700,80.680,28.550,830.300,246.900,89.190,32.420,326.600,73.190,21.710,6.485,419.300,115.200,29.800,11.670,hard
824.400,243.100,79.970,28.430,832.000,247.200,89.480,32.570,325.000,72.940,21.610,6.478,418.900,115.300,29.820,11.690,hard
830.600,244.600,80.670,28.610,830.400,248.500,89.760,32.600,325.900,72.990,21.720,6.477,419.100,115.500,29.870,11.670,hard
833.200,244.900,80.720,28.680,832.700,248.400,89.740,32.610,326.600,73.090,21.720,6.488,419.600,115.200,29.910,11.700,hard
829.500,245.300,80.780,28.790,833.600,248.500,89.780,32.740,326.700,73.000,21.690,6.496,419.200,115.300,29.930,11.730,hard
834.200,245.600,81.150,28.980,836.000,248.600,90.230,32.820,325.000,73.040,21.740,6.508,420.200,115.600,30.100,11.780,hard
839.100,248.300,82.040,29.010,835.300,248.900,89.980,32.630,328.000,73.020,21.770,6.516,420.700,115.500,30.000,11.730,hard
830.900,244.800,80.580,28.500,829.600,247.700,89.410,32.560,326.500,72.890,21.660,6.467,418.400,114.800,29.760,11.670,hard
829.400,243.600,80.470,28.620,832.700,247.600,89.920,32.610,325.200,72.790,21.620,6.470,418.600,114.900,29.850,11.690,hard
828.900,246.000,80.840,28.800,831.800,248.300,89.940,32.620,325.200,73.030,21.640,6.481,419.900,115.400,29.810,11.750,hard
830.400,246.900,80.940,28.830,832.200,248.400,89.890,32.710,325.800,72.940,21.670,6.488,419.700,115.100,29.930,11.720,hard
833.400,245.800,81.050,28.990,835.500,249.000,90.410,32.850,325.200,72.900,21.700,6.501,419.800,115.500,29.990,11.770,hard
842.600,248.500,81.740,29.150,839.600,248.900,90.150,32.820,325.900,73.140,21.750,6.483,422.100,115.700,29.960,11.780,hard
833.800,245.400,80.770,28.630,831.300,248.100,89.550,32.520,324.100,72.790,21.670,6.452,418.400,114.800,29.780,11.680,hard
831.100,244.100,80.320,28.520,831.200,248.300,89.640,32.620,325.900,72.710,21.610,6.472,418.000,114.900,29.730,11.700,hard
835.300,244.100,80.870,28.670,836.200,248.600,89.850,32.620,325.000,72.680,21.610,6.455,419.700,115.200,29.860,11.720,hard
832.700,244.400,80.760,28.680,831.900,247.700,89.770,32.610,325.700,72.820,21.650,6.464,418.300,114.900,29.850,11.680,hard
829.300,245.500,80.830,28.730,833.000,248.600,89.890,32.720,325.300,72.880,21.610,6.457,419.300,115.100,29.910,11.730,hard
834.500,246.500,81.300,29.020,835.300,249.200,90.290,32.920,324.200,72.940,21.650,6.482,420.200,115.300,30.010,11.780,hard
837.900,247.600,81.840,29.040,834.600,248.100,89.930,32.600,326.100,73.020,21.730,6.490,419.400,115.200,29.820,11.670,hard
833.400,244.000,80.460,28.540,829.600,246.800,89.500,32.460,324.300,72.640,21.580,6.433,417.100,114.500,29.650,11.630,hard
828.700,244.500,79.990,28.520,825.800,248.000,89.330,32.520,324.900,72.740,21.560,6.449,416.400,114.400,29.710,11.670,hard
825.600,243.100,80.300,28.560,830.400,247.300,89.470,32.500,324.500,72.720,21.610,6.464,418.000,114.700,29.730,11.650,hard
829.500,243.400,80.420,28.490,829.900,246.900,89.250,32.510,323.200,72.610,21.600,6.449,416.400,114.600,29.730,11.670,hard
827.000,243.700,80.540,28.640,827.900,248.000,89.790,32.630,322.500,72.840,21.620,6.448,417.100,114.600,29.870,11.680,hard
834.600,245.600,81.080,28.880,833.100,249.100,90.030,32.770,324.900,72.870,21.660,6.467,418.500,115.300,29.960,11.730,hard
837.600,246.600,80.850,28.720,830.200,247.100,89.330,32.390,324.100,73.000,21.640,6.463,416.500,114.700,29.780,11.600,hard
825.600,241.700,79.610,28.300,829.300,246.500,89.060,32.340,324.500,72.520,21.510,6.417,415.500,114.100,29.590,11.580,hard
822.200,242.700,79.650,28.270,827.200,246.100,89.000,32.380,323.100,72.550,21.560,6.432,415.200,114.200,29.580,11.580,hard
826.000,242.500,79.770,28.360,827.300,246.400,89.240,32.430,323.200,72.590,21.580,6.442,415.100,114.100,29.460,11.590,hard
825.800,242.700,79.720,28.310,830.700,246.300,88.980,32.500,322.700,72.610,21.550,6.448,415.100,114.100,29.590,11.570,hard
825.700,244.000,80.150,28.520,833.100,247.200,89.740,32.640,322.600,72.600,21.580,6.442,416.200,114.400,29.720,11.650,hard
828.400,244.700,80.640,28.710,831.300,247.800,89.980,32.690,323.700,72.600,21.590,6.456,417.000,114.700,29.850,11.680,hard
835.700,245.600,80.710,28.560,832.500,246.900,89.020,32.430,323.800,72.630,21.610,6.453,415.400,114.100,29.520,11.550,hard
822.700,241.200,79.390,28.140,824.400,246.400,89.130,32.410,322.300,72.570,21.460,6.409,413.600,113.700,29.420,11.540,hard
823.000,242.700,79.690,28.260,828.300,245.900,89.460,32.450,323.100,72.330,21.540,6.421,414.600,113.800,29.470,11.580,hard
824.500,242.300,79.840,28.390,828.200,246.100,89.250,32.500,323.700,72.540,21.500,6.443,414.300,113.700,29.500,11.580,hard
827.800,242.600,80.070,28.290,827.700,247.100,89.370,32.520,323.300,72.370,21.590,6.428,415.100,114.000,29.540,11.560,hard
828.800,243.200,80.350,28.530,829.500,247.600,89.640,32.610,323.800,72.470,21.590,6.454,414.500,113.800,29.660,11.630,hard
830.900,244.800,80.820,28.720,832.200,248.200,89.890,32.810,323.100,72.660,21.570,6.481,416.000,114.500,29.740,11.670,hard
830.000,246.500,81.060,28.760,830.500,247.400,89.660,32.570,323.300,72.620,21.650,6.472,414.800,114.200,29.590,11.610,hard
823.200,242.200,79.590,28.250,827.900,245.800,89.000,32.400,322.200,72.310,21.470,6.429,413.800,113.600,29.410,11.530,hard
825.700,242.500,79.800,28.320,827.600,246.900,89.340,32.460,323.200,72.360,21.540,6.434,413.500,113.800,29.510,11.580,hard
823.400,242.700,80.020,28.470,827.700,247.400,89.530,32.640,323.300,72.550,21.530,6.456,414.000,113.700,29.540,11.640,hard
826.300,242.700,80.360,28.390,829.200,246.900,89.890,32.670,322.200,72.560,21.580,6.432,413.400,113.900,29.540,11.590,hard
822.400,243.500,80.530,28.590,831.500,248.200,89.770,32.730,323.200,72.410,21.630,6.458,414.000,114.200,29.580,11.670,hard
831.500,244.500,80.720,28.720,832.700,248.600,90.060,32.850,323.900,72.600,21.650,6.465,415.700,114.400,29.750,11.700,hard
830.100,245.900,81.070,28.800,829.600,247.300,89.730,32.660,323.900,72.740,21.640,6.480,414.200,114.000,29.560,11.590,hard
825.400,241.800,79.900,28.290,827.900,246.700,89.620,32.600,321.700,72.410,21.520,6.446,413.300,113.800,29.430,11.570,hard
825.500,243.600,79.910,28.360,828.400,248.100,89.930,32.710,321.600,72.460,21.480,6.457,413.500,113.700,29.490,11.620,hard
824.500,243.000,80.390,28.510,830.600,247.100,89.910,32.730,322.500,72.560,21.620,6.467,414.300,113.800,29.480,11.610,hard
829.900,243.100,80.430,28.410,830.200,247.700,90.020,32.780,322.700,72.560,21.640,6.449,413.500,113.800,29.540,11.640,hard
830.700,244.700,80.830,28.640,830.100,248.400,90.120,32.880,323.100,72.680,21.660,6.493,414.800,114.400,29.670,11.660,hard
832.500,246.000,81.140,28.820,834.700,249.400,90.410,32.970,324.600,72.680,21.690,6.506,415.600,114.400,29.680,11.700,hard
831.300,244.200,80.940,28.630,833.500,246.800,89.780,32.740,323.600,72.650,21.620,6.462,413.900,113.800,29.560,11.630,hard
822.800,243.100,79.890,28.390,828.400,248.000,90.020,32.740,323.000,72.590,21.600,6.463,412.500,113.500,29.500,11.570,hard
823.700,242.700,80.130,28.520,831.600,247.600,90.020,32.820,324.500,72.530,21.610,6.470,413.700,113.500,29.530,11.610,hard
827.600,244.600,80.180,28.570,831.500,247.900,90.260,32.860,324.200,72.620,21.640,6.464,413.400,113.600,29.450,11.640,hard
826.800,244.100,80.640,28.610,832.600,248.000,90.100,32.830,322.800,72.580,21.610,6.475,413.900,114.000,29.670,11.620,hard
828.800,244.300,80.860,28.780,834.200,249.800,90.680,33.020,324.300,72.800,21.680,6.514,414.800,114.000,29.690,11.690,hard
830.700,246.200,81.400,29.040,837.600,249.700,90.770,33.040,324.700,72.850,21.740,6.506,414.900,114.500,29.730,11.710,hard
830.700,244.700,80.820,28.560,830.100,248.300,89.930,32.730,323.300,72.820,21.710,6.480,413.000,113.800,29.340,11.620,hard
823.100,241.900,80.040,28.390,829.100,247.900,89.890,32.790,323.500,72.640,21.570,6.479,413.400,113.700,29.460,11.580,hard
823.200,242.900,80.240,28.380,829.800,248.100,90.130,32.850,323.700,72.630,21.650,6.478,413.100,113.600,29.590,11.610,hard
825.700,243.700,80.350,28.380,829.300,248.300,90.190,32.850,323.000,72.690,21.620,6.482,413.100,113.300,29.570,11.600,hard
827.300,244.600,80.450,28.480,831.600,248.100,90.500,32.950,324.500,72.730,21.690,6.496,413.200,113.900,29.570,11.640,hard
827.900,244.700,80.770,28.760,832.000,249.700,90.570,33.060,322.200,72.940,21.770,6.516,414.600,114.000,29.690,11.690,hard
829.800,245.800,81.100,28.940,837.100,250.600,90.800,33.190,325.000,73.030,21.790,6.533,415.400,114.200,29.900,11.740,hard
840.500,246.600,81.540,28.950,836.200,249.100,90.500,32.960,324.500,72.860,21.760,6.515,415.000,114.300,29.540,11.690,hard
823.900,241.700,80.150,28.440,828.700,248.000,90.110,32.770,322.800,72.690,21.640,6.485,413.000,113.500,29.470,11.600,hard
827.200,243.400,80.080,28.410,832.800,248.800,90.380,32.880,324.800,72.720,21.670,6.491,413.100,113.800,29.550,11.600,hard
827.800,243.900,80.330,28.500,830.200,249.100,90.310,32.880,324.300,72.850,21.640,6.478,414.200,113.800,29.680,11.650,hard
828.300,244.000,80.270,28.480,834.500,248.100,90.460,32.970,323.900,72.810,21.710,6.498,413.500,113.800,29.530,11.640,hard
826.500,244.300,80.570,28.700,831.700,249.000,90.680,33.040,322.900,72.880,21.760,6.501,415.300,114.400,29.740,11.680,hard
827.500,245.400,81.290,28.880,836.000,250.400,90.890,33.190,323.900,73.010,21.770,6.534,415.300,114.300,29.780,11.740,hard
832.500,246.200,81.610,29.070,835.900,250.800,91.360,33.310,324.500,73.130,21.840,6.548,416.300,114.800,29.920,11.780,hard
840.300,247.900,81.830,29.010,834.100,249.200,90.950,32.970,325.400,73.160,21.800,6.543,415.000,114.300,29.640,11.660,hard
827.200,243.600,80.310,28.660,831.100,248.700,90.340,32.960,322.700,73.080,21.700,6.506,413.800,114.200,29.630,11.640,hard
826.000,243.200,80.650,28.550,832.200,249.200,90.300,32.980,324.000,72.920,21.770,6.507,414.600,114.100,29.690,11.680,hard
826.900,244.400,80.640,28.690,832.300,249.400,90.510,33.000,324.100,72.960,21.750,6.521,413.900,114.200,29.620,11.650,hard
829.500,244.400,80.720,28.700,832.600,250.000,90.590,33.060,323.900,72.880,21.770,6.527,414.700,114.300,29.640,11.680,hard
832.000,244.000,81.120,28.720,834.800,249.600,90.840,33.070,324.600,72.990,21.750,6.534,415.100,114.300,29.750,11.740,hard
836.400,245.900,81.460,28.970,838.600,250.900,91.260,33.250,323.600,73.110,21.880,6.549,417.100,114.800,29.890,11.770,hard
839.900,247.600,82.220,29.180,836.000,252.400,91.360,33.340,325.700,73.140,21.930,6.549,417.700,115.500,29.940,11.800,hard
837.600,245.900,81.280,28.820,833.800,249.500,90.380,33.040,323.800,73.130,21.840,6.549,414.300,114.400,29.780,11.700,hard
829.600,243.500,80.590,28.590,836.800,249.500,90.470,33.050,326.100,72.910,21.740,6.520,415.600,114.500,29.740,11.720,hard
832.200,245.700,80.840,28.800,836.300,250.500,91.010,33.090,326.200,73.120,21.820,6.547,416.000,114.900,29.800,11.760,hard
831.500,245.100,81.400,28.800,834.500,249.800,90.770,33.050,325.900,73.230,21.840,6.545,416.200,114.600,29.850,11.770,hard
835.300,245.800,81.500,28.910,835.700,250.700,91.010,33.180,324.600,73.110,21.810,6.540,416.000,114.800,29.940,11.800,hard
834.300,246.000,81.920,29.100,839.300,251.000,91.450,33.340,326.600,73.270,21.900,6.549,416.800,115.300,29.950,11.830,hard
840.500,246.900,82.340,29.320,840.100,251.700,91.680,33.390,326.500,73.390,21.910,6.562,418.800,115.800,30.090,11.890,hard
840.500,248.400,82.050,29.100,834.100,250.700,90.930,33.100,326.400,73.350,21.810,6.542,415.900,114.900,29.800,11.740,hard
831.500,246.100,81.230,28.910,833.700,249.900,90.740,33.080,325.800,73.250,21.790,6.535,416.000,114.700,29.920,11.730,hard
830.600,245.700,81.460,28.910,837.200,250.800,91.010,33.200,327.200,73.100,21.800,6.545,416.300,114.900,29.920,11.810,hard
836.000,246.400,81.800,29.130,835.700,251.000,91.220,33.180,326.500,73.000,21.840,6.555,416.200,114.900,29.820,11.790,hard
834.600,246.600,82.110,29.240,839.800,251.600,91.560,33.370,326.800,73.160,21.870,6.557,418.100,115.100,29.890,11.820,hard
842.400,248.100,82.330,29.370,841.700,251.300,91.750,33.430,326.500,73.260,21.870,6.566,418.200,115.400,30.150,11.870,hard
845.000,248.700,82.680,29.540,840.000,252.700,91.960,33.470,327.200,73.240,21.890,6.577,418.800,115.700,30.200,11.900,hard
844.700,248.800,82.520,29.300,837.900,250.300,91.130,33.050,326.900,73.380,21.890,6.553,417.800,115.000,29.940,11.780,hard
833.000,246.400,81.410,28.930,836.000,249.700,90.730,33.080,325.900,73.060,21.770,6.532,416.600,114.500,29.820,11.770,hard
833.200,246.100,81.410,29.050,835.900,250.700,91.150,33.110,325.000,73.120,21.890,6.532,416.800,114.800,29.980,11.780,hard
832.300,246.800,81.850,29.080,835.400,250.500,91.040,33.130,327.200,73.340,21.790,6.539,417.800,115.000,29.970,11.770,hard
835.200,246.600,81.770,29.130,838.000,250.400,91.140,33.130,326.400,73.150,21.850,6.531,417.500,115.100,30.070,11.800,hard
839.300,247.400,82.070,29.250,838.700,250.900,91.300,33.290,327.400,73.100,21.850,6.559,418.200,115.300,30.130,11.870,hard
841.700,249.600,82.680,29.490,842.300,252.200,91.570,33.390,327.400,73.420,21.960,6.558,419.400,115.700,30.300,11.910,hard
844.800,248.900,82.370,29.240,838.300,249.800,90.770,32.950,327.100,73.250,21.870,6.535,417.400,114.900,29.990,11.780,hard
831.100,244.400,81.020,28.850,837.000,249.600,90.330,33.040,325.800,73.080,21.790,6.496,416.600,114.700,29.910,11.770,hard
831.200,245.700,81.680,28.920,837.900,249.800,90.750,33.090,325.400,73.160,21.790,6.512,417.300,114.800,29.910,11.800,hard
835.000,246.300,81.430,29.050,838.900,250.800,90.860,33.070,327.300,73.170,21.720,6.525,416.700,114.700,29.890,11.800,hard
833.100,246.600,81.810,29.030,836.000,250.300,90.900,33.130,326.900,73.250,21.760,6.522,417.000,114.800,29.930,11.780,hard
839.000,247.200,82.120,29.180,840.200,251.600,91.170,33.260,324.600,73.160,21.850,6.534,417.500,115.200,30.130,11.830,hard
839.300,248.400,82.720,29.410,840.200,251.700,91.530,33.420,326.800,73.420,21.840,6.542,419.000,115.800,30.230,11.910,hard
843.800,249.600,82.780,29.420,838.600,250.400,90.810,33.030,327.300,73.320,21.850,6.533,418.000,115.000,29.870,11.790,hard
842.700,250.400,83.220,29.720,839.600,251.300,91.340,33.170,326.900,73.200,21.890,6.536,418.000,115.200,29.980,11.800,bogus
836.300,246.500,81.340,29.030,833.000,249.500,90.560,33.020,325.600,72.900,21.740,6.507,415.100,114.600,29.860,11.760,bogus
830.600,245.500,81.430,29.020,832.400,249.500,90.920,33.160,326.100,72.910,21.680,6.501,416.600,114.200,29.850,11.770,bogus
835.200,246.200,81.730,29.180,837.500,249.700,90.480,33.040,325.800,72.960,21.750,6.511,415.900,114.700,29.840,11.770,bogus
833.900,246.300,81.460,29.020,833.400,249.300,90.330,32.950,325.900,72.990,21.750,6.501,415.600,114.900,29.910,11.780,bogus
817.600,239.600,79.060,28.160,821.300,244.800,88.580,32.140,316.400,71.090,20.980,6.156,404.100,111.300,28.820,11.310,hard
817.400,240.600,79.300,28.220,819.200,245.100,88.450,32.170,316.600,71.080,20.980,6.181,403.800,111.500,28.920,11.310,hard
813.500,240.400,79.620,28.290,819.500,245.200,88.870,32.190,317.400,71.140,20.920,6.188,404.800,111.500,28.930,11.350,hard
823.300,240.400,79.680,28.520,827.300,246.400,89.120,32.350,316.900,71.290,21.020,6.201,405.000,112.000,29.000,11.390,hard
824.300,242.300,80.450,28.710,825.300,246.400,89.600,32.490,317.000,71.250,21.100,6.229,406.600,112.300,29.140,11.430,hard
825.600,241.700,79.840,28.350,822.500,245.100,88.300,31.990,318.400,71.340,21.040,6.181,404.100,111.100,28.820,11.290,hard
812.900,238.800,78.530,27.940,820.100,245.100,88.340,32.070,315.700,71.000,20.930,6.154,403.000,111.200,28.700,11.270,hard
814.300,239.600,78.740,28.080,823.300,245.000,88.950,32.090,317.200,71.090,20.950,6.164,403.400,111.000,28.870,11.330,hard
816.700,240.000,78.980,28.140,820.800,244.900,88.750,32.200,316.600,71.130,21.000,6.171,403.000,110.800,28.860,11.320,hard
816.300,238.300,79.330,28.160,822.200,244.500,88.740,32.150,316.300,71.070,20.930,6.187,403.300,111.100,28.870,11.310,hard
820.800,240.200,79.560,28.350,825.600,245.800,89.120,32.320,317.400,71.110,21.020,6.186,404.300,111.800,28.980,11.360,hard
822.100,241.700,80.180,28.570,825.700,246.900,89.450,32.500,317.300,71.430,21.030,6.203,405.400,111.800,29.100,11.420,hard
822.400,243.300,80.750,28.690,823.800,245.900,88.780,32.070,317.400,71.310,21.060,6.206,405.400,111.600,28.920,11.320,hard
814.300,239.400,78.730,28.030,820.900,244.400,88.280,32.000,315.200,70.940,20.900,6.151,402.300,110.900,28.590,11.250,hard
812.900,238.300,79.000,28.060,823.900,244.700,88.520,32.080,316.400,70.850,20.920,6.166,402.600,110.800,28.770,11.290,hard
811.100,240.200,79.260,28.240,824.700,245.600,88.390,32.150,315.600,71.080,20.990,6.146,402.700,111.100,28.770,11.250,hard
817.100,239.200,79.230,28.130,824.400,244.900,88.720,32.170,316.300,71.000,20.950,6.174,403.100,111.100,28.780,11.310,hard
812.800,240.400,79.540,28.260,823.300,246.100,88.830,32.310,315.200,71.020,20.960,6.162,404.600,111.100,28.870,11.350,hard
818.800,241.500,80.030,28.480,829.200,246.500,89.180,32.500,316.200,71.180,20.980,6.205,405.300,111.800,29.030,11.440,hard
825.400,243.900,80.630,28.770,828.100,247.400,89.720,32.480,317.100,71.280,21.070,6.205,407.200,112.400,29.080,11.440,hard
824.500,241.900,79.840,28.290,820.600,245.800,88.360,31.990,316.700,71.250,21.030,6.172,404.000,111.000,28.750,11.280,hard
814.400,239.800,78.780,27.960,823.200,244.200,88.230,32.000,315.200,71.070,20.910,6.157,403.000,111.300,28.790,11.280,hard
814.500,239.600,78.990,28.080,823.400,245.400,88.540,32.120,316.200,71.180,20.990,6.181,402.900,111.300,28.870,11.350,hard
819.700,240.000,79.460,28.120,824.900,245.600,88.500,32.210,317.500,71.350,21.030,6.162,404.200,111.400,28.850,11.320,hard
816.100,241.300,79.400,28.250,824.100,245.700,88.960,32.260,315.800,71.210,21.010,6.181,405.400,111.400,29.020,11.330,hard
822.200,241.900,79.890,28.430,825.400,246.300,89.350,32.370,316.700,71.190,21.060,6.208,406.100,111.900,29.010,11.400,hard
823.100,243.100,80.450,28.620,829.300,247.700,89.460,32.520,316.800,71.320,21.090,6.211,407.400,111.800,29.190,11.430,hard
828.700,243.800,81.070,28.840,825.900,246.100,89.120,32.240,318.100,71.480,21.110,6.222,406.000,111.700,28.960,11.380,hard
817.100,241.300,79.370,28.200,822.900,245.400,88.390,32.220,317.300,71.060,20.920,6.175,405.300,111.400,28.790,11.350,hard
815.000,241.300,79.510,28.270,824.300,246.200,88.950,32.280,316.200,71.070,21.030,6.184,404.800,111.700,28.920,11.360,hard
821.400,241.800,79.940,28.490,825.800,246.200,88.950,32.280,317.900,71.370,21.010,6.202,405.000,111.600,28.860,11.390,hard
821.600,241.600,79.810,28.490,828.100,245.900,88.960,32.240,317.600,71.210,21.080,6.217,406.300,112.100,29.020,11.370,hard
823.400,242.600,80.330,28.610,828.600,246.700,89.200,32.360,316.700,71.390,21.080,6.218,406.900,112.200,29.090,11.400,hard
825.400,244.500,80.650,28.860,829.100,248.100,89.680,32.600,318.000,71.520,21.110,6.228,406.800,112.400,29.110,11.510,hard
832.200,245.400,81.350,28.740,826.600,247.000,88.870,32.350,317.400,71.540,21.090,6.221,407.300,111.900,29.050,11.390,hard
820.900,241.600,79.420,28.330,824.000,245.900,89.200,32.300,317.700,71.230,21.050,6.192,404.700,111.400,28.920,11.340,hard
818.100,242.100,80.120,28.580,825.500,246.800,89.380,32.490,316.700,71.180,21.050,6.202,405.300,111.700,29.000,11.440,hard
822.000,243.100,80.640,28.760,828.800,246.900,89.550,32.510,318.300,71.310,21.060,6.214,406.400,112.000,29.080,11.390,hard
824.500,242.900,80.480,28.700,824.900,246.500,89.350,32.540,316.500,71.380,21.050,6.217,406.700,111.900,29.030,11.410,hard
827.400,243.400,80.730,28.810,826.300,247.900,89.550,32.640,317.300,71.370,21.130,6.236,407.300,112.100,29.160,11.490,hard
829.000,245.200,81.510,29.120,829.700,248.400,90.110,32.830,317.600,71.550,21.150,6.253,408.200,112.700,29.260,11.540,hard
830.600,246.200,81.150,28.870,826.700,247.300,89.060,32.390,317.900,71.500,21.100,6.237,406.400,111.900,29.070,11.400,hard
818.500,241.300,79.890,28.490,823.300,245.800,89.040,32.350,316.700,71.250,21.030,6.194,405.300,111.300,28.880,11.400,hard
820.600,241.600,79.960,28.540,823.900,246.300,89.540,32.440,316.600,71.210,21.000,6.202,405.700,112.100,29.000,11.410,hard
826.400,242.400,80.540,28.680,823.800,246.500,89.650,32.450,316.600,71.410,21.100,6.226,406.600,111.900,28.990,11.380,hard
821.600,243.000,80.460,28.670,826.800,246.500,89.250,32.470,316.600,71.520,21.020,6.207,406.300,112.000,28.940,11.430,hard
828.000,243.600,80.720,28.890,829.100,247.700,89.920,32.730,315.600,71.440,21.110,6.215,407.000,112.200,29.110,11.470,hard
831.000,245.800,81.530,29.130,828.800,248.700,90.070,32.820,317.500,71.530,21.120,6.248,408.400,112.100,29.280,11.510,hard
832.200,246.200,81.190,28.890,827.100,246.100,89.280,32.460,318.700,71.480,21.110,6.213,407.400,111.600,28.990,11.450,hard
820.800,241.100,80.140,28.440,820.900,245.400,89.250,32.430,316.600,71.260,21.010,6.210,405.000,111.400,28.930,11.350,hard
820.200,242.700,80.350,28.470,822.500,246.100,89.400,32.470,316.300,71.260,21.000,6.213,404.700,111.600,28.950,11.430,hard
823.700,243.500,80.330,28.630,825.600,246.400,89.200,32.400,315.100,71.250,21.030,6.227,405.800,112.100,29.080,11.410,hard
819.900,243.000,80.340,28.580,824.900,247.000,89.420,32.530,317.900,71.310,21.010,6.192,406.100,111.800,28.990,11.440,hard
822.200,244.000,80.620,28.810,829.400,247.400,89.640,32.660,316.900,71.410,21.090,6.239,407.100,112.000,29.210,11.470,hard
827.100,244.800,81.230,29.120,830.200,247.600,90.040,32.820,317.900,71.420,21.110,6.255,407.900,112.600,29.200,11.570,hard
832.600,245.700,81.350,28.920,826.400,247.100,89.310,32.450,317.500,71.580,21.160,6.260,406.200,112.100,29.100,11.370,hard
817.900,241.600,79.940,28.390,821.700,245.500,89.010,32.370,315.700,71.250,21.000,6.210,404.500,111.500,28.840,11.340,hard
819.000,241.200,80.030,28.380,822.300,245.800,89.310,32.440,315.300,71.240,21.030,6.199,404.600,111.100,28.840,11.390,hard
819.900,241.700,80.030,28.600,821.500,246.000,89.310,32.480,317.800,71.180,21.120,6.221,405.500,111.400,28.930,11.400,hard
819.300,241.700,79.980,28.620,823.800,245.800,89.280,32.540,316.500,71.260,21.030,6.230,405.000,111.500,28.880,11.420,hard
819.500,242.800,80.540,28.670,824.900,247.100,89.720,32.610,316.800,71.260,21.060,6.242,405.800,112.000,29.020,11.460,hard
825.000,243.900,81.200,28.940,826.700,248.000,89.830,32.700,316.600,71.480,21.140,6.253,406.600,112.000,29.180,11.490,hard
830.400,245.000,81.410,28.950,826.200,246.100,89.320,32.450,317.400,71.510,21.110,6.255,406.100,111.700,28.970,11.390,hard
818.200,241.000,79.620,28.330,819.200,245.100,88.750,32.320,317.300,71.180,21.010,6.219,404.300,111.100,28.830,11.320,hard
816.800,241.800,79.780,28.460,824.500,245.300,89.110,32.410,315.500,71.160,20.970,6.199,403.900,111.400,28.830,11.360,hard
819.500,240.800,80.180,28.520,824.200,245.700,89.170,32.390,316.300,71.310,21.090,6.217,404.100,111.500,28.870,11.350,hard
820.300,242.600,79.950,28.530,819.200,245.700,89.080,32.440,314.600,71.220,21.110,6.222,404.700,111.300,28.900,11.380,hard
820.600,242.400,80.260,28.650,822.600,246.600,89.420,32.510,316.100,71.380,21.150,6.233,405.000,111.600,28.970,11.420,hard
824.400,243.800,80.720,28.890,825.700,246.700,89.800,32.740,315.500,71.480,21.120,6.260,406.100,112.000,29.100,11.460,hard
829.300,245.600,81.200,28.940,825.800,246.800,89.430,32.420,317.000,71.510,21.230,6.274,406.900,111.900,28.950,11.410,hard
821.200,241.500,79.630,28.380,820.500,244.500,88.960,32.310,314.900,71.100,21.050,6.217,403.500,111.200,28.780,11.330,hard
816.800,240.800,79.840,28.440,820.300,245.200,88.960,32.400,316.900,71.310,21.060,6.215,404.000,111.200,28.770,11.340,hard
820.200,242.500,79.990,28.490,821.000,245.900,89.190,32.440,316.500,71.190,21.080,6.240,404.900,111.400,28.900,11.370,hard
819.400,242.000,79.830,28.410,821.600,245.400,89.350,32.510,316.500,71.260,21.090,6.241,405.100,111.300,28.830,11.360,hard
819.400,242.500,80.350,28.670,821.300,245.700,89.560,32.630,315.500,71.400,21.120,6.232,404.600,111.700,28.950,11.450,hard
820.000,243.800,80.810,28.910,821.500,247.400,89.850,32.830,316.800,71.430,21.120,6.262,406.200,111.800,29.080,11.490,hard
824.800,244.300,81.490,29.160,826.400,247.300,90.020,32.820,317.700,71.480,21.210,6.299,406.800,112.000,29.040,11.430,hard
820.900,241.500,80.220,28.640,823.300,245.600,89.510,32.760,316.000,71.320,21.050,6.233,403.300,110.900,28.820,11.390,hard
817.000,241.700,80.320,28.800,822.800,246.900,90.080,32.940,315.800,71.120,21.080,6.267,403.800,111.200,28.880,11.450,hard
820.200,242.900,81.240,29.040,822.000,247.000,90.510,33.120,315.500,71.270,21.150,6.273,404.800,111.600,28.990,11.460,hard
821.000,244.900,81.130,29.040,823.200,246.800,90.450,33.010,314.800,71.350,21.190,6.267,404.100,111.100,28.920,11.430,hard
823.100,243.400,81.150,29.070,824.800,247.400,90.430,33.140,317.000,71.260,21.160,6.282,405.300,111.800,29.060,11.510,hard
823.400,245.000,81.710,29.350,823.600,249.200,90.760,33.200,316.900,71.420,21.180,6.286,406.600,112.000,29.140,11.520,hard
829.700,246.200,82.190,29.330,824.100,247.600,90.020,32.950,317.200,71.430,21.260,6.290,406.800,111.800,29.090,11.490,hard
821.500,241.900,80.360,28.670,825.800,245.500,89.460,32.620,315.200,71.210,21.110,6.262,404.400,111.200,28.830,11.410,hard
823.300,242.800,80.190,28.600,823.500,245.600,89.690,32.700,316.700,71.220,21.160,6.263,404.300,111.400,28.850,11.420,hard
825.600,241.900,80.420,28.650,822.800,246.000,89.560,32.580,316.500,71.470,21.200,6.275,406.000,111.600,28.930,11.400,hard
822.800,243.800,80.260,28.610,827.800,246.200,89.670,32.660,316.900,71.490,21.190,6.271,405.700,111.800,28.960,11.440,hard
825.300,243.600,80.570,28.870,826.200,247.100,89.840,32.860,317.200,71.490,21.210,6.283,406.500,111.700,29.090,11.480,hard
831.500,245.400,81.580,29.250,829.100,248.500,90.190,33.110,318.300,71.640,21.240,6.302,407.600,112.400,29.200,11.540,hard
828.100,245.200,81.050,28.830,824.100,246.800,89.820,32.680,317.100,71.680,21.230,6.279,406.000,111.500,28.960,11.420,hard
820.000,240.600,80.190,28.520,818.400,246.600,89.570,32.670,317.400,71.290,21.160,6.263,403.900,111.200,28.860,11.370,hard
818.500,241.900,80.300,28.660,821.100,246.700,89.720,32.730,317.500,71.410,21.210,6.268,405.700,111.700,28.870,11.420,hard
826.000,242.400,80.510,28.720,825.500,247.900,89.700,32.700,316.400,71.460,21.170,6.269,405.700,111.800,28.940,11.430,hard
821.800,242.500,80.370,28.800,824.600,246.100,89.980,32.800,315.900,71.490,21.190,6.266,405.300,111.700,28.970,11.420,hard
824.900,244.300,80.940,28.930,827.600,247.200,90.130,32.980,316.800,71.550,21.240,6.306,406.500,112.000,29.030,11.490,hard
829.100,245.500,81.600,29.130,827.700,247.900,90.300,32.840,316.700,71.750,21.280,6.298,407.500,112.200,29.140,11.440,hard
823.500,242.600,80.140,28.560,825.000,246.000,89.340,32.610,316.700,71.570,21.160,6.276,404.600,111.500,28.790,11.360,hard
817.300,241.800,79.990,28.470,820.800,246.200,89.430,32.600,315.500,71.420,21.160,6.263,404.500,111.100,28.830,11.380,hard
819.200,241.800,80.340,28.760,821.200,246.600,89.710,32.690,317.400,71.310,21.170,6.279,404.800,111.600,28.930,11.390,hard
820.200,241.700,80.350,28.660,822.000,246.700,89.750,32.690,316.600,71.420,21.240,6.272,405.900,111.400,28.860,11.410,hard
822.600,242.000,80.130,28.770,826.100,246.600,89.830,32.770,316.400,71.550,21.170,6.284,405.200,111.700,28.970,11.430,hard
825.200,243.900,80.980,28.890,828.800,247.700,90.180,32.880,317.600,71.570,21.280,6.295,407.000,112.000,29.100,11.500,hard
829.500,244.600,81.470,29.000,825.500,247.500,89.960,32.760,317.000,71.720,21.340,6.306,407.000,112.000,29.000,11.410,hard
821.000,241.100,79.850,28.390,821.900,246.000,89.160,32.530,315.200,71.570,21.200,6.282,403.300,111.200,28.790,11.340,hard
816.600,241.300,79.710,28.310,823.400,245.400,89.270,32.550,315.500,71.360,21.180,6.272,404.600,111.100,28.710,11.360,hard
815.100,240.800,79.760,28.450,822.600,246.100,89.150,32.660,315.900,71.560,21.240,6.294,405.100,111.200,28.890,11.390,hard
819.700,241.500,80.090,28.510,822.800,245.800,89.490,32.640,317.300,71.400,21.210,6.283,404.800,111.500,28.810,11.400,hard
822.000,242.400,80.370,28.610,821.100,247.100,89.860,32.760,317.300,71.660,21.190,6.287,404.700,111.800,28.870,11.470,hard
823.300,244.300,80.750,28.940,823.800,248.400,90.190,32.920,317.800,71.810,21.280,6.319,406.600,111.900,29.030,11.480,hard
828.400,244.700,81.250,29.060,823.400,246.800,90.020,32.740,316.500,71.730,21.310,6.313,407.500,111.900,28.950,11.400,hard
819.000,242.500,79.830,28.430,821.300,244.600,89.190,32.540,316.400,71.670,21.140,6.282,404.400,111.200,28.770,11.340,hard
815.500,241.100,79.410,28.480,822.100,245.600,89.390,32.640,317.500,71.420,21.210,6.254,404.000,111.100,28.710,11.340,hard
816.800,241.300,80.190,28.570,821.100,246.100,89.540,32.690,315.200,71.460,21.230,6.298,403.800,111.200,28.790,11.360,hard
816.800,240.600,79.910,28.520,820.600,246.400,89.550,32.790,315.700,71.540,21.230,6.272,403.800,111.200,28.840,11.360,hard
822.100,241.300,80.380,28.610,826.700,246.300,89.780,32.840,316.300,71.450,21.230,6.289,405.400,111.500,28.940,11.390,hard
822.700,244.100,80.650,28.790,822.800,247.500,90.390,32.970,315.800,71.710,21.270,6.315,406.400,111.800,29.020,11.480,hard
827.800,244.500,81.280,29.120,826.400,247.700,90.420,33.010,316.900,71.790,21.370,6.325,407.300,111.800,29.090,11.480,hard
826.500,243.300,80.340,28.600,823.100,245.600,89.620,32.640,314.600,71.650,21.260,6.300,404.300,111.100,28.790,11.350,hard
817.600,240.200,79.880,28.480,821.700,245.800,89.610,32.610,315.300,71.490,21.240,6.286,403.200,111.300,28.740,11.350,hard
818.200,241.700,80.150,28.540,822.100,246.600,89.840,32.830,314.900,71.520,21.270,6.290,404.200,111.200,28.790,11.390,hard
819.100,242.800,80.300,28.610,822.300,246.000,89.990,32.820,316.700,71.670,21.300,6.304,403.900,111.400,28.840,11.400,hard
818.000,242.500,80.390,28.680,824.000,246.400,90.220,32.950,315.800,71.410,21.300,6.319,404.100,111.600,28.900,11.430,hard
820.200,243.800,80.650,28.860,822.300,247.500,90.320,33.010,317.400,71.550,21.310,6.339,406.100,111.600,29.040,11.470,hard
825.400,245.200,81.320,29.100,826.800,248.100,90.640,33.190,316.600,71.660,21.360,6.347,406.500,112.400,29.140,11.520,hard
831.100,244.600,81.310,28.950,824.000,246.800,89.790,32.800,317.500,71.800,21.340,6.340,404.900,111.500,28.890,11.370,hard
822.600,241.600,80.040,28.460,823.300,245.700,89.600,32.740,316.500,71.470,21.270,6.304,403.000,111.100,28.830,11.390,hard
821.600,241.500,80.210,28.690,821.800,246.400,89.880,32.870,315.700,71.600,21.270,6.315,404.300,111.400,28.920,11.430,hard
824.100,241.900,80.720,28.740,824.200,247.000,89.850,32.800,319.500,71.530,21.360,6.331,404.300,111.600,28.870,11.430,hard
823.500,243.700,80.290,28.720,823.600,247.500,89.940,32.890,317.200,71.600,21.320,6.313,404.600,111.300,28.990,11.440,hard
823.800,242.800,80.830,28.910,823.300,247.800,90.350,33.040,317.000,71.750,21.350,6.314,406.200,111.700,29.070,11.490,hard
826.500,246.200,81.420,29.080,828.100,247.500,90.600,33.150,317.600,71.790,21.420,6.366,406.300,112.000,29.130,11.500,hard
830.200,244.200,81.280,28.930,823.200,247.100,89.690,32.800,318.600,71.800,21.390,6.317,404.300,111.400,28.830,11.410,hard
819.200,242.100,80.020,28.490,821.600,246.800,90.000,32.850,317.400,71.420,21.290,6.311,403.100,111.300,28.860,11.380,hard
822.900,242.500,80.880,28.680,823.300,246.700,90.130,32.920,316.900,71.410,21.340,6.316,404.000,111.600,28.940,11.470,hard
821.900,243.900,80.770,28.950,824.800,247.100,90.070,32.920,316.100,71.730,21.340,6.346,404.500,111.700,28.920,11.450,hard
826.600,242.800,80.770,28.820,826.900,248.100,90.430,32.960,317.300,71.670,21.340,6.333,404.600,111.500,28.970,11.470,hard
825.500,245.200,81.370,29.140,827.900,248.200,90.750,33.220,318.200,71.690,21.360,6.351,405.300,111.800,29.030,11.520,hard
829.900,246.300,82.040,29.290,827.900,249.000,90.480,33.040,317.100,71.870,21.420,6.374,406.600,112.200,29.020,11.450,hard
823.100,242.400,80.650,28.690,821.000,246.400,89.950,32.840,317.600,71.580,21.340,6.315,403.200,111.400,28.760,11.420,hard
822.100,241.800,80.270,28.710,824.200,247.100,89.910,32.910,316.200,71.580,21.330,6.319,403.300,111.100,28.890,11.430,hard
827.600,243.800,80.850,28.910,824.100,247.100,90.200,33.020,315.800,71.670,21.340,6.333,403.800,111.400,28.910,11.450,hard
824.800,244.400,80.940,28.870,825.000,247.500,90.170,32.970,317.800,71.630,21.370,6.341,403.300,111.500,28.880,11.450,hard
825.000,244.300,81.080,28.910,826.200,247.600,90.460,33.160,316.300,71.650,21.340,6.343,404.200,111.500,29.020,11.480,hard
821.000,245.500,81.580,29.160,825.800,247.700,90.620,33.250,318.100,71.840,21.440,6.366,406.100,112.000,29.090,11.520,hard
830.100,246.600,81.650,29.070,823.400,247.100,89.940,32.840,319.000,71.850,21.460,6.345,404.300,111.300,28.830,11.420,hard
822.100,241.700,80.210,28.650,821.500,246.400,89.780,32.840,317.500,71.520,21.290,6.317,402.700,110.900,28.730,11.380,hard
818.800,242.700,80.360,28.720,821.200,246.300,89.900,32.930,316.700,71.420,21.300,6.316,402.600,111.000,28.800,11.430,hard
823.200,244.100,80.600,28.850,820.100,246.900,90.110,32.980,315.700,71.510,21.310,6.337,402.900,111.200,28.770,11.450,hard
818.400,242.900,80.890,28.880,821.200,246.400,90.180,32.990,316.900,71.430,21.290,6.336,402.900,111.200,28.850,11.450,hard
825.600,243.700,81.000,29.030,820.200,247.400,90.430,33.110,315.800,71.690,21.380,6.355,403.600,111.400,28.870,11.470,hard
823.500,244.500,81.490,29.350,825.100,248.800,91.030,33.260,315.800,71.690,21.360,6.354,405.600,111.600,28.950,11.510,hard
825.900,245.300,81.340,29.030,821.100,246.300,90.020,32.820,317.300,71.770,21.380,6.342,403.000,110.900,28.720,11.400,hard
820.200,242.200,79.970,28.600,815.300,246.000,89.700,32.840,314.900,71.350,21.300,6.303,401.300,110.700,28.660,11.390,hard
815.500,242.300,80.300,28.720,818.000,246.700,90.130,33.000,314.600,71.470,21.330,6.319,401.800,110.900,28.770,11.390,hard
821.100,243.000,80.650,28.800,820.100,246.600,90.130,32.950,317.000,71.460,21.350,6.310,401.700,110.900,28.880,11.400,hard
815.500,242.600,80.660,28.820,818.600,246.500,90.410,32.930,315.900,71.520,21.340,6.342,401.800,111.100,28.830,11.420,hard
819.700,242.600,80.960,29.000,823.700,247.200,90.600,33.120,316.500,71.550,21.350,6.346,402.900,111.300,28.850,11.480,hard
825.800,245.100,81.630,29.200,825.400,247.500,90.700,33.180,317.300,71.650,21.400,6.366,403.900,111.700,28.990,11.480,hard
828.200,245.300,81.700,29.290,822.800,247.000,89.900,32.810,318.000,71.780,21.410,6.376,402.900,111.100,28.760,11.370,hard
817.200,241.800,80.130,28.630,819.400,246.400,89.450,32.800,316.800,71.420,21.310,6.299,401.100,110.600,28.710,11.340,hard
818.200,242.600,80.400,28.730,819.400,246.500,90.030,32.900,315.600,71.400,21.330,6.316,401.500,110.600,28.700,11.400,hard
816.600,242.600,80.610,28.800,822.200,246.500,90.190,32.910,316.400,71.520,21.340,6.329,401.700,110.800,28.730,11.400,hard
821.700,242.600,80.600,28.770,822.400,246.800,90.200,32.940,317.000,71.430,21.360,6.326,402.100,110.800,28.710,11.400,hard
816.900,242.800,80.670,28.850,822.800,247.200,90.160,33.030,315.800,71.490,21.390,6.354,403.700,110.900,28.920,11.460,hard
822.000,244.000,81.460,29.090,823.500,248.500,90.710,33.240,317.400,71.590,21.410,6.368,404.400,111.500,29.020,11.490,hard
825.600,245.500,82.200,29.350,827.800,248.100,90.710,33.180,317.200,71.560,21.400,6.388,404.900,112.100,29.020,11.520,hard
820.800,243.500,80.820,28.840,819.900,245.700,89.810,32.800,315.800,71.650,21.360,6.333,402.500,110.900,28.760,11.410,hard
814.600,241.900,80.580,28.690,820.000,246.300,89.800,32.880,316.500,71.460,21.280,6.317,402.400,110.900,28.710,11.390,hard
817.600,241.500,80.560,28.800,822.600,246.600,90.060,32.870,315.500,71.460,21.340,6.325,402.700,110.800,28.790,11.430,hard
822.000,242.500,80.880,28.890,819.400,247.400,90.010,32.910,317.800,71.540,21.390,6.354,403.300,111.000,28.770,11.430,hard
820.800,242.500,80.750,28.840,821.300,246.600,90.070,32.960,316.100,71.500,21.430,6.331,402.000,111.300,28.750,11.460,hard
820.100,244.200,81.120,29.010,826.300,247.600,90.620,33.150,317.700,71.840,21.440,6.358,403.800,111.800,29.000,11.510,hard
825.600,244.500,81.930,29.340,826.100,248.100,90.740,33.190,317.500,71.560,21.470,6.365,404.400,112.000,29.120,11.540,hard
825.200,244.900,81.470,29.030,820.900,246.600,89.920,32.840,316.800,71.680,21.450,6.352,403.100,111.200,28.870,11.410,hard
816.000,242.200,80.310,28.720,817.400,246.500,90.250,32.950,318.000,71.540,21.350,6.324,402.800,111.100,28.830,11.420,hard
818.400,243.900,80.730,28.850,822.200,247.900,90.330,33.060,318.500,71.550,21.340,6.346,403.800,111.300,28.940,11.470,hard
820.400,243.700,81.030,29.010,822.100,247.000,90.430,33.030,318.300,71.650,21.410,6.355,403.500,111.400,28.830,11.480,hard
819.300,243.000,80.940,29.060,824.600,248.100,90.280,33.070,317.600,71.640,21.380,6.366,403.900,111.600,28.960,11.510,hard
821.200,243.700,81.720,29.260,819.500,247.400,90.830,33.280,318.200,71.620,21.420,6.366,405.000,112.000,29.060,11.540,hard
825.000,245.100,82.340,29.530,826.500,249.600,90.930,33.220,319.600,71.790,21.440,6.390,405.700,111.900,29.080,11.560,hard
824.900,244.500,81.250,29.000,820.400,246.600,90.110,33.010,316.700,71.670,21.370,6.361,402.900,111.000,28.890,11.420,hard
819.700,242.400,81.140,29.010,822.000,247.300,90.480,33.180,316.600,71.630,21.360,6.348,403.000,111.300,28.990,11.480,hard
820.600,243.600,81.190,29.150,821.500,247.500,90.510,33.120,317.100,71.600,21.410,6.364,403.900,111.400,29.050,11.500,hard
820.200,244.900,81.450,29.180,823.400,247.000,90.720,33.200,318.100,71.680,21.410,6.342,404.000,111.500,28.950,11.530,hard
821.100,244.300,81.750,29.240,823.700,248.000,91.110,33.320,318.800,71.570,21.390,6.368,405.000,111.900,29.110,11.550,hard
822.400,246.000,82.380,29.610,827.300,250.000,91.550,33.440,318.200,71.770,21.500,6.373,405.800,112.000,29.250,11.610,hard
828.100,247.400,82.360,29.560,825.500,248.400,90.740,33.200,318.100,71.710,21.430,6.366,405.300,111.800,29.060,11.490,hard
820.100,245.300,81.160,29.060,821.100,248.000,90.550,33.240,318.000,71.590,21.370,6.335,403.800,111.600,28.890,11.470,hard
820.700,243.300,81.450,29.190,821.300,247.600,90.690,33.330,316.100,71.570,21.350,6.344,403.300,111.500,29.010,11.550,hard
819.300,244.900,81.660,29.280,823.600,248.500,90.910,33.280,318.300,71.660,21.440,6.369,404.400,111.800,29.060,11.540,hard
824.300,244.800,81.980,29.310,819.100,248.900,90.940,33.450,318.100,71.630,21.380,6.365,405.200,112.100,29.080,11.580,hard
823.900,246.200,82.040,29.500,823.600,249.100,91.550,33.510,318.500,71.800,21.490,6.383,406.400,112.000,29.220,11.620,hard
827.400,247.700,82.830,29.750,827.500,250.400,91.760,33.630,319.400,71.870,21.450,6.405,407.200,112.500,29.340,11.650,hard
831.300,246.900,82.220,29.420,823.600,248.200,91.070,33.270,319.300,71.850,21.470,6.357,405.300,111.300,28.970,11.530,hard
819.100,243.500,81.420,29.180,823.000,248.100,90.880,33.230,316.500,71.700,21.310,6.359,404.200,111.300,28.950,11.510,hard
821.600,243.700,81.830,29.220,823.700,248.600,91.290,33.430,319.000,71.660,21.380,6.380,404.100,111.400,29.000,11.560,hard
819.300,245.200,82.030,29.330,822.300,249.100,90.790,33.460,318.200,71.700,21.450,6.386,404.600,111.800,28.990,11.610,hard
823.500,245.300,81.890,29.480,825.500,248.900,91.480,33.580,317.300,71.610,21.440,6.357,405.200,111.900,29.040,11.620,hard
824.600,246.700,82.700,29.600,827.800,249.800,91.680,33.740,317.800,71.820,21.480,6.386,405.300,112.300,29.160,11.660,hard
824.800,248.000,83.190,29.970,827.100,251.200,92.280,33.840,319.600,71.850,21.500,6.400,407.700,112.700,29.370,11.720,hard
833.300,249.000,83.280,29.810,825.400,249.200,91.130,33.520,318.200,71.910,21.520,6.401,405.300,111.900,29.010,11.570,hard
822.100,244.700,82.130,29.270,821.400,249.300,91.170,33.470,318.100,71.540,21.420,6.364,403.600,111.500,28.960,11.580,hard
819.500,245.200,82.100,29.430,822.700,250.000,91.690,33.690,318.500,71.650,21.380,6.371,404.200,111.600,29.060,11.640,hard
822.000,247.500,82.580,29.540,824.100,249.600,91.790,33.640,317.500,71.700,21.450,6.389,405.300,111.700,29.090,11.610,hard
826.100,245.800,82.400,29.650,823.000,249.200,91.640,33.660,317.600,71.680,21.440,6.390,404.500,111.700,29.190,11.640,hard
824.000,246.600,82.860,29.780,825.700,250.300,91.970,33.760,318.200,71.710,21.460,6.398,406.000,112.200,29.170,11.690,hard
829.100,246.800,83.220,29.990,828.500,250.500,92.240,33.930,317.500,71.920,21.500,6.423,408.200,112.400,29.380,11.740,hard
834.100,249.500,83.820,30.130,829.400,250.600,92.080,33.730,318.400,71.990,21.590,6.439,408.400,112.700,29.460,11.640,hard
830.800,247.400,82.280,29.510,822.200,248.200,91.240,33.450,318.400,71.810,21.470,6.377,405.100,111.700,29.060,11.610,hard
820.500,245.500,82.210,29.450,823.800,248.900,91.310,33.590,317.700,71.580,21.400,6.384,405.600,111.700,29.140,11.640,hard
825.400,246.500,82.560,29.610,825.700,249.700,91.460,33.690,317.700,71.770,21.470,6.405,406.300,112.400,29.240,11.660,hard
829.200,246.600,82.350,29.620,823.700,249.200,91.600,33.630,318.000,71.750,21.450,6.408,406.100,112.100,29.250,11.660,hard
825.600,247.100,82.220,29.640,825.600,250.200,91.730,33.690,316.700,71.930,21.490,6.406,407.000,112.400,29.380,11.710,hard
831.000,247.700,83.170,29.840,828.600,250.100,92.220,33.910,317.300,71.960,21.520,6.432,408.000,112.700,29.520,11.740,hard
835.800,249.100,83.710,30.100,829.000,251.300,92.180,33.880,317.900,72.100,21.620,6.437,408.900,113.100,29.560,11.780,hard
833.100,247.900,83.090,29.770,826.400,249.100,91.560,33.470,318.700,71.980,21.550,6.427,406.600,111.800,29.290,11.640,hard
823.600,244.800,82.110,29.510,825.300,248.200,91.330,33.570,318.600,71.660,21.430,6.398,405.800,112.300,29.330,11.670,hard
824.200,246.300,82.430,29.690,824.900,250.000,91.510,33.610,317.300,71.830,21.480,6.416,407.200,112.300,29.440,11.680,hard
823.700,246.200,82.770,29.810,825.400,249.800,91.620,33.610,318.000,71.940,21.500,6.419,407.600,112.400,29.320,11.680,hard
827.200,246.300,82.470,29.680,827.500,250.100,91.840,33.690,318.400,71.890,21.440,6.429,407.600,112.700,29.440,11.710,hard
830.300,248.800,82.960,29.910,826.000,250.300,91.960,33.780,318.000,71.910,21.550,6.429,408.300,112.800,29.480,11.750,hard
831.900,249.600,83.880,30.130,829.900,250.900,92.130,33.810,318.200,71.970,21.600,6.431,410.300,113.400,29.600,11.810,hard
830.600,247.700,82.780,29.770,826.700,249.700,91.270,33.540,318.900,71.890,21.500,6.431,406.900,112.100,29.370,11.660,hard
824.700,245.800,82.450,29.570,826.000,249.700,91.600,33.650,317.200,71.710,21.490,6.402,406.400,112.600,29.310,11.730,hard
824.600,247.500,83.220,29.810,821.600,250.100,92.010,33.800,317.500,71.870,21.530,6.421,407.700,112.700,29.460,11.770,hard
833.600,247.700,83.160,30.020,826.700,249.700,91.760,33.750,319.400,71.950,21.500,6.416,408.700,112.600,29.410,11.770,hard
831.200,248.600,83.320,29.940,829.400,251.100,91.940,33.830,319.500,71.850,21.510,6.438,409.200,112.800,29.480,11.760,hard
832.400,249.400,83.660,30.130,827.300,251.400,92.240,33.960,317.800,72.160,21.590,6.456,410.600,113.500,29.550,11.810,hard
836.300,250.700,84.340,30.370,826.900,251.000,92.070,33.690,320.300,72.100,21.600,6.470,409.600,113.100,29.520,11.760,hard
830.300,246.700,82.570,29.600,824.800,249.700,91.450,33.560,319.500,72.010,21.490,6.433,407.300,112.400,29.310,11.700,hard
825.600,246.900,82.590,29.710,825.400,250.200,91.700,33.740,318.700,71.870,21.460,6.414,408.100,112.700,29.450,11.730,hard
831.100,248.100,83.440,29.990,828.600,250.600,91.950,33.810,319.100,71.980,21.520,6.423,408.400,112.800,29.530,11.770,hard
830.000,248.900,83.320,29.980,826.700,250.500,91.890,33.760,319.200,71.940,21.560,6.431,409.100,112.700,29.470,11.760,hard
831.500,248.900,83.390,30.060,827.400,250.500,92.260,33.860,317.300,72.080,21.540,6.418,408.800,112.800,29.550,11.760,hard
836.200,250.400,83.920,30.330,830.500,251.500,92.510,34.050,318.500,72.010,21.590,6.450,410.900,113.300,29.690,11.840,hard
837.100,250.300,83.820,30.120,827.000,250.200,91.860,33.680,319.400,72.030,21.530,6.426,408.400,112.600,29.350,11.720,hard
828.500,246.800,82.710,29.810,827.700,249.700,91.740,33.650,318.200,71.780,21.430,6.386,407.100,112.500,29.370,11.690,hard
824.000,246.300,82.640,29.790,826.200,249.700,91.760,33.700,317.400,71.820,21.460,6.398,407.000,112.500,29.440,11.730,hard
828.300,247.700,83.400,29.850,826.100,249.100,91.690,33.630,318.600,71.820,21.480,6.416,407.600,112.600,29.360,11.700,hard
826.700,246.000,83.020,29.840,828.600,250.300,91.670,33.780,318.100,71.820,21.500,6.423,407.200,112.400,29.400,11.740,hard
831.000,248.100,83.520,30.050,824.800,249.800,92.240,33.810,318.600,71.890,21.490,6.436,408.700,112.700,29.490,11.770,hard
834.400,249.300,84.050,30.190,830.400,251.900,92.240,33.820,319.200,71.940,21.530,6.437,408.700,113.200,29.540,11.790,hard
832.200,247.400,82.800,29.820,825.100,249.300,91.440,33.550,318.200,71.850,21.480,6.403,406.500,112.100,29.310,11.660,hard
