A-DC1,A-DC2,A-DC3,A-DC4,A-DC5,A-DC6,A-DC7,A-DC8,B-DC1,B-DC2,B-DC3,B-DC4,B-DC5,B-DC6,B-DC7,B-DC8,condition
1190.000,281.300,83.140,24.280,1380.000,299.800,92.240,27.870,268.900,81.410,25.100,8.326,378.300,119.400,38.570,13.080,baseline
1195.000,283.000,83.860,24.410,1383.000,300.800,92.780,27.980,268.800,82.370,25.330,8.407,382.400,120.400,38.920,13.250,baseline
1201.000,286.500,84.590,24.580,1386.000,301.900,93.360,28.080,270.300,82.220,25.470,8.443,385.100,121.600,39.280,13.380,baseline
1207.000,287.200,84.560,24.710,1386.000,302.200,92.680,27.830,271.400,83.030,25.440,8.419,377.100,117.700,37.610,12.730,baseline
1199.000,285.000,83.690,24.170,1384.000,301.900,92.820,27.850,262.400,80.610,24.780,8.221,365.800,115.600,37.220,12.610,baseline
1199.000,284.200,83.860,24.090,1386.000,299.800,92.760,27.800,263.900,80.220,24.760,8.254,365.500,115.100,37.150,12.650,baseline
1197.000,285.100,84.100,24.190,1381.000,300.900,92.900,27.830,263.100,80.540,24.890,8.301,368.600,116.400,37.560,12.770,baseline
1197.000,284.400,83.740,24.070,1377.000,300.200,92.890,27.820,265.000,81.220,24.900,8.263,369.100,116.200,37.560,12.750,baseline
1196.000,284.400,83.780,24.090,1379.000,300.100,92.810,27.770,265.500,80.500,24.850,8.330,370.500,117.600,38.040,12.970,baseline
1196.000,286.000,84.120,24.210,1376.000,301.000,92.890,27.800,268.400,81.700,25.120,8.379,375.100,118.800,38.480,13.110,baseline
1196.000,285.500,84.780,24.260,1370.000,300.600,92.930,27.860,268.100,82.100,25.410,8.444,380.000,120.300,39.000,13.300,baseline
1196.000,287.700,85.020,24.370,1369.000,300.000,92.870,27.820,267.900,82.420,25.490,8.498,384.400,121.300,39.280,13.390,baseline
1196.000,286.400,84.420,24.130,1364.000,298.000,92.490,27.630,267.900,82.090,25.250,8.349,368.400,115.600,37.350,12.740,baseline
1183.000,283.000,84.170,23.910,1363.000,297.000,92.240,27.640,263.700,80.650,24.800,8.272,364.400,114.900,37.080,12.620,baseline
1181.000,280.400,83.250,23.850,1361.000,297.500,92.350,27.630,262.600,80.170,24.770,8.250,362.700,114.800,37.160,12.690,baseline
1181.000,282.100,83.770,23.980,1358.000,297.500,92.460,27.750,264.100,80.830,24.870,8.309,365.300,115.600,37.470,12.820,baseline
1182.000,282.700,83.450,24.020,1362.000,297.500,92.720,27.800,266.300,80.750,24.840,8.296,365.800,115.800,37.470,12.810,baseline
1183.000,282.800,83.880,24.090,1355.000,297.500,92.920,27.840,263.400,80.880,25.000,8.366,369.100,116.700,37.980,12.960,baseline
1186.000,284.400,84.300,24.250,1359.000,298.600,93.050,27.970,263.700,81.020,25.110,8.427,374.000,118.200,38.420,13.160,baseline
1190.000,285.300,84.810,24.390,1359.000,298.600,93.270,28.060,265.200,81.480,25.230,8.468,377.100,119.500,38.890,13.270,baseline
1193.000,285.800,85.300,24.520,1365.000,300.100,93.590,28.140,267.100,82.150,25.440,8.509,380.500,120.000,39.070,13.470,baseline
1198.000,288.500,85.990,24.550,1366.000,300.200,93.700,28.040,268.900,82.460,25.560,8.522,383.200,121.100,39.280,13.320,baseline
1196.000,286.200,84.940,24.200,1368.000,299.600,93.210,27.910,266.400,81.060,24.940,8.363,364.900,115.400,37.380,12.790,baseline
1192.000,285.000,84.790,24.150,1362.000,299.400,93.110,27.790,260.700,80.510,24.900,8.277,362.200,114.600,37.280,12.690,baseline
1190.000,283.500,84.290,24.020,1360.000,299.800,93.020,27.840,261.200,80.350,24.810,8.279,360.700,114.600,37.390,12.770,baseline
1190.000,285.100,84.390,24.070,1362.000,298.600,93.110,27.930,263.200,80.290,24.870,8.280,364.000,115.500,37.390,12.760,baseline
1193.000,284.700,84.700,24.120,1363.000,299.100,93.440,27.990,262.100,80.600,24.850,8.324,365.000,115.700,37.640,12.860,baseline
1195.000,286.700,85.000,24.220,1367.000,299.900,93.920,28.070,264.100,80.880,24.920,8.353,367.400,116.800,38.060,12.940,baseline
1199.000,288.800,85.210,24.420,1368.000,300.600,93.860,28.180,266.700,80.820,25.150,8.381,371.100,118.100,38.370,13.100,baseline
1203.000,289.600,85.920,24.490,1372.000,301.600,94.070,28.210,264.200,81.610,25.220,8.448,374.600,119.000,38.680,13.260,baseline
1207.000,290.200,86.080,24.610,1373.000,302.000,93.950,28.180,266.800,81.470,25.180,8.437,375.800,119.300,38.690,13.190,baseline
1208.000,291.300,86.400,24.660,1374.000,302.100,93.970,28.060,266.800,80.840,24.960,8.275,367.400,115.400,37.220,12.520,baseline
1204.000,289.300,85.470,24.210,1369.000,299.600,93.620,27.880,256.400,77.420,23.820,7.867,343.200,108.300,35.010,11.890,baseline
1199.000,287.600,85.090,24.050,1366.000,300.400,93.380,27.850,252.200,76.170,23.550,7.851,341.000,108.000,35.190,11.990,baseline
1196.000,287.300,84.840,24.010,1362.000,300.600,93.620,27.950,248.900,76.910,23.690,7.918,343.700,108.900,35.520,12.170,baseline
1197.000,286.700,85.100,24.030,1367.000,300.100,93.210,27.840,254.200,77.550,23.980,7.986,347.700,110.500,35.970,12.320,baseline
1198.000,286.100,85.030,24.070,1367.000,300.900,93.460,28.000,255.700,78.270,24.190,8.096,352.800,112.400,36.640,12.550,baseline
1202.000,288.800,85.210,24.390,1373.000,302.600,94.020,28.200,258.500,79.160,24.530,8.177,360.500,114.400,37.340,12.750,baseline
1210.000,289.900,85.760,24.580,1379.000,303.100,94.450,28.330,259.400,79.730,24.760,8.293,365.500,116.200,37.870,13.030,baseline
1216.000,292.000,86.120,24.750,1379.000,303.100,94.710,28.350,264.100,80.770,24.870,8.328,371.500,118.000,38.540,13.200,baseline
1218.000,293.100,86.280,24.810,1381.000,304.000,94.500,28.290,266.200,81.680,25.160,8.417,375.500,119.100,38.680,13.200,baseline
1217.000,290.900,85.910,24.330,1380.000,302.300,93.690,28.050,263.300,80.670,24.700,8.226,358.800,113.400,36.930,12.630,baseline
1207.000,290.000,85.160,24.130,1379.000,302.500,93.740,27.920,258.100,79.300,24.480,8.177,356.600,113.000,36.740,12.590,baseline
1206.000,289.200,85.110,24.020,1371.000,301.400,93.280,27.940,259.800,79.260,24.350,8.174,356.700,113.500,36.990,12.650,baseline
1204.000,288.400,85.250,24.080,1374.000,301.000,93.290,27.880,261.000,79.320,24.540,8.215,359.600,114.100,37.040,12.670,baseline
1202.000,288.100,84.900,24.090,1372.000,300.900,93.280,27.880,260.200,79.640,24.460,8.215,360.100,114.200,37.330,12.740,baseline
1202.000,287.900,84.980,24.120,1372.000,300.800,93.380,27.940,262.200,79.950,24.690,8.245,363.700,115.600,37.730,12.890,baseline
1202.000,286.800,85.230,24.210,1368.000,301.400,93.670,27.960,261.400,79.870,24.740,8.309,368.400,116.700,38.140,13.090,baseline
1203.000,288.200,85.310,24.300,1368.000,301.200,93.740,27.980,263.500,80.990,24.920,8.340,372.400,118.000,38.510,13.210,baseline
1205.000,289.600,85.410,24.260,1371.000,299.800,93.080,27.780,265.400,80.830,24.980,8.306,364.700,114.700,37.180,12.730,baseline
1195.000,285.100,84.140,23.960,1367.000,299.600,93.050,27.720,260.000,78.990,24.540,8.174,358.000,113.400,36.940,12.620,baseline
1193.000,286.100,84.210,23.830,1361.000,298.900,93.000,27.670,259.800,79.400,24.500,8.168,358.000,113.400,36.940,12.630,baseline
1191.000,284.900,83.860,23.980,1366.000,299.000,92.860,27.700,261.200,79.540,24.610,8.206,362.000,114.700,37.220,12.750,baseline
1190.000,284.900,84.040,23.810,1365.000,298.300,93.040,27.670,261.500,79.640,24.610,8.227,362.000,114.500,37.250,12.820,baseline
1190.000,285.800,84.480,23.940,1359.000,298.900,92.970,27.780,261.100,79.720,24.790,8.253,365.500,115.800,37.670,12.920,baseline
1192.000,285.200,84.440,24.190,1366.000,298.700,93.050,27.950,264.200,80.750,24.880,8.324,371.200,117.700,38.220,13.120,baseline
1196.000,287.300,85.250,24.290,1365.000,300.000,93.430,27.920,266.500,81.110,25.000,8.367,374.500,119.000,38.700,13.240,baseline
1199.000,287.400,85.120,24.310,1365.000,298.600,93.140,27.810,264.500,81.190,25.020,8.320,368.600,115.700,37.390,12.770,baseline
1190.000,285.100,84.870,23.980,1355.000,298.700,92.830,27.790,260.800,79.650,24.600,8.157,359.800,113.800,37.100,12.700,baseline
1188.000,285.000,84.470,24.040,1362.000,298.700,93.130,27.840,260.500,79.000,24.480,8.183,359.600,113.800,37.050,12.730,baseline
1189.000,283.600,84.410,24.040,1360.000,298.400,93.230,27.850,261.100,79.620,24.600,8.200,362.700,114.800,37.210,12.750,baseline
1189.000,284.500,84.450,24.100,1358.000,298.500,93.060,27.810,262.100,79.990,24.570,8.223,362.900,114.500,37.410,12.820,baseline
1190.000,285.900,84.760,24.300,1364.000,298.800,93.300,27.990,264.800,80.040,24.720,8.256,366.300,115.800,37.670,12.970,baseline
1194.000,286.300,85.020,24.450,1362.000,299.400,93.850,28.090,263.500,80.640,24.790,8.289,369.700,117.300,38.180,13.070,baseline
1197.000,286.500,85.910,24.570,1365.000,300.100,93.660,28.110,263.900,81.000,24.950,8.354,374.300,118.200,38.480,13.090,baseline
1200.000,287.400,85.660,24.420,1367.000,298.500,93.230,28.040,263.200,80.120,24.620,8.200,360.700,113.500,36.900,12.620,baseline
1191.000,284.400,84.890,24.280,1365.000,298.300,93.290,28.030,258.700,79.120,24.430,8.159,358.400,112.700,36.770,12.540,baseline
1191.000,284.900,84.860,24.240,1365.000,299.600,93.680,28.150,262.600,79.090,24.420,8.157,359.900,113.500,36.920,12.670,baseline
1194.000,285.800,85.320,24.490,1370.000,299.900,93.550,28.240,262.900,79.830,24.560,8.187,360.500,113.400,36.950,12.690,baseline
1195.000,286.200,85.390,24.560,1371.000,301.100,94.000,28.370,261.900,79.790,24.560,8.192,361.800,114.500,37.180,12.690,baseline
1200.000,288.000,85.570,24.670,1371.000,301.100,94.270,28.470,263.600,79.960,24.660,8.246,365.800,115.500,37.450,12.850,baseline
1203.000,288.900,86.690,24.930,1377.000,301.300,94.720,28.560,265.300,80.260,24.820,8.296,369.200,117.000,37.950,13.050,baseline
1210.000,289.800,86.710,25.130,1378.000,302.500,94.720,28.440,266.800,80.670,24.930,8.313,370.600,116.000,37.450,12.700,baseline
1206.000,288.100,86.170,24.680,1376.000,301.400,94.450,28.420,261.900,79.680,24.350,8.152,356.700,112.200,36.330,12.440,baseline
1203.000,287.900,86.030,24.600,1377.000,301.900,94.520,28.470,259.500,79.140,24.330,8.133,355.600,111.800,36.160,12.360,baseline
1204.000,288.100,85.710,24.690,1381.000,302.300,94.720,28.640,258.700,78.590,24.300,8.129,357.500,112.400,36.410,12.480,baseline
1210.000,288.800,86.390,24.900,1382.000,303.600,95.080,28.690,263.200,79.390,24.400,8.168,357.400,112.700,36.540,12.430,baseline
1214.000,289.700,86.650,24.950,1391.000,304.500,95.140,28.840,260.300,79.600,24.450,8.153,360.000,113.200,36.660,12.590,baseline
1220.000,291.100,87.160,25.220,1393.000,305.600,95.890,29.030,262.400,79.550,24.610,8.247,363.600,114.600,37.020,12.750,baseline
1226.000,292.900,88.050,25.450,1398.000,307.200,96.150,29.210,263.300,80.270,24.740,8.264,367.800,115.600,37.490,12.850,baseline
1233.000,294.800,88.960,25.770,1407.000,307.800,96.500,29.220,264.800,80.470,24.780,8.290,369.300,115.500,37.230,12.570,baseline
1232.000,294.500,87.750,25.260,1404.000,307.300,96.320,29.150,261.800,79.740,24.390,8.136,355.000,111.500,36.070,12.310,baseline
1232.000,294.400,87.230,25.320,1406.000,308.300,96.380,29.160,260.400,78.960,24.220,8.075,353.800,110.900,35.790,12.170,baseline
1232.000,293.300,87.800,25.420,1406.000,309.300,96.650,29.290,258.900,78.710,24.280,8.099,355.100,111.400,36.040,12.330,baseline
1238.000,295.900,88.560,25.470,1414.000,309.700,96.920,29.320,262.500,79.500,24.350,8.115,355.700,111.800,36.060,12.330,baseline
1240.000,296.100,88.610,25.700,1415.000,311.000,97.060,29.490,259.800,79.350,24.330,8.161,359.000,112.400,36.380,12.420,baseline
1245.000,297.300,88.680,25.790,1418.000,310.800,97.210,29.550,258.500,79.930,24.470,8.201,362.000,113.700,36.900,12.580,baseline
1248.000,298.300,89.520,25.860,1421.000,312.200,97.570,29.590,264.700,80.210,24.720,8.249,367.400,115.000,37.310,12.760,baseline
1253.000,299.800,89.960,26.040,1423.000,313.000,97.950,29.640,264.900,80.590,24.850,8.291,371.100,116.200,37.650,12.850,baseline
1256.000,300.700,89.650,25.880,1419.000,312.200,97.320,29.430,263.400,80.540,24.570,8.168,357.400,111.800,36.110,12.310,baseline
1247.000,297.800,89.010,25.670,1424.000,311.600,97.360,29.450,258.000,78.980,24.260,8.110,354.100,111.200,35.900,12.210,baseline
1246.000,298.400,88.540,25.640,1421.000,311.900,97.320,29.530,259.500,79.010,24.320,8.101,353.700,110.900,35.930,12.250,baseline
1250.000,299.300,89.070,25.760,1424.000,312.200,97.420,29.530,261.100,79.500,24.440,8.129,356.000,111.700,36.120,12.320,baseline
1251.000,298.600,89.060,25.800,1422.000,313.000,97.500,29.610,260.300,79.260,24.310,8.146,357.200,112.400,36.230,12.350,baseline
1254.000,299.300,89.540,26.000,1424.000,313.400,97.930,29.760,261.700,79.740,24.510,8.198,361.400,113.300,36.640,12.510,baseline
1258.000,302.000,90.170,26.170,1427.000,314.000,98.570,29.830,260.000,79.900,24.690,8.218,364.700,114.500,37.040,12.630,baseline
1263.000,301.900,90.450,26.320,1431.000,314.200,98.490,29.920,261.700,80.200,24.750,8.303,369.300,115.500,37.370,12.790,baseline
1266.000,303.300,90.530,26.280,1429.000,314.200,98.080,29.770,263.800,80.590,24.790,8.250,360.700,112.800,36.160,12.310,baseline
1257.000,300.200,89.620,25.840,1426.000,312.700,98.030,29.680,259.200,79.440,24.280,8.088,354.100,111.300,35.920,12.190,baseline
1257.000,300.000,89.600,25.820,1431.000,312.900,98.130,29.720,257.200,79.080,24.200,8.066,353.500,111.000,35.830,12.170,baseline
1257.000,299.600,89.980,25.900,1429.000,313.800,98.060,29.830,259.700,79.170,24.330,8.091,356.400,111.400,35.980,12.250,baseline
1260.000,301.500,89.810,26.000,1437.000,314.200,98.370,29.920,259.000,79.540,24.300,8.122,355.400,111.500,36.060,12.310,baseline
1265.000,301.800,90.220,26.250,1434.000,314.300,98.920,30.030,262.300,79.400,24.410,8.176,358.800,112.900,36.400,12.450,baseline
1269.000,303.300,91.040,26.370,1438.000,315.900,99.150,30.090,259.700,79.750,24.560,8.204,363.600,114.200,36.840,12.590,baseline
1273.000,305.400,91.300,26.550,1441.000,317.500,99.190,30.290,259.800,79.790,24.680,8.228,367.200,115.100,37.340,12.730,baseline
1277.000,305.500,91.620,26.770,1446.000,317.500,99.240,30.140,264.300,80.770,24.790,8.269,366.200,114.600,36.660,12.380,baseline
1272.000,303.900,90.540,26.130,1441.000,316.000,98.660,30.030,259.300,79.250,24.370,8.050,353.800,111.100,35.780,12.190,baseline
1269.000,302.200,90.260,26.130,1439.000,315.800,98.760,30.000,260.700,78.920,24.190,8.050,351.500,110.400,35.480,12.120,baseline
1266.000,301.300,90.060,26.020,1437.000,315.400,98.840,29.990,259.600,78.630,24.180,8.044,353.600,111.200,35.780,12.170,baseline
1268.000,302.000,90.140,26.060,1438.000,316.500,98.820,30.000,260.200,78.650,24.220,8.109,355.100,110.800,35.850,12.240,baseline
1269.000,302.600,90.090,26.100,1443.000,316.200,98.810,30.060,261.000,78.730,24.280,8.091,356.000,112.100,35.990,12.300,baseline
1272.000,303.500,90.520,26.350,1448.000,316.900,99.260,30.170,263.100,79.420,24.460,8.149,359.400,113.100,36.500,12.460,baseline
1274.000,304.100,91.160,26.470,1444.000,317.600,99.540,30.320,261.900,79.880,24.560,8.186,362.300,114.100,36.930,12.610,baseline
1278.000,304.400,91.590,26.760,1446.000,317.800,99.500,30.380,263.900,80.290,24.650,8.240,366.800,115.400,37.250,12.730,baseline
1280.000,304.900,91.750,26.510,1451.000,317.200,99.110,30.180,265.600,80.920,24.660,8.162,357.900,111.700,36.000,12.250,baseline
1270.000,300.600,90.330,26.200,1446.000,316.400,99.010,30.120,259.400,78.700,24.250,8.051,352.400,110.500,35.610,12.100,baseline
1268.000,300.900,90.010,26.110,1440.000,315.800,98.570,30.170,260.200,78.790,24.150,8.058,350.800,110.100,35.420,12.160,baseline
1266.000,300.900,90.380,26.210,1444.000,316.400,99.020,30.160,257.600,78.600,24.280,8.095,353.800,110.900,35.680,12.190,baseline
1267.000,301.000,90.160,26.170,1444.000,316.100,99.120,30.270,259.100,79.190,24.220,8.068,353.600,111.300,35.910,12.260,baseline
1268.000,302.800,90.570,26.330,1450.000,316.600,99.480,30.400,260.400,79.180,24.320,8.156,357.700,112.400,36.320,12.400,baseline
1271.000,302.700,91.200,26.600,1447.000,317.500,99.930,30.530,263.300,79.560,24.470,8.198,361.000,113.500,36.720,12.580,baseline
1274.000,305.400,91.150,26.740,1449.000,318.100,99.880,30.590,263.400,80.280,24.620,8.225,365.200,114.400,37.090,12.680,baseline
1279.000,305.800,91.940,26.900,1453.000,319.000,100.200,30.750,263.100,80.490,24.790,8.286,367.500,115.800,37.390,12.790,baseline
1280.000,305.000,91.700,26.710,1450.000,317.400,99.770,30.460,267.500,79.970,24.540,8.157,355.200,111.700,35.880,12.280,baseline
1273.000,302.700,90.640,26.470,1449.000,317.800,99.890,30.510,259.700,79.150,24.220,8.087,352.200,110.900,35.830,12.200,baseline
1271.000,301.000,90.570,26.410,1451.000,317.100,99.860,30.490,259.800,78.870,24.210,8.077,352.900,111.300,35.980,12.300,baseline
1274.000,302.400,90.580,26.590,1449.000,318.100,100.000,30.580,260.400,79.100,24.310,8.129,356.000,111.800,36.200,12.340,baseline
1274.000,302.400,90.860,26.670,1452.000,319.200,99.970,30.610,260.400,79.520,24.420,8.155,358.200,112.300,36.300,12.400,baseline
1277.000,303.000,91.140,26.930,1454.000,319.300,100.300,30.800,260.500,79.550,24.400,8.166,361.200,113.400,36.760,12.600,baseline
1280.000,305.000,91.820,27.080,1453.000,319.500,100.600,30.930,265.500,79.980,24.580,8.226,365.800,114.700,37.170,12.790,baseline
1285.000,307.400,92.580,27.290,1461.000,319.300,101.100,31.110,265.500,80.520,24.740,8.274,369.900,116.200,37.660,12.910,baseline
1289.000,308.700,93.040,27.600,1460.000,320.900,101.000,30.960,267.600,81.250,24.880,8.303,371.700,115.900,37.300,12.630,baseline
1284.000,305.400,91.660,27.040,1457.000,318.800,100.600,30.940,260.800,79.250,24.390,8.123,357.100,112.300,36.230,12.420,baseline
1281.000,304.900,91.930,27.050,1463.000,319.500,100.500,30.890,260.900,79.460,24.300,8.128,356.500,112.000,36.340,12.420,baseline
1280.000,305.700,91.930,27.100,1464.000,319.900,100.700,31.000,259.700,79.490,24.390,8.111,359.100,112.900,36.670,12.490,baseline
1282.000,305.400,92.640,27.230,1461.000,321.200,101.100,31.030,260.300,79.970,24.430,8.145,359.600,113.300,36.500,12.540,baseline
1284.000,307.400,92.810,27.260,1463.000,320.500,101.300,31.140,261.000,79.870,24.490,8.168,362.900,114.200,36.940,12.700,baseline
1287.000,306.700,93.140,27.590,1463.000,321.900,101.400,31.330,262.500,80.000,24.590,8.224,366.400,115.200,37.590,12.820,baseline
1291.000,307.100,93.320,27.710,1470.000,322.400,101.600,31.400,263.800,80.930,24.760,8.244,370.000,116.900,37.880,13.030,baseline
1295.000,311.200,94.160,27.920,1466.000,323.200,102.000,31.310,268.400,81.020,24.850,8.281,373.300,117.000,37.630,12.770,baseline
1292.000,308.000,93.190,27.390,1465.000,321.500,101.400,31.160,263.300,79.650,24.480,8.133,358.300,112.800,36.430,12.490,baseline
1288.000,307.900,92.950,27.530,1467.000,322.400,101.400,31.280,260.600,79.270,24.430,8.114,357.600,112.500,36.370,12.450,baseline
1288.000,307.600,92.800,27.610,1471.000,322.200,101.900,31.430,260.200,79.030,24.440,8.113,359.700,113.300,36.690,12.570,baseline
1290.000,307.300,93.190,27.740,1473.000,322.800,101.700,31.410,261.700,79.890,24.380,8.144,360.800,113.300,36.700,12.580,baseline
1291.000,307.600,93.410,27.800,1470.000,323.000,102.100,31.490,260.800,79.850,24.490,8.151,363.800,114.600,37.020,12.710,baseline
1295.000,309.000,93.970,28.050,1477.000,323.600,102.300,31.610,264.400,80.290,24.640,8.199,366.800,115.400,37.380,12.900,baseline
1299.000,310.800,94.370,28.120,1476.000,324.000,102.500,31.650,264.900,80.410,24.750,8.259,371.900,117.000,37.910,13.090,baseline
1302.000,311.500,94.720,28.130,1478.000,324.300,102.100,31.530,266.600,80.710,24.750,8.210,364.900,114.100,36.760,12.540,baseline
1293.000,309.900,93.840,27.720,1471.000,323.500,102.100,31.450,261.000,79.230,24.280,8.077,357.200,112.500,36.500,12.420,baseline
1292.000,308.100,93.690,27.740,1471.000,323.400,101.900,31.460,260.700,79.180,24.240,8.054,356.900,112.100,36.400,12.490,baseline
1293.000,308.700,93.870,27.810,1474.000,324.600,102.200,31.450,262.100,79.400,24.370,8.093,359.400,113.400,36.630,12.540,baseline
1293.000,310.200,93.910,27.900,1474.000,324.500,102.000,31.580,262.900,79.530,24.340,8.132,361.300,113.500,36.720,12.580,baseline
1297.000,311.100,94.440,28.140,1476.000,324.100,102.600,31.720,260.900,79.700,24.430,8.117,365.000,114.500,37.150,12.750,baseline
1301.000,311.300,94.790,28.150,1477.000,325.200,103.000,31.780,264.500,80.210,24.550,8.179,367.500,115.600,37.670,12.890,baseline
1305.000,313.300,95.290,28.440,1483.000,325.500,103.000,31.880,263.700,80.690,24.740,8.229,371.900,117.000,37.890,12.970,baseline
1307.000,312.400,95.060,28.040,1482.000,324.500,102.500,31.640,264.000,79.860,24.390,8.102,358.200,112.400,36.330,12.440,baseline
1298.000,309.400,94.450,27.870,1479.000,324.500,102.300,31.560,257.500,79.280,24.270,8.053,355.500,111.600,36.080,12.380,baseline
1296.000,310.100,93.760,27.690,1479.000,324.600,102.200,31.570,259.000,78.850,24.210,8.007,356.400,111.800,36.240,12.450,baseline
1298.000,311.100,94.600,27.890,1477.000,324.800,102.700,31.610,262.200,79.170,24.290,8.063,357.300,112.300,36.250,12.460,baseline
1299.000,311.400,94.460,27.940,1484.000,324.600,102.700,31.690,260.500,79.960,24.290,8.092,358.300,112.500,36.430,12.570,baseline
1300.000,311.100,94.440,28.090,1482.000,325.400,102.700,31.750,262.100,79.930,24.350,8.119,363.100,114.200,36.960,12.710,baseline
1304.000,313.200,94.840,28.280,1484.000,326.200,102.900,31.680,266.100,80.300,24.580,8.185,366.200,115.200,37.440,12.850,baseline
1308.000,312.700,95.370,28.360,1486.000,326.500,103.200,31.800,264.700,80.360,24.750,8.224,370.800,116.400,37.620,12.930,baseline
1309.000,313.300,94.850,28.020,1483.000,324.700,102.500,31.520,266.700,80.370,24.450,8.085,358.400,111.900,36.300,12.420,baseline
1300.000,311.800,93.870,27.850,1478.000,325.400,102.600,31.560,258.600,78.750,24.160,8.039,355.500,111.300,36.000,12.330,baseline
1301.000,309.700,94.430,27.920,1484.000,324.800,102.900,31.670,259.500,79.150,24.200,8.039,355.900,111.700,36.100,12.440,baseline
1304.000,312.600,94.850,27.990,1483.000,325.900,102.500,31.740,260.900,79.110,24.340,8.109,357.500,112.200,36.400,12.460,baseline
1305.000,311.200,94.660,28.030,1486.000,326.700,103.000,31.750,261.500,79.710,24.380,8.114,359.600,113.000,36.580,12.550,baseline
1309.000,313.200,95.330,28.190,1491.000,326.600,103.000,31.820,265.200,80.040,24.520,8.166,364.700,114.500,37.040,12.690,baseline
1312.000,314.800,95.530,28.340,1491.000,327.200,103.300,31.920,266.400,80.220,24.650,8.243,368.000,115.800,37.480,12.870,baseline
1316.000,316.500,96.030,28.500,1491.000,327.200,103.300,32.060,268.700,81.020,24.830,8.255,372.200,116.900,37.920,12.970,baseline
1318.000,314.000,95.250,28.070,1489.000,326.500,103.000,31.660,264.900,80.780,24.580,8.141,359.200,112.400,36.200,12.400,baseline
1311.000,312.700,95.260,28.120,1485.000,326.200,102.800,31.700,258.100,79.540,24.360,8.093,356.300,112.100,36.120,12.380,baseline
1310.000,313.300,95.240,28.000,1484.000,326.600,102.900,31.750,260.700,79.620,24.400,8.076,358.200,112.500,36.340,12.470,baseline
1314.000,312.800,95.210,28.190,1490.000,326.900,103.200,31.690,262.100,79.890,24.540,8.164,360.600,113.300,36.530,12.520,baseline
1316.000,314.500,95.160,28.200,1491.000,327.300,103.000,31.740,262.100,80.210,24.450,8.141,362.600,113.800,36.700,12.620,baseline
1319.000,315.000,95.830,28.430,1492.000,328.000,103.400,31.940,264.700,80.440,24.580,8.180,366.300,114.900,37.200,12.720,baseline
1324.000,316.500,96.200,28.660,1497.000,328.500,103.500,32.080,267.400,80.760,24.740,8.248,370.700,116.200,37.560,12.920,baseline
1328.000,318.100,96.780,28.810,1499.000,329.000,103.800,31.910,267.400,81.000,24.930,8.296,371.900,116.500,37.380,12.680,baseline
1323.000,316.100,95.700,28.210,1494.000,327.400,103.200,31.810,263.300,79.990,24.380,8.126,358.700,112.400,36.400,12.450,baseline
1319.000,317.300,95.670,28.230,1492.000,328.000,103.100,31.840,262.200,80.130,24.320,8.109,358.200,112.300,36.150,12.380,baseline
1319.000,315.900,95.540,28.320,1491.000,328.800,103.400,31.870,262.800,79.850,24.490,8.145,361.000,113.100,36.610,12.550,baseline
1322.000,315.900,95.760,28.400,1491.000,328.200,103.500,31.840,266.100,80.230,24.510,8.162,362.500,113.600,36.750,12.540,baseline
1324.000,316.400,95.920,28.440,1494.000,328.200,103.600,31.900,265.900,80.010,24.590,8.162,363.900,114.600,37.010,12.670,baseline
1327.000,317.400,95.930,28.540,1497.000,329.100,103.700,31.940,266.500,80.850,24.680,8.234,368.100,115.600,37.420,12.900,baseline
1331.000,317.800,96.670,28.710,1500.000,329.200,103.800,31.960,268.400,81.430,24.890,8.271,373.300,117.100,37.860,13.000,baseline
1333.000,318.700,96.190,28.480,1493.000,328.100,103.100,31.710,268.900,81.730,24.730,8.168,361.800,113.100,36.300,12.450,baseline
1322.000,314.100,95.380,28.190,1491.000,327.400,103.000,31.650,262.100,80.100,24.470,8.095,358.800,112.100,36.110,12.370,baseline
1320.000,314.100,94.840,28.030,1491.000,327.800,103.000,31.700,266.000,80.160,24.460,8.102,357.900,112.500,36.250,12.460,baseline
1322.000,316.000,94.960,28.220,1490.000,326.600,103.000,31.730,263.700,80.530,24.600,8.124,361.400,113.200,36.450,12.500,baseline
1321.000,314.500,95.100,28.160,1497.000,327.000,103.000,31.710,263.900,80.490,24.520,8.161,361.600,113.600,36.660,12.620,baseline
1323.000,316.400,95.900,28.280,1494.000,327.400,102.800,31.770,265.600,80.580,24.750,8.209,364.900,115.100,37.160,12.740,baseline
1327.000,317.300,96.260,28.380,1492.000,328.200,103.100,31.860,266.900,81.170,24.860,8.233,370.600,116.300,37.620,12.910,baseline
1329.000,318.000,96.340,28.640,1492.000,328.500,103.300,31.800,268.700,81.320,24.900,8.311,373.500,116.100,37.350,12.650,baseline
1324.000,314.700,95.460,28.040,1491.000,326.700,102.700,31.570,266.800,80.250,24.430,8.124,356.900,112.100,36.130,12.370,baseline
1318.000,314.700,94.410,27.930,1486.000,326.600,102.400,31.500,262.200,79.430,24.390,8.093,356.600,111.700,35.990,12.310,baseline
1317.000,313.300,94.960,28.020,1488.000,326.200,102.800,31.590,264.800,79.710,24.550,8.129,359.200,112.600,36.370,12.410,baseline
1318.000,314.300,94.740,28.040,1488.000,326.100,102.600,31.600,266.900,80.380,24.590,8.151,360.700,113.000,36.470,12.470,baseline
1319.000,313.100,95.040,28.040,1487.000,326.100,102.900,31.670,262.900,80.150,24.640,8.174,362.300,113.900,36.720,12.590,baseline
1320.000,313.200,95.240,28.210,1489.000,326.500,102.800,31.750,265.400,80.470,24.800,8.228,367.000,115.100,37.270,12.720,baseline
1323.000,315.100,95.710,28.420,1489.000,327.400,103.100,31.870,269.200,81.410,24.870,8.305,371.000,116.600,37.640,12.900,baseline
1326.000,317.200,96.140,28.640,1487.000,327.500,103.200,31.770,269.300,81.870,25.060,8.340,374.500,116.800,37.510,12.730,baseline
1322.000,315.500,95.180,28.030,1491.000,326.000,102.800,31.600,265.900,80.290,24.580,8.122,358.100,112.000,36.140,12.360,baseline
1314.000,312.500,94.500,27.890,1486.000,325.800,102.400,31.550,263.000,80.320,24.430,8.084,356.800,111.600,35.980,12.290,baseline
1312.000,311.800,94.520,27.960,1485.000,325.700,102.700,31.650,262.900,79.900,24.460,8.146,359.600,112.600,36.320,12.420,baseline
1315.000,314.000,94.460,28.040,1488.000,326.200,102.700,31.570,263.300,80.160,24.570,8.174,360.600,112.800,36.640,12.430,baseline
1315.000,313.300,94.740,28.130,1487.000,325.700,102.700,31.730,264.000,80.320,24.620,8.184,362.400,113.900,36.670,12.610,baseline
1318.000,314.400,95.460,28.320,1488.000,326.400,102.800,31.860,265.300,81.280,24.810,8.238,367.500,115.600,37.170,12.730,baseline
1321.000,314.700,95.750,28.510,1490.000,326.600,103.300,31.860,269.400,81.090,24.960,8.299,370.400,116.500,37.660,12.890,baseline
1325.000,317.300,95.950,28.680,1491.000,327.600,103.400,31.990,269.400,81.950,24.980,8.342,375.500,118.000,38.230,13.030,baseline
1328.000,316.800,96.030,28.510,1491.000,326.100,102.700,31.690,268.800,82.130,24.940,8.237,364.000,113.200,36.460,12.430,baseline
1315.000,313.100,95.080,28.200,1486.000,325.400,102.700,31.740,264.400,80.350,24.490,8.153,358.700,112.200,36.210,12.360,baseline
1314.000,312.600,94.810,28.140,1482.000,324.700,102.700,31.820,262.500,79.970,24.530,8.171,357.800,112.000,36.280,12.420,baseline
1314.000,312.000,95.220,28.290,1484.000,325.100,102.900,31.830,262.600,80.210,24.680,8.169,362.100,113.300,36.470,12.490,baseline
1315.000,313.700,95.060,28.330,1487.000,326.200,103.200,31.930,264.000,80.640,24.610,8.176,363.100,113.900,36.660,12.590,baseline
1317.000,313.300,95.830,28.470,1487.000,327.000,102.900,32.000,266.200,80.830,24.690,8.217,366.200,114.700,37.190,12.690,baseline
1319.000,314.700,95.860,28.650,1490.000,327.400,103.600,32.130,265.600,80.870,24.940,8.285,370.800,116.500,37.420,12.920,baseline
1323.000,316.600,96.590,28.890,1489.000,327.900,103.500,32.290,267.100,81.610,24.950,8.307,374.800,117.400,37.960,13.020,baseline
1327.000,316.100,96.640,28.720,1489.000,326.800,103.100,31.950,271.100,81.560,24.950,8.248,364.400,113.100,36.400,12.460,baseline
1314.000,311.900,95.230,28.410,1483.000,326.500,103.100,31.920,263.900,80.040,24.450,8.129,358.100,112.500,36.200,12.370,baseline
1312.000,312.200,94.720,28.370,1482.000,326.000,102.600,31.970,263.500,79.980,24.420,8.116,358.300,112.200,36.240,12.440,baseline
1312.000,311.700,95.180,28.490,1483.000,325.300,103.300,31.940,263.600,80.270,24.550,8.168,361.800,113.400,36.590,12.540,baseline
1312.000,312.100,95.280,28.510,1486.000,325.400,102.900,32.040,266.300,80.490,24.570,8.186,362.900,113.800,36.690,12.580,baseline
1314.000,313.700,95.490,28.650,1487.000,326.200,103.400,32.170,264.600,80.130,24.700,8.197,367.400,115.200,37.260,12.710,baseline
1317.000,313.900,96.240,28.800,1492.000,327.500,103.500,32.200,265.100,81.360,24.840,8.256,371.600,116.500,37.720,12.910,baseline
1319.000,315.200,96.680,29.050,1494.000,327.600,103.700,32.300,268.900,81.480,24.990,8.311,376.300,118.000,38.200,13.140,baseline
1324.000,317.500,97.050,29.080,1489.000,327.200,103.200,32.110,270.400,82.310,25.100,8.339,372.100,115.100,36.920,12.550,baseline
1311.000,312.600,95.010,28.400,1484.000,325.500,103.100,31.950,263.500,80.040,24.530,8.126,359.100,112.600,36.290,12.390,baseline
1307.000,311.100,94.880,28.240,1480.000,324.500,102.400,31.800,263.600,80.010,24.470,8.110,358.100,112.400,36.220,12.430,baseline
1302.000,310.500,94.790,28.340,1476.000,324.500,102.700,31.830,265.100,80.280,24.510,8.152,362.100,113.800,36.630,12.520,baseline
1304.000,310.700,95.170,28.470,1478.000,325.000,103.000,32.080,263.400,80.710,24.610,8.176,364.100,113.500,36.700,12.580,baseline
1305.000,312.900,95.320,28.750,1483.000,326.000,103.300,32.110,265.800,81.070,24.590,8.220,366.000,114.900,37.020,12.760,baseline
1311.000,313.400,95.750,28.950,1484.000,326.500,103.600,32.200,269.000,80.820,24.770,8.265,371.200,116.500,37.700,12.930,baseline
1317.000,315.400,96.630,29.100,1489.000,327.500,103.600,32.420,270.800,81.820,24.980,8.303,376.400,118.200,38.150,13.110,baseline
1322.000,317.600,96.950,29.300,1490.000,327.900,103.800,32.340,271.200,82.250,25.110,8.367,380.700,118.900,38.320,13.030,baseline
1320.000,316.000,95.830,28.800,1489.000,325.600,103.300,32.040,269.800,80.720,24.710,8.146,360.700,112.500,36.350,12.420,baseline
1308.000,312.600,95.080,28.560,1485.000,324.700,102.800,32.070,263.500,80.230,24.460,8.127,358.500,112.200,36.110,12.380,baseline
1305.000,312.400,95.180,28.510,1483.000,325.500,103.200,32.070,262.600,80.030,24.420,8.125,360.900,112.800,36.530,12.470,baseline
1308.000,312.000,95.500,28.740,1486.000,325.200,102.900,32.170,262.100,80.550,24.650,8.167,363.400,113.800,36.730,12.520,baseline
1309.000,313.100,95.930,28.740,1487.000,326.300,103.300,32.130,267.100,80.570,24.610,8.171,364.000,114.100,36.840,12.620,baseline
1311.000,314.200,95.930,28.910,1489.000,327.400,103.600,32.210,268.900,80.820,24.760,8.249,369.500,115.600,37.470,12.870,baseline
1314.000,314.900,96.060,29.020,1490.000,327.500,103.700,32.290,269.400,81.750,25.010,8.303,373.400,117.400,37.920,13.040,baseline
1318.000,316.500,96.820,29.150,1490.000,328.100,103.800,32.410,270.100,82.330,25.170,8.342,378.900,118.800,38.480,13.190,baseline
1323.000,317.000,97.070,29.280,1489.000,327.300,103.200,32.090,271.300,82.850,25.220,8.365,374.600,116.000,37.180,12.630,baseline
1311.000,313.200,95.380,28.610,1487.000,325.600,103.100,32.050,264.600,79.910,24.550,8.137,360.100,112.700,36.420,12.440,baseline
1308.000,312.800,95.120,28.640,1484.000,325.600,102.800,31.970,264.100,80.180,24.520,8.153,359.900,112.600,36.300,12.430,baseline
1307.000,312.500,95.200,28.760,1485.000,326.100,103.300,32.040,266.300,79.800,24.600,8.169,363.300,114.300,36.760,12.530,baseline
1309.000,312.900,95.340,28.650,1488.000,325.800,103.100,32.030,264.100,80.750,24.670,8.208,365.300,114.400,36.830,12.610,baseline
1310.000,313.300,96.090,28.760,1486.000,326.000,103.300,32.240,265.300,81.110,24.670,8.226,367.600,115.200,37.310,12.810,baseline
1316.000,314.900,96.260,29.000,1492.000,327.100,103.400,32.240,266.100,81.070,24.900,8.307,373.600,116.800,37.800,13.030,baseline
1319.000,316.500,96.510,29.220,1491.000,327.500,103.400,32.390,269.800,81.820,25.130,8.363,378.500,118.700,38.330,13.220,baseline
1323.000,315.900,97.440,29.230,1493.000,327.100,103.200,32.070,273.800,82.930,25.270,8.373,372.900,115.700,36.990,12.630,baseline
1312.000,313.200,95.940,28.650,1491.000,325.500,102.700,32.050,263.200,80.270,24.630,8.162,360.600,113.100,36.440,12.460,baseline
1311.000,313.600,95.560,28.670,1488.000,325.400,103.000,32.110,265.800,80.440,24.590,8.156,361.100,112.800,36.510,12.550,baseline
1313.000,313.400,95.920,28.830,1489.000,326.200,103.200,32.150,265.600,80.250,24.560,8.202,365.200,114.600,36.940,12.640,baseline
1315.000,314.300,95.720,28.900,1489.000,326.400,102.900,32.150,264.600,80.740,24.690,8.240,366.100,114.700,36.910,12.710,baseline
1317.000,315.000,96.360,29.040,1490.000,327.400,103.700,32.250,264.800,80.720,24.800,8.251,369.500,115.700,37.470,12.860,baseline
1322.000,316.300,97.290,29.150,1494.000,328.400,103.700,32.360,270.000,81.170,24.920,8.286,373.800,117.500,37.900,13.050,baseline
1326.000,317.500,97.040,29.460,1498.000,328.500,103.900,32.410,271.100,82.070,25.090,8.348,378.900,118.900,38.440,13.200,baseline
1330.000,318.300,97.140,29.110,1493.000,327.700,103.200,32.100,272.200,81.850,24.970,8.264,363.600,113.200,36.580,12.510,baseline
1317.000,315.600,95.850,28.780,1489.000,326.600,103.100,32.060,266.400,80.250,24.510,8.131,360.500,112.900,36.250,12.460,baseline
1318.000,314.000,95.860,28.790,1491.000,327.000,103.200,32.180,262.300,80.450,24.540,8.157,361.500,113.400,36.610,12.560,baseline
1320.000,314.200,96.340,28.900,1495.000,326.800,103.400,32.240,266.000,80.810,24.650,8.199,365.900,114.600,36.850,12.620,baseline
1321.000,315.600,96.540,29.040,1495.000,328.100,103.700,32.250,264.500,81.230,24.680,8.205,366.300,114.700,36.900,12.710,baseline
1325.000,316.400,96.800,29.190,1494.000,328.000,103.500,32.420,268.900,81.410,24.900,8.256,370.700,116.200,37.440,12.850,baseline
1329.000,318.100,97.440,29.430,1493.000,329.200,104.000,32.520,269.100,81.580,24.870,8.302,374.600,117.900,37.920,13.070,baseline
1334.000,320.200,97.930,29.620,1498.000,328.900,104.300,32.470,270.800,82.120,25.130,8.346,379.500,119.200,38.130,13.000,baseline
1333.000,317.500,96.600,29.050,1493.000,327.600,103.600,32.160,267.400,80.640,24.510,8.162,360.800,112.900,36.460,12.470,baseline
1324.000,315.600,96.730,29.050,1497.000,327.700,103.300,32.230,263.000,80.210,24.470,8.092,360.600,113.100,36.380,12.460,baseline
1324.000,316.000,95.990,29.050,1496.000,327.500,103.400,32.260,264.900,80.320,24.420,8.148,363.500,114.000,36.700,12.640,baseline
1326.000,316.900,96.520,29.100,1497.000,327.300,103.600,32.190,265.200,80.020,24.640,8.185,365.800,114.700,36.980,12.650,baseline
1328.000,318.300,96.920,29.210,1495.000,327.200,103.700,32.300,265.900,80.930,24.640,8.199,368.000,115.600,37.270,12.770,baseline
1331.000,318.300,97.280,29.410,1496.000,328.900,103.700,32.390,267.300,81.180,24.830,8.235,374.000,116.900,37.810,12.940,baseline
1335.000,320.300,97.650,29.570,1500.000,329.200,104.100,32.560,269.900,81.780,25.050,8.319,377.900,118.500,38.480,13.180,baseline
1341.000,321.100,98.920,29.680,1499.000,329.100,104.400,32.610,271.600,82.420,25.170,8.356,383.500,120.200,38.800,13.380,baseline
1344.000,323.300,98.930,29.700,1497.000,329.300,103.800,32.310,273.800,82.760,25.310,8.322,373.600,115.800,37.080,12.610,baseline
1331.000,317.900,96.850,29.110,1491.000,327.200,103.500,32.290,264.600,80.360,24.500,8.125,362.000,113.500,36.440,12.530,baseline
1331.000,318.100,96.940,29.150,1495.000,329.400,103.700,32.310,265.700,80.230,24.520,8.145,363.500,113.900,36.740,12.570,baseline
1334.000,318.900,96.930,29.220,1501.000,328.500,103.900,32.380,266.900,80.610,24.560,8.165,368.100,115.200,37.190,12.740,baseline
1336.000,319.500,97.180,29.400,1500.000,328.000,103.800,32.420,267.900,80.770,24.680,8.182,369.400,115.400,37.220,12.770,baseline
1337.000,319.700,97.770,29.540,1497.000,329.100,104.100,32.530,267.100,81.220,24.760,8.231,372.500,116.900,37.880,12.980,baseline
1341.000,321.400,98.150,29.690,1505.000,330.800,104.200,32.580,269.200,82.010,24.920,8.314,379.200,118.700,38.270,13.200,baseline
1346.000,322.200,98.590,29.930,1501.000,329.300,104.800,32.720,272.400,82.160,25.140,8.330,383.800,119.900,38.860,13.390,baseline
1351.000,325.000,99.450,30.140,1510.000,330.600,104.900,32.800,270.500,82.800,25.290,8.377,388.300,122.200,39.330,13.580,baseline
1354.000,324.600,99.290,29.890,1503.000,329.500,103.900,32.440,273.500,82.430,25.200,8.307,373.000,115.700,37.260,12.740,baseline
1339.000,319.500,97.380,29.340,1498.000,328.900,103.800,32.400,266.700,80.620,24.570,8.140,366.200,114.600,37.000,12.690,baseline
1340.000,318.900,97.440,29.420,1502.000,328.500,103.800,32.450,265.800,80.270,24.560,8.134,367.700,115.100,37.330,12.820,baseline
1342.000,321.800,98.140,29.600,1498.000,329.400,104.000,32.510,265.000,80.780,24.780,8.201,371.100,116.600,37.640,12.920,baseline
1344.000,319.600,97.990,29.700,1503.000,328.900,104.200,32.620,266.500,81.810,24.800,8.213,372.200,116.900,37.860,12.980,baseline
1345.000,322.000,98.430,29.840,1506.000,329.700,104.300,32.620,269.200,81.840,24.900,8.273,376.000,118.300,38.260,13.160,baseline
1349.000,322.000,99.100,30.040,1501.000,329.800,104.800,32.700,268.600,82.220,25.120,8.326,381.600,120.100,38.800,13.380,baseline
1353.000,324.300,99.120,30.270,1503.000,330.600,104.900,32.710,273.200,82.430,25.210,8.349,388.700,122.100,39.480,13.570,baseline
1355.000,325.300,100.100,30.370,1510.000,331.000,105.200,32.790,277.000,82.810,25.390,8.407,393.700,123.300,39.990,13.750,baseline
1358.000,326.200,99.320,29.980,1503.000,329.800,104.100,32.410,274.200,82.300,25.030,8.238,372.900,116.100,37.440,12.850,baseline
1344.000,321.700,98.330,29.740,1501.000,328.800,104.200,32.530,266.000,80.320,24.610,8.164,368.800,115.700,37.370,12.830,baseline
1344.000,321.800,98.330,29.680,1507.000,329.800,104.300,32.620,267.000,80.970,24.620,8.174,369.500,116.200,37.850,12.970,baseline
1347.000,322.300,98.610,29.870,1506.000,329.500,104.400,32.660,267.200,81.670,24.880,8.211,375.800,117.900,38.040,13.100,baseline
1348.000,323.600,99.290,29.960,1505.000,329.500,104.700,32.680,269.600,81.490,24.850,8.214,377.200,118.300,38.350,13.190,baseline
1350.000,322.700,98.950,30.110,1504.000,329.500,104.500,32.790,270.500,81.910,24.970,8.257,381.400,119.200,38.960,13.350,baseline
1352.000,324.400,99.690,30.310,1506.000,330.800,104.900,32.870,269.300,82.430,25.080,8.304,385.600,121.900,39.630,13.580,baseline
1357.000,326.300,100.100,30.490,1508.000,331.300,105.300,33.020,274.300,82.790,25.310,8.392,392.000,123.000,39.930,13.780,baseline
1361.000,328.200,100.700,30.760,1510.000,331.900,105.300,32.950,275.300,83.380,25.470,8.433,396.100,124.700,40.490,13.810,baseline
1360.000,327.300,99.400,30.160,1503.000,329.200,104.400,32.570,272.100,82.630,24.950,8.203,371.800,116.900,37.880,12.960,baseline
1345.000,322.600,98.590,29.830,1504.000,329.000,104.300,32.560,266.600,81.290,24.610,8.153,371.800,116.900,37.930,13.010,baseline
1346.000,323.000,98.780,29.980,1502.000,328.200,104.200,32.560,267.000,80.490,24.690,8.185,375.800,118.400,38.490,13.220,baseline
1346.000,323.700,98.730,30.080,1497.000,328.900,104.300,32.650,266.500,81.280,24.870,8.249,379.300,119.600,38.670,13.230,baseline
1347.000,324.200,99.010,30.160,1498.000,329.300,104.400,32.660,267.500,81.610,24.770,8.239,380.700,119.900,38.780,13.370,baseline
1348.000,324.500,99.020,30.250,1501.000,329.800,104.500,32.750,270.900,81.820,24.990,8.273,385.500,121.600,39.290,13.570,baseline
1350.000,323.800,99.450,30.390,1498.000,329.600,104.700,32.790,270.900,82.410,25.170,8.331,390.600,123.000,39.960,13.790,baseline
1353.000,326.000,100.000,30.610,1499.000,330.200,105.000,32.880,272.900,82.880,25.370,8.396,395.400,124.400,40.380,13.920,baseline
1357.000,326.300,100.400,30.490,1495.000,329.100,104.100,32.480,276.600,83.420,25.310,8.319,382.600,118.900,38.290,13.090,baseline
1340.000,320.100,98.270,29.810,1493.000,327.300,103.800,32.440,265.500,80.690,24.650,8.127,370.600,116.800,37.830,13.000,baseline
1336.000,318.700,98.100,29.810,1490.000,327.600,103.800,32.450,267.300,80.990,24.640,8.121,373.100,117.000,37.930,13.070,baseline
1337.000,321.900,98.470,29.960,1489.000,326.800,104.000,32.390,267.600,81.160,24.720,8.153,377.800,118.500,38.480,13.160,baseline
1337.000,320.300,98.570,29.920,1490.000,327.400,103.800,32.510,269.200,81.340,24.760,8.176,377.000,118.600,38.400,13.270,baseline
1336.000,320.200,98.560,30.120,1494.000,327.400,104.000,32.640,269.300,81.420,24.770,8.208,380.600,119.600,38.930,13.370,baseline
1340.000,321.900,98.780,30.340,1495.000,329.100,104.200,32.780,270.100,82.080,24.900,8.253,384.400,121.200,39.030,13.490,baseline
1346.000,323.500,99.470,30.590,1498.000,329.400,104.700,32.910,273.400,82.690,25.090,8.294,390.000,122.200,39.620,13.610,baseline
1347.000,322.700,98.890,30.060,1492.000,327.000,103.400,32.500,269.600,82.020,24.730,8.112,368.800,115.700,37.360,12.800,baseline
1330.000,317.500,97.700,29.790,1490.000,326.800,103.200,32.500,265.000,79.810,24.350,8.028,366.100,114.700,37.030,12.700,baseline
1327.000,317.200,97.010,29.690,1490.000,326.500,103.500,32.460,263.700,79.900,24.370,8.046,366.100,115.100,37.400,12.850,baseline
1326.000,317.000,97.490,29.700,1488.000,326.400,103.300,32.570,266.300,80.340,24.480,8.099,368.900,116.100,37.360,12.790,baseline
1325.000,315.700,97.220,29.660,1488.000,325.100,103.300,32.470,269.500,80.110,24.410,8.090,370.800,116.000,37.620,12.880,baseline
1326.000,317.800,97.110,29.790,1488.000,326.500,103.600,32.490,270.100,80.590,24.600,8.111,373.000,117.200,37.970,12.990,baseline
1327.000,317.200,97.360,29.890,1480.000,326.300,103.600,32.550,266.100,80.910,24.730,8.155,377.000,118.500,38.290,13.150,baseline
1328.000,318.900,97.480,30.020,1486.000,324.800,103.000,32.250,271.300,81.330,24.870,8.170,373.700,115.800,36.950,12.630,baseline
1315.000,314.100,95.580,29.140,1480.000,323.500,102.200,32.090,263.200,79.360,24.130,7.954,359.000,112.500,36.240,12.360,baseline
1306.000,312.300,95.050,28.940,1478.000,322.500,102.100,32.010,260.500,79.110,24.060,7.942,357.500,112.200,35.980,12.350,baseline
1302.000,310.500,94.840,28.890,1473.000,321.600,102.000,31.970,261.000,79.570,24.130,7.955,360.800,113.100,36.370,12.450,baseline
1302.000,310.400,94.610,28.880,1471.000,321.700,101.700,31.930,262.300,79.420,24.120,7.991,360.000,113.100,36.340,12.450,baseline
1301.000,310.200,94.860,28.920,1475.000,322.000,101.900,31.970,261.600,79.370,24.200,8.010,362.500,113.300,36.630,12.530,baseline
1301.000,311.500,95.220,28.940,1470.000,321.300,101.900,31.990,263.100,80.140,24.330,8.080,365.700,114.100,36.810,12.720,baseline
1303.000,311.500,95.810,29.140,1471.000,321.800,101.700,32.110,265.200,80.340,24.500,8.134,369.300,115.900,37.140,12.720,baseline
1302.000,311.000,94.710,28.690,1467.000,320.600,101.000,31.660,266.100,79.730,24.200,7.956,353.200,110.300,35.350,12.120,baseline
1286.000,305.900,92.880,28.200,1461.000,319.200,100.900,31.590,260.700,78.430,23.830,7.920,351.100,109.500,35.180,11.980,baseline
1281.000,303.600,92.310,28.140,1462.000,319.000,100.800,31.570,260.700,78.260,23.780,7.899,351.000,109.500,35.330,12.040,baseline
1281.000,304.300,92.260,28.160,1461.000,318.300,100.600,31.550,256.800,78.940,23.930,7.951,352.800,109.700,35.300,12.080,baseline
1280.000,304.600,92.730,28.100,1462.000,318.800,100.900,31.530,257.400,78.170,23.920,7.945,352.900,109.800,35.320,12.150,baseline
1281.000,305.200,92.540,28.230,1464.000,318.000,100.900,31.650,260.200,78.470,24.010,7.989,356.300,111.000,35.670,12.210,baseline
1284.000,306.600,93.230,28.330,1466.000,319.600,101.300,31.680,259.400,79.250,24.150,8.037,358.600,111.700,36.060,12.370,baseline
1286.000,307.500,94.100,28.490,1463.000,320.000,101.100,31.720,261.200,79.460,24.260,8.087,361.600,112.400,36.030,12.250,baseline
1285.000,306.500,92.670,27.800,1462.000,317.700,100.300,31.360,259.800,78.320,23.900,7.927,346.200,107.800,34.580,11.810,baseline
1273.000,302.900,91.960,27.660,1459.000,316.500,100.200,31.310,257.600,77.790,23.750,7.863,344.800,106.900,34.320,11.720,baseline
1270.000,302.200,91.660,27.650,1458.000,317.000,100.200,31.350,258.500,77.820,23.720,7.916,346.700,107.600,34.640,11.830,baseline
1272.000,302.600,91.450,27.690,1456.000,316.800,100.600,31.400,257.000,78.150,23.820,7.949,346.800,107.900,34.700,11.800,baseline
1274.000,302.100,91.820,27.750,1453.000,318.200,100.800,31.540,258.000,78.450,23.870,7.981,348.000,108.400,34.790,11.880,baseline
1276.000,303.000,92.130,27.900,1459.000,319.000,100.700,31.600,259.200,78.610,24.070,8.009,351.400,109.300,35.210,12.050,baseline
1279.000,304.100,92.490,28.120,1460.000,319.400,101.100,31.630,258.900,78.860,24.220,8.052,352.800,110.400,35.500,12.150,baseline
1283.000,305.100,93.160,28.270,1465.000,320.700,101.400,31.800,260.600,79.140,24.280,8.114,357.200,111.400,35.670,12.250,baseline
1287.000,305.700,92.680,28.110,1465.000,319.000,100.900,31.510,260.700,79.200,24.170,8.038,345.700,107.300,34.350,11.720,baseline
1276.000,303.300,92.060,27.630,1458.000,317.800,100.600,31.450,256.500,77.900,23.820,7.934,343.500,106.600,34.190,11.640,baseline
1275.000,302.900,91.700,27.660,1461.000,319.100,100.600,31.540,257.800,78.030,23.840,7.961,342.600,106.600,34.380,11.740,baseline
1278.000,303.400,92.110,27.820,1461.000,318.600,100.900,31.650,257.500,78.130,23.860,7.986,344.100,107.200,34.530,11.760,baseline
1280.000,304.900,92.620,27.850,1470.000,319.600,101.300,31.760,259.800,78.480,24.080,8.025,345.800,107.800,34.650,11.840,baseline
1284.000,305.100,93.260,28.010,1467.000,320.300,101.800,31.840,258.700,78.850,24.080,8.075,348.100,108.600,35.040,12.000,baseline
1301.000,311.200,94.710,28.310,1473.000,322.000,101.900,31.840,261.800,80.010,24.460,8.131,347.300,108.100,34.800,11.820,hard
1292.000,308.600,93.960,28.170,1470.000,321.600,102.200,31.970,259.000,78.350,24.020,8.036,343.800,107.400,34.590,11.860,hard
1294.000,309.200,93.970,28.170,1476.000,321.800,102.500,32.080,258.000,78.930,24.120,8.057,345.300,107.700,34.770,11.910,hard
1298.000,308.600,93.980,28.450,1480.000,322.600,102.600,32.200,257.600,78.460,24.160,8.111,346.700,108.400,34.930,11.930,hard
1301.000,311.300,94.530,28.440,1484.000,323.400,102.700,32.340,260.000,78.690,24.250,8.125,347.300,108.900,35.060,12.030,hard
1306.000,311.600,94.880,28.720,1478.000,324.900,103.200,32.430,259.100,79.030,24.340,8.155,350.100,109.700,35.400,12.170,hard
1311.000,312.300,95.470,28.930,1484.000,325.700,103.600,32.560,260.700,79.260,24.450,8.211,354.100,111.000,35.690,12.270,hard
1315.000,315.600,96.330,29.080,1488.000,326.100,103.800,32.670,261.800,80.150,24.610,8.261,356.100,111.800,36.260,12.410,hard
1319.000,317.200,96.340,29.170,1485.000,327.000,103.600,32.460,264.300,80.150,24.780,8.270,355.800,110.300,35.320,12.050,hard
1311.000,314.000,95.290,28.580,1484.000,324.900,103.300,32.430,258.100,79.480,24.300,8.112,345.700,108.000,34.810,11.990,hard
1311.000,313.200,95.240,28.710,1484.000,325.500,103.600,32.450,259.000,78.770,24.260,8.105,345.200,107.900,34.930,11.960,hard
1313.000,313.800,95.290,28.810,1484.000,326.400,103.700,32.570,257.200,79.120,24.350,8.164,347.300,108.800,35.270,12.080,hard
1316.000,313.300,96.380,28.920,1491.000,326.500,103.900,32.590,261.100,79.760,24.360,8.167,348.400,109.300,35.310,12.120,hard
1319.000,315.300,95.710,29.040,1490.000,326.600,104.200,32.720,261.500,79.710,24.490,8.238,349.500,109.900,35.750,12.260,hard
1321.000,316.900,96.570,29.240,1494.000,327.700,104.500,32.750,262.800,80.080,24.630,8.252,355.100,111.500,36.110,12.420,hard
1326.000,317.300,96.810,29.320,1497.000,327.900,104.600,32.940,263.000,80.720,24.760,8.298,358.800,112.500,36.570,12.570,hard
1330.000,318.900,97.360,29.540,1496.000,328.200,104.600,32.850,267.400,80.820,24.960,8.335,361.000,112.700,36.450,12.310,hard
1325.000,316.500,96.290,28.960,1491.000,327.100,104.100,32.730,263.200,79.540,24.490,8.156,347.300,109.000,35.250,12.050,hard
1321.000,315.700,96.220,28.860,1492.000,326.900,104.100,32.630,260.600,79.330,24.340,8.125,346.800,108.400,35.340,12.010,hard
1319.000,313.800,95.670,28.850,1494.000,327.800,104.000,32.720,258.500,78.590,24.360,8.171,347.100,109.100,35.450,12.150,hard
1322.000,314.200,96.310,28.930,1497.000,327.000,104.000,32.670,259.100,79.350,24.440,8.198,348.800,109.500,35.530,12.150,hard
1322.000,315.900,95.930,29.010,1490.000,327.200,104.300,32.750,259.800,79.800,24.540,8.212,350.700,110.200,35.720,12.290,hard
1324.000,317.000,96.520,29.210,1493.000,327.700,104.500,32.830,261.400,79.550,24.600,8.257,355.000,111.500,36.190,12.450,hard
1326.000,317.700,97.160,29.430,1494.000,328.800,104.700,32.940,262.000,80.270,24.770,8.292,357.500,112.700,36.650,12.610,hard
1330.000,318.100,97.390,29.510,1498.000,328.000,104.600,33.000,263.800,80.620,24.870,8.349,362.100,114.100,36.930,12.650,hard
1329.000,317.000,96.550,29.000,1488.000,326.000,104.000,32.630,263.500,80.190,24.590,8.198,348.400,109.000,35.450,12.140,hard
1318.000,314.700,96.230,28.870,1492.000,325.900,103.500,32.570,259.500,78.990,24.350,8.149,346.000,108.400,35.170,12.050,hard
1314.000,313.900,95.310,28.800,1488.000,324.900,103.700,32.570,258.000,79.310,24.270,8.121,346.000,108.900,35.390,12.130,hard
1314.000,312.400,95.460,28.760,1488.000,325.400,103.600,32.670,262.600,79.590,24.370,8.160,348.500,109.600,35.580,12.210,hard
1314.000,313.200,95.810,28.800,1486.000,325.600,103.200,32.670,259.900,79.220,24.430,8.187,350.600,109.900,35.700,12.300,hard
1314.000,313.600,95.640,28.960,1486.000,325.400,103.600,32.580,258.800,79.710,24.520,8.223,353.800,111.600,36.130,12.430,hard
1317.000,313.500,95.990,29.100,1484.000,325.400,103.700,32.740,263.400,80.620,24.670,8.232,357.600,112.500,36.600,12.610,hard
1318.000,314.700,96.220,29.170,1488.000,325.800,103.800,32.730,262.500,80.340,24.770,8.278,361.900,113.700,37.010,12.700,hard
1320.000,315.200,95.660,28.970,1479.000,323.900,102.900,32.420,265.400,80.550,24.510,8.182,349.300,109.500,35.330,12.140,hard
1307.000,311.500,95.270,28.620,1482.000,324.300,102.900,32.430,259.700,78.790,24.220,8.087,345.600,108.400,35.140,12.030,hard
1303.000,310.100,94.730,28.480,1476.000,322.600,102.600,32.300,257.000,78.210,24.110,8.053,345.700,108.500,35.140,12.080,hard
1301.000,310.400,94.450,28.600,1479.000,323.000,102.700,32.350,258.200,78.800,24.130,8.076,348.500,109.100,35.270,12.140,hard
1299.000,309.500,94.120,28.550,1474.000,322.900,102.700,32.360,260.100,78.980,24.190,8.094,348.700,109.900,35.490,12.210,hard
1299.000,308.600,94.330,28.610,1480.000,322.600,102.900,32.440,260.100,79.360,24.290,8.110,353.000,111.100,35.850,12.380,hard
1300.000,310.300,94.640,28.800,1477.000,323.100,102.800,32.400,259.800,79.420,24.370,8.155,356.900,112.300,36.390,12.530,hard
1302.000,311.200,95.180,28.980,1480.000,322.800,103.100,32.510,260.400,79.860,24.520,8.200,361.100,113.000,36.890,12.670,hard
1304.000,310.500,95.120,28.980,1478.000,322.800,102.200,32.240,264.100,79.970,24.640,8.167,355.000,110.200,35.470,12.170,hard
1292.000,307.100,93.830,28.330,1467.000,321.200,101.800,32.180,258.500,78.660,24.060,8.004,346.300,108.400,34.950,12.050,hard
1288.000,306.100,93.250,28.180,1464.000,320.800,101.600,32.080,255.800,77.880,23.890,7.972,344.800,107.500,34.810,11.990,hard
1283.000,305.700,93.160,28.250,1466.000,320.600,101.900,32.080,256.500,78.100,23.910,7.983,347.900,109.100,35.230,12.120,hard
1284.000,306.000,93.310,28.270,1468.000,320.300,101.800,32.050,258.000,78.340,24.030,8.026,349.200,109.300,35.380,12.200,hard
1284.000,306.100,93.740,28.410,1471.000,321.100,102.100,32.190,261.400,78.560,24.110,8.035,352.100,110.200,35.850,12.290,hard
1286.000,307.100,93.920,28.610,1468.000,321.500,102.100,32.240,263.600,79.410,24.190,8.084,357.200,111.700,36.200,12.510,hard
1290.000,307.700,94.380,28.820,1475.000,321.100,102.300,32.280,262.600,79.720,24.350,8.146,360.900,113.000,36.720,12.630,hard
1294.000,309.400,94.870,28.990,1476.000,321.400,102.600,32.370,263.100,79.770,24.510,8.192,365.000,114.400,36.950,12.620,hard
1293.000,309.300,94.000,28.460,1465.000,320.600,102.100,32.020,263.600,78.990,24.020,8.006,349.000,108.800,35.200,12.090,hard
1282.000,305.300,93.320,28.370,1466.000,319.800,102.100,31.910,257.700,78.170,23.850,7.956,347.300,108.200,35.070,11.990,hard
1279.000,304.400,93.290,28.240,1467.000,320.000,101.900,32.100,259.200,78.320,23.900,7.935,347.500,108.600,35.250,12.070,hard
1280.000,305.300,93.370,28.390,1464.000,319.600,102.000,31.990,260.000,78.070,23.940,8.020,349.500,109.100,35.130,12.120,hard
1279.000,305.500,93.610,28.450,1466.000,319.800,101.900,32.090,259.700,78.560,24.020,8.001,351.800,109.700,35.520,12.220,hard
1283.000,305.500,93.580,28.670,1470.000,320.700,102.100,32.110,262.600,78.690,24.100,8.057,356.200,111.300,35.730,12.380,hard
1287.000,306.300,94.340,28.810,1471.000,321.800,102.400,32.220,261.700,79.560,24.230,8.075,359.700,112.300,36.380,12.510,hard
1291.000,309.300,95.100,29.090,1473.000,322.700,102.700,32.340,265.300,79.640,24.390,8.132,363.200,113.700,36.600,12.560,hard
1292.000,307.800,94.530,28.630,1470.000,320.800,102.200,32.140,261.800,79.090,24.050,7.983,348.400,108.500,35.060,12.040,hard
1284.000,306.200,94.000,28.570,1473.000,320.600,102.200,32.070,256.600,78.390,23.820,7.930,347.700,108.400,34.960,11.970,hard
1283.000,305.000,93.910,28.500,1476.000,322.000,102.400,32.160,261.400,78.410,23.800,7.918,348.700,108.300,35.130,12.050,hard
1286.000,306.800,94.280,28.800,1471.000,321.700,102.300,32.260,259.200,78.760,23.960,7.981,350.600,109.300,35.230,12.100,hard
1287.000,307.900,94.540,28.740,1475.000,322.000,102.500,32.340,259.900,78.470,23.970,7.998,351.900,110.200,35.470,12.200,hard
1291.000,308.200,94.600,29.030,1477.000,322.200,102.600,32.370,261.800,79.360,24.140,8.032,356.300,110.900,35.930,12.380,hard
1294.000,310.500,95.350,29.170,1475.000,323.200,102.800,32.490,263.400,79.820,24.240,8.085,360.300,112.600,36.430,12.530,hard
1300.000,312.200,95.830,29.400,1482.000,324.900,102.900,32.420,265.300,80.040,24.500,8.127,364.800,113.100,36.310,12.340,hard
1296.000,309.700,94.570,28.820,1475.000,322.600,102.500,32.130,262.700,78.740,24.000,7.960,348.500,108.400,35.040,12.000,hard
1290.000,307.500,94.470,28.700,1475.000,322.300,102.400,32.160,259.000,77.920,23.830,7.922,346.700,107.900,34.620,11.900,hard
1289.000,307.100,94.590,28.770,1479.000,323.100,102.700,32.290,258.200,78.540,23.810,7.949,349.000,108.700,34.980,12.040,hard
1293.000,308.200,95.040,28.860,1477.000,322.200,102.800,32.230,261.200,78.820,24.000,7.973,352.000,109.400,35.120,12.100,hard
1294.000,310.500,95.100,28.950,1482.000,323.700,103.100,32.390,260.100,79.050,24.050,7.991,353.100,109.900,35.510,12.230,hard
1299.000,310.300,95.470,29.260,1481.000,324.600,103.200,32.500,260.600,79.250,24.210,8.042,357.800,111.700,35.810,12.390,hard
1303.000,311.500,96.030,29.370,1485.000,325.200,103.400,32.620,265.300,79.850,24.340,8.119,362.700,112.800,36.450,12.580,hard
1308.000,313.500,96.560,29.610,1485.000,325.200,103.600,32.390,267.800,79.720,24.490,8.142,362.700,111.700,35.690,12.150,hard
1302.000,309.500,95.460,28.970,1481.000,323.800,102.900,32.320,258.500,78.170,23.970,7.961,348.300,108.300,34.780,12.000,hard
1299.000,310.700,95.540,28.870,1480.000,323.800,103.100,32.260,260.000,78.080,23.850,7.915,347.600,107.800,34.690,11.910,hard
1299.000,310.600,95.350,29.000,1484.000,324.300,103.100,32.400,260.800,77.910,23.870,7.925,350.600,108.900,35.150,12.040,hard
1304.000,311.200,95.570,29.100,1489.000,325.300,103.200,32.430,259.200,78.680,24.030,7.989,352.100,109.600,35.360,12.140,hard
1307.000,312.800,96.490,29.260,1488.000,325.300,103.700,32.560,262.500,79.180,24.130,8.021,355.100,110.600,35.590,12.320,hard
1311.000,313.200,96.360,29.530,1492.000,326.500,103.900,32.680,263.300,79.700,24.230,8.089,359.900,112.000,36.300,12.460,hard
1316.000,316.700,97.090,29.660,1499.000,326.900,103.900,32.770,265.500,79.890,24.540,8.125,364.800,114.000,36.670,12.650,hard
1321.000,317.200,98.080,29.970,1501.000,326.700,104.000,32.710,266.000,80.810,24.610,8.160,366.800,112.700,35.940,12.260,hard
1315.000,314.900,96.690,29.250,1493.000,325.700,103.700,32.490,262.900,78.390,23.960,7.959,349.100,108.600,35.120,12.040,hard
1313.000,314.300,96.270,29.220,1494.000,326.200,103.900,32.570,258.900,78.060,23.960,7.935,349.300,108.300,34.780,12.000,hard
1312.000,314.500,96.220,29.280,1493.000,326.400,104.000,32.660,258.200,78.750,23.980,7.959,352.100,109.800,35.310,12.160,hard
1317.000,315.800,96.980,29.450,1495.000,327.100,103.700,32.640,258.900,78.860,24.030,7.996,351.700,110.200,35.510,12.150,hard
1318.000,316.000,96.820,29.500,1496.000,327.200,103.800,32.670,261.900,79.240,24.010,8.029,356.100,110.600,35.840,12.300,hard
1322.000,316.600,97.330,29.690,1498.000,328.300,104.300,32.810,262.600,79.690,24.310,8.075,359.900,112.500,36.390,12.430,hard
1325.000,317.300,97.860,29.900,1504.000,328.600,104.700,32.830,264.300,79.900,24.460,8.100,365.100,113.900,36.850,12.670,hard
1331.000,319.500,98.240,29.840,1502.000,328.200,104.200,32.670,266.500,80.650,24.510,8.087,357.200,110.400,35.360,12.090,hard
1321.000,316.400,96.720,29.450,1501.000,327.200,104.100,32.600,260.400,78.580,23.990,7.965,348.900,108.500,34.930,11.970,hard
1321.000,316.900,96.680,29.240,1492.000,326.500,104.000,32.540,258.900,78.280,23.950,7.929,348.100,108.800,35.000,11.990,hard
1322.000,314.600,96.550,29.390,1497.000,328.300,104.000,32.670,261.300,78.550,24.030,7.958,352.400,110.300,35.320,12.130,hard
1323.000,315.200,96.590,29.410,1498.000,327.300,104.200,32.590,259.700,78.560,24.090,7.994,353.800,110.000,35.580,12.150,hard
1325.000,317.100,96.720,29.540,1503.000,327.600,104.400,32.750,262.800,79.270,24.230,8.032,356.700,111.400,35.880,12.350,hard
1328.000,318.100,97.630,29.670,1501.000,328.100,104.200,32.770,265.100,79.570,24.330,8.072,360.800,112.700,36.370,12.540,hard
1331.000,319.100,98.160,29.840,1503.000,329.300,104.400,32.820,263.100,80.100,24.440,8.145,365.700,114.000,36.740,12.590,hard
1331.000,318.500,97.020,29.290,1501.000,326.700,103.800,32.520,262.700,79.760,24.180,7.974,348.900,108.900,35.040,11.980,hard
1320.000,315.400,96.470,29.090,1495.000,325.900,103.600,32.480,258.800,78.480,23.900,7.926,347.600,108.100,34.710,11.890,hard
1317.000,312.900,96.200,28.960,1497.000,325.800,103.300,32.440,260.700,78.120,23.990,7.927,348.600,108.900,35.140,12.010,hard
1318.000,315.700,96.050,29.000,1497.000,325.400,103.400,32.420,260.100,79.070,24.030,7.987,351.600,109.600,35.270,12.100,hard
1318.000,313.800,96.170,29.100,1495.000,326.800,103.800,32.510,258.800,78.700,24.220,7.999,353.100,110.300,35.560,12.210,hard
1321.000,315.300,96.110,29.260,1499.000,326.800,103.700,32.650,262.800,79.570,24.260,8.062,358.700,111.900,36.050,12.390,hard
1324.000,315.300,96.760,29.450,1497.000,327.700,104.100,32.700,263.500,79.780,24.480,8.096,363.300,113.500,36.690,12.540,hard
1328.000,317.300,96.800,29.590,1500.000,326.900,104.100,32.750,263.800,80.550,24.600,8.184,368.500,115.100,36.960,12.640,hard
1326.000,316.900,96.380,29.030,1496.000,325.400,103.200,32.510,266.300,79.830,24.250,8.021,350.500,109.200,35.090,12.010,hard
1314.000,312.900,95.210,28.900,1495.000,325.200,103.000,32.360,258.800,78.980,24.070,7.981,348.300,108.500,34.890,11.940,hard
1311.000,310.800,95.140,28.780,1490.000,325.300,103.100,32.390,258.400,78.800,24.080,7.962,349.700,109.100,35.160,12.030,hard
1311.000,312.700,95.180,28.810,1489.000,324.700,103.300,32.490,260.200,79.640,24.300,8.031,353.300,109.900,35.400,12.160,hard
1312.000,312.100,95.220,28.930,1492.000,325.300,103.100,32.450,261.900,79.840,24.290,8.049,356.000,110.800,36.040,12.250,hard
1312.000,312.500,95.270,29.120,1489.000,325.400,103.200,32.590,260.200,80.200,24.380,8.130,359.300,112.600,36.260,12.430,hard
1315.000,312.600,95.950,29.210,1491.000,326.200,103.600,32.580,266.600,80.510,24.670,8.181,365.600,113.800,36.920,12.630,hard
1318.000,314.600,96.630,29.410,1491.000,325.600,103.300,32.520,266.800,81.410,24.910,8.241,367.200,113.400,36.090,12.220,hard
1310.000,311.000,94.470,28.600,1487.000,324.200,102.900,32.330,261.800,79.420,24.280,8.022,350.800,109.200,35.110,12.010,hard
1303.000,311.300,94.160,28.660,1485.000,323.100,102.600,32.290,260.800,79.160,24.160,8.017,349.400,109.000,35.050,12.000,hard
1299.000,308.400,93.910,28.710,1480.000,323.800,103.000,32.370,260.500,79.390,24.290,8.052,354.800,110.400,35.460,12.160,hard
1301.000,310.700,94.370,28.870,1482.000,324.100,103.000,32.410,262.200,79.500,24.430,8.079,355.200,110.700,35.650,12.210,hard
1301.000,310.400,94.640,28.880,1484.000,323.700,103.100,32.560,264.700,80.420,24.430,8.132,359.500,111.800,35.990,12.370,hard
1304.000,312.000,95.140,29.050,1488.000,324.200,103.300,32.530,263.400,79.900,24.620,8.190,364.600,113.500,36.490,12.610,hard
1306.000,312.100,95.610,29.250,1489.000,325.300,103.600,32.680,267.300,80.760,24.760,8.250,369.600,115.500,37.110,12.720,hard
1309.000,313.200,95.110,28.860,1484.000,322.900,102.600,32.320,265.500,80.650,24.590,8.137,353.500,109.700,35.180,12.020,hard
1293.000,306.200,94.030,28.540,1474.000,322.400,102.500,32.330,259.900,79.430,24.180,8.041,350.200,108.900,35.010,11.950,hard
1289.000,308.400,93.610,28.500,1473.000,322.200,102.500,32.400,261.600,78.980,24.190,8.050,351.000,109.800,35.270,12.110,hard
1290.000,307.200,93.920,28.680,1475.000,322.300,102.900,32.420,261.900,79.580,24.360,8.108,355.200,110.500,35.500,12.170,hard
1291.000,307.800,94.230,28.710,1479.000,323.000,103.200,32.450,264.300,79.840,24.410,8.147,357.300,111.600,35.840,12.290,hard
1293.000,309.100,94.480,28.890,1481.000,323.000,103.000,32.650,264.200,79.740,24.550,8.190,362.000,113.100,36.410,12.500,hard
1296.000,309.900,94.780,29.100,1483.000,324.300,103.200,32.620,265.200,80.680,24.720,8.270,367.100,114.700,36.990,12.700,hard
1300.000,309.800,95.350,29.410,1484.000,324.300,103.400,32.640,268.900,81.460,24.910,8.300,370.600,114.400,36.290,12.270,hard
1292.000,307.600,93.880,28.510,1478.000,322.200,102.500,32.330,263.600,79.280,24.340,8.058,350.700,109.200,35.110,11.980,hard
1284.000,305.900,93.200,28.580,1476.000,321.700,102.600,32.300,261.200,78.990,24.110,8.032,349.700,108.700,34.970,11.980,hard
1280.000,306.200,93.550,28.570,1480.000,321.700,102.600,32.430,259.800,79.460,24.310,8.108,354.400,110.400,35.430,12.180,hard
1283.000,306.700,93.640,28.730,1477.000,322.300,102.600,32.440,266.400,79.710,24.370,8.107,357.100,110.700,35.680,12.190,hard
1283.000,306.700,94.030,28.760,1474.000,321.500,103.000,32.510,262.600,80.140,24.560,8.162,360.000,112.300,36.170,12.370,hard
1286.000,309.000,94.310,28.940,1482.000,323.800,103.200,32.690,262.800,80.430,24.630,8.203,363.800,113.700,36.700,12.540,hard
1290.000,309.500,94.890,29.140,1481.000,324.000,103.500,32.740,266.800,80.710,24.800,8.270,369.600,115.500,37.270,12.760,hard
1295.000,310.300,95.420,29.310,1479.000,323.600,102.900,32.480,269.700,81.670,24.900,8.278,367.400,112.600,35.910,12.180,hard
1285.000,306.300,93.750,28.650,1474.000,322.400,102.700,32.350,262.100,79.260,24.210,8.040,351.100,109.500,35.210,11.990,hard
1280.000,306.600,93.210,28.570,1481.000,323.100,102.700,32.390,262.000,78.950,24.150,8.048,352.200,109.300,35.130,12.020,hard
1278.000,306.700,93.610,28.710,1478.000,321.900,102.900,32.520,263.600,78.690,24.310,8.078,355.800,110.800,35.610,12.150,hard
1282.000,306.600,93.650,28.820,1480.000,322.500,103.000,32.540,264.000,80.310,24.360,8.104,358.000,111.200,35.840,12.250,hard
1283.000,307.300,94.120,28.960,1484.000,323.600,103.200,32.600,264.100,80.260,24.460,8.150,361.900,112.200,36.260,12.390,hard
1286.000,308.700,94.720,29.060,1483.000,324.200,103.500,32.770,265.900,80.290,24.630,8.188,367.000,114.100,36.730,12.580,hard
1291.000,311.000,95.580,29.290,1483.000,325.000,103.800,32.760,266.700,80.860,24.850,8.243,372.400,115.900,37.260,12.690,hard
1293.000,309.400,94.670,28.940,1483.000,323.100,102.900,32.470,268.600,80.370,24.340,8.103,353.700,109.700,35.250,12.030,hard
1281.000,307.100,94.110,28.760,1479.000,323.400,102.800,32.500,263.800,79.480,24.150,8.030,351.500,109.200,34.960,11.980,hard
1280.000,305.400,93.980,28.720,1486.000,322.700,102.700,32.590,260.900,79.050,24.150,8.037,354.900,110.100,35.420,12.140,hard
1283.000,307.800,94.250,28.940,1484.000,324.300,102.800,32.510,262.100,79.570,24.320,8.082,357.900,110.700,35.510,12.150,hard
1284.000,307.400,94.460,29.000,1485.000,323.800,103.500,32.730,263.900,79.660,24.310,8.113,358.300,111.800,35.810,12.320,hard
1289.000,308.400,95.130,29.260,1487.000,324.400,103.900,32.830,264.900,79.690,24.550,8.153,364.000,113.100,36.300,12.450,hard
1295.000,310.500,95.790,29.460,1486.000,325.500,103.800,32.960,267.100,80.650,24.670,8.188,369.600,114.600,36.880,12.700,hard
1300.000,312.400,95.680,29.230,1489.000,324.300,103.300,32.570,269.800,80.940,24.540,8.115,355.600,109.500,35.050,11.970,hard
1287.000,307.200,94.480,28.880,1487.000,324.100,103.400,32.670,261.300,78.550,24.020,8.005,350.400,108.400,34.880,11.910,hard
1286.000,309.000,94.460,28.840,1488.000,324.400,103.400,32.730,260.800,78.560,24.080,8.004,351.300,109.200,35.030,12.000,hard
1289.000,309.400,94.510,29.100,1487.000,325.500,103.700,32.800,262.300,79.150,24.210,8.013,356.100,110.400,35.250,12.070,hard
1293.000,309.900,94.910,29.120,1492.000,325.400,103.800,32.830,263.400,79.350,24.250,8.063,357.800,111.200,35.510,12.200,hard
1296.000,310.400,95.120,29.410,1493.000,325.500,104.200,32.890,266.700,79.680,24.390,8.119,362.400,112.700,36.170,12.360,hard
1300.000,311.300,95.790,29.420,1495.000,326.800,104.300,33.020,265.600,80.560,24.600,8.194,368.000,114.000,36.610,12.600,hard
1304.000,312.700,96.200,29.450,1494.000,326.200,103.500,32.730,268.300,80.600,24.500,8.097,357.600,109.500,34.850,11.920,hard
1292.000,308.800,94.880,28.910,1492.000,324.300,103.600,32.700,260.200,78.510,23.980,7.938,350.300,108.600,34.650,11.820,hard
1292.000,309.200,94.440,28.820,1492.000,325.000,103.500,32.700,260.600,78.700,24.030,7.951,350.300,108.700,34.710,11.910,hard
1293.000,309.900,94.910,28.990,1490.000,325.600,103.600,32.750,260.500,79.200,24.100,8.008,356.300,109.900,35.080,12.030,hard
1296.000,309.800,94.770,29.100,1492.000,325.500,103.800,32.870,259.700,79.350,24.190,8.039,357.200,110.700,35.480,12.150,hard
1299.000,310.500,95.660,29.190,1496.000,326.400,103.900,32.930,263.100,80.310,24.330,8.086,361.900,112.500,35.990,12.270,hard
1304.000,311.900,95.740,29.470,1500.000,327.300,104.500,33.010,267.400,80.380,24.500,8.166,366.700,113.700,36.530,12.540,hard
1308.000,312.500,96.410,29.650,1500.000,327.600,104.400,32.770,270.000,80.980,24.680,8.183,367.900,112.800,35.670,12.070,hard
1300.000,310.500,94.740,28.940,1493.000,325.900,103.600,32.660,263.300,78.790,24.030,7.978,350.100,108.300,34.540,11.760,hard
1298.000,309.500,95.080,28.820,1496.000,325.900,103.700,32.640,261.300,78.300,23.860,7.926,348.300,107.800,34.400,11.770,hard
1297.000,309.100,94.970,28.940,1499.000,326.500,103.800,32.760,260.400,79.020,24.060,7.983,354.800,109.600,35.030,11.930,hard
1300.000,310.500,95.000,29.070,1497.000,326.600,103.800,32.740,262.700,79.180,24.200,8.026,356.400,110.100,35.300,12.030,hard
1303.000,311.400,95.440,29.210,1498.000,327.200,104.000,33.030,263.600,79.790,24.240,8.068,360.200,111.600,35.590,12.210,hard
1308.000,313.400,95.980,29.470,1498.000,328.500,104.400,33.010,266.000,80.010,24.470,8.160,365.200,113.100,36.300,12.420,hard
1314.000,314.000,96.190,29.630,1506.000,328.200,104.700,33.120,267.400,81.170,24.640,8.199,370.600,115.300,36.810,12.580,hard
1317.000,314.700,96.010,29.210,1500.000,326.500,103.400,32.770,269.500,80.190,24.370,8.055,352.500,108.800,34.740,11.850,hard
1303.000,311.700,94.940,29.000,1495.000,326.700,103.700,32.670,260.900,78.310,23.970,7.948,349.900,108.100,34.580,11.730,hard
1304.000,311.500,95.000,28.940,1500.000,326.000,103.800,32.690,259.600,78.920,24.020,7.957,351.100,108.900,34.830,11.920,hard
1306.000,312.100,95.370,29.120,1504.000,327.400,103.800,32.800,260.400,79.660,24.190,8.021,356.200,109.900,35.100,12.010,hard
1308.000,311.800,95.240,29.190,1505.000,327.100,104.100,32.920,265.600,79.440,24.260,8.080,358.100,110.800,35.350,12.130,hard
1311.000,314.600,96.120,29.290,1507.000,327.600,104.300,32.970,266.700,80.060,24.480,8.115,362.700,112.300,35.900,12.280,hard
1315.000,314.800,96.480,29.490,1502.000,328.700,104.500,33.030,267.100,80.250,24.640,8.176,368.000,114.100,36.540,12.520,hard
1319.000,315.900,96.540,29.590,1502.000,329.000,104.300,32.830,268.100,80.660,24.770,8.191,363.100,111.100,35.000,11.900,hard
1307.000,312.000,94.750,28.920,1503.000,326.800,103.700,32.700,261.300,78.810,24.080,7.980,350.000,108.100,34.510,11.770,hard
1307.000,311.100,95.010,28.950,1503.000,327.300,103.700,32.730,261.900,79.210,23.940,7.964,350.200,108.600,34.690,11.820,hard
1309.000,311.000,95.360,29.040,1498.000,326.800,103.800,32.860,262.300,79.170,24.190,8.006,355.600,110.300,35.210,11.990,hard
1311.000,312.700,95.150,29.120,1497.000,327.400,103.900,32.810,262.800,79.630,24.340,8.056,357.300,110.700,35.320,12.050,hard
1313.000,312.600,95.110,29.210,1504.000,328.000,104.300,32.980,264.500,80.250,24.410,8.117,362.000,112.200,35.920,12.240,hard
1316.000,313.700,96.340,29.510,1500.000,328.900,104.400,33.000,266.500,80.920,24.570,8.187,367.000,113.900,36.280,12.470,hard
1321.000,316.200,96.510,29.650,1504.000,329.000,104.500,33.010,268.600,80.690,24.750,8.233,373.000,115.500,36.770,12.420,hard
1319.000,313.700,95.480,28.980,1500.000,327.100,103.700,32.740,266.000,79.380,24.300,8.005,350.900,108.700,34.560,11.820,hard
1309.000,311.500,94.860,28.950,1503.000,327.100,103.900,32.730,260.200,79.180,24.050,7.987,349.600,108.300,34.640,11.790,hard
1307.000,310.700,94.210,28.880,1498.000,326.900,103.800,32.880,260.200,78.820,24.150,7.982,353.300,109.700,35.040,11.970,hard
1311.000,312.500,94.980,29.080,1498.000,327.200,103.900,32.910,263.300,79.550,24.320,8.064,355.500,110.800,35.230,12.030,hard
1312.000,313.300,95.180,29.140,1502.000,327.200,104.000,32.920,263.000,80.170,24.370,8.077,360.200,111.700,35.540,12.210,hard
1315.000,313.400,95.740,29.380,1507.000,328.000,104.500,33.070,264.800,80.610,24.530,8.146,364.100,113.300,36.200,12.370,hard
1319.000,315.000,96.110,29.650,1505.000,328.600,104.500,33.180,269.400,80.830,24.760,8.212,371.100,115.000,36.850,12.620,hard
1323.000,315.700,96.420,29.560,1504.000,327.600,104.000,32.820,268.400,81.370,24.870,8.200,360.500,110.600,35.000,11.880,hard
1308.000,311.900,94.690,28.930,1498.000,326.500,103.300,32.760,262.600,79.280,24.100,8.005,351.000,108.500,34.640,11.790,hard
1307.000,311.100,94.380,28.770,1500.000,326.700,103.600,32.750,261.900,78.990,24.150,8.006,350.900,109.100,34.850,11.890,hard
1306.000,311.100,94.810,29.090,1498.000,326.400,103.800,32.830,261.400,79.710,24.310,8.079,356.300,110.500,35.380,12.030,hard
1308.000,312.000,94.690,29.170,1499.000,327.500,103.700,32.900,263.400,80.260,24.420,8.118,358.000,111.300,35.660,12.100,hard
1310.000,311.300,95.370,29.310,1498.000,327.700,104.000,33.050,263.600,80.460,24.500,8.151,362.900,112.600,36.000,12.280,hard
1313.000,312.500,95.910,29.540,1501.000,328.200,104.400,33.180,266.300,80.510,24.680,8.229,368.500,114.500,36.600,12.490,hard
1317.000,315.400,96.390,29.780,1500.000,329.800,104.800,33.180,272.300,81.240,24.930,8.283,374.700,116.300,36.950,12.520,hard
1317.000,312.500,95.120,29.110,1498.000,326.200,103.600,32.820,264.700,80.030,24.410,8.084,352.500,109.200,34.950,11.840,hard
1304.000,309.500,94.100,28.920,1493.000,326.400,103.900,32.780,263.500,79.770,24.240,8.005,350.800,108.900,34.550,11.810,hard
1300.000,308.900,93.930,29.000,1494.000,325.900,103.700,32.890,260.000,78.970,24.200,8.026,354.400,110.100,35.250,12.000,hard
1303.000,310.900,94.840,29.210,1496.000,325.300,103.900,32.910,264.400,79.600,24.450,8.107,359.300,111.000,35.510,12.080,hard
1303.000,309.300,94.710,29.210,1495.000,326.400,103.900,32.920,264.100,80.180,24.470,8.119,360.200,112.000,35.850,12.220,hard
1306.000,312.200,94.830,29.390,1502.000,327.000,104.200,33.080,267.600,80.740,24.650,8.199,365.000,113.700,36.470,12.430,hard
1310.000,313.000,95.830,29.670,1500.000,327.500,104.500,33.310,268.900,80.840,24.790,8.249,371.300,115.300,36.920,12.640,hard
1316.000,314.000,96.840,29.830,1499.000,328.200,104.400,33.060,271.600,81.050,24.950,8.300,368.300,112.500,35.550,12.020,hard
1302.000,310.200,94.410,29.020,1497.000,326.100,104.000,32.930,263.000,79.600,24.270,8.011,351.300,109.000,34.850,11.810,hard
1298.000,310.600,94.480,28.960,1492.000,325.400,103.900,32.940,261.800,79.150,24.190,8.021,350.900,109.200,34.840,11.880,hard
1298.000,309.000,94.690,29.240,1495.000,326.500,103.600,32.980,263.700,79.840,24.320,8.072,356.200,110.700,35.430,12.010,hard
1299.000,310.000,94.880,29.250,1494.000,326.300,104.000,32.950,264.200,79.790,24.400,8.114,357.000,111.000,35.540,12.090,hard
1300.000,310.500,95.410,29.380,1494.000,327.100,104.200,33.120,264.800,80.110,24.500,8.135,362.300,112.100,36.010,12.270,hard
1304.000,310.700,95.560,29.730,1501.000,328.100,104.500,33.230,267.300,80.640,24.690,8.225,366.700,114.200,36.380,12.460,hard
1310.000,312.700,96.140,29.920,1499.000,328.100,104.400,33.090,266.500,81.460,24.840,8.263,369.700,113.500,36.060,12.110,hard
1301.000,309.000,94.390,29.040,1493.000,325.700,103.700,32.920,264.900,79.540,24.160,8.004,349.200,108.300,34.640,11.760,hard
1295.000,308.900,93.950,29.060,1489.000,326.300,103.400,32.930,260.500,79.100,24.090,8.006,349.300,108.400,34.770,11.830,hard
1292.000,308.800,94.330,29.260,1492.000,326.200,103.700,33.050,259.500,79.380,24.200,8.055,355.400,110.100,35.290,11.990,hard
1296.000,308.800,94.910,29.330,1490.000,326.400,104.200,33.080,264.000,79.960,24.370,8.110,356.600,110.700,35.430,12.060,hard
1297.000,310.700,95.140,29.550,1490.000,326.600,104.300,33.220,263.100,80.040,24.500,8.167,360.500,111.800,35.930,12.220,hard
1301.000,311.400,95.430,29.760,1495.000,327.400,104.300,33.230,267.500,80.670,24.650,8.193,365.500,113.800,36.330,12.410,hard
1306.000,311.900,96.200,29.940,1500.000,329.400,105.000,33.400,267.100,80.980,24.870,8.273,371.500,115.200,37.050,12.590,hard
1308.000,312.300,95.780,29.470,1492.000,326.200,103.900,33.000,266.000,80.720,24.490,8.106,352.100,109.000,34.710,11.790,hard
1292.000,307.900,94.150,29.110,1491.000,325.300,104.000,32.920,259.300,79.040,24.110,7.998,348.100,108.200,34.530,11.730,hard
1290.000,307.600,94.480,29.060,1494.000,326.400,103.800,33.030,263.800,78.680,24.130,8.024,350.600,109.100,34.870,11.920,hard
1293.000,309.500,94.910,29.370,1492.000,326.200,103.900,33.060,261.700,79.610,24.360,8.119,356.300,110.500,35.390,12.070,hard
1294.000,310.600,94.820,29.540,1493.000,326.300,104.400,33.200,264.800,79.780,24.430,8.123,357.000,111.200,35.680,12.140,hard
1298.000,311.600,95.760,29.670,1494.000,326.400,104.300,33.260,265.000,80.470,24.630,8.165,363.700,112.900,36.360,12.370,hard
1303.000,312.800,96.230,30.010,1501.000,327.900,104.800,33.450,266.000,81.070,24.810,8.256,368.200,114.700,36.890,12.530,hard
1309.000,315.100,96.670,29.970,1497.000,328.200,104.300,33.080,271.900,81.360,24.960,8.300,366.200,111.800,35.460,11.960,hard
1297.000,310.300,95.150,29.320,1491.000,326.200,104.100,33.050,259.600,79.530,24.250,8.051,350.100,108.400,34.610,11.750,hard
1294.000,309.800,95.020,29.310,1498.000,326.400,103.800,33.110,262.800,79.250,24.110,8.043,350.500,108.600,34.790,11.900,hard
1296.000,310.700,95.400,29.540,1496.000,326.300,104.100,33.140,263.700,79.840,24.370,8.117,356.000,110.700,35.300,12.060,hard
1299.000,312.500,95.700,29.600,1499.000,327.800,104.000,33.200,265.600,80.410,24.540,8.133,358.900,110.900,35.660,12.200,hard
1302.000,312.400,95.530,29.820,1498.000,327.800,104.600,33.340,264.800,80.320,24.600,8.200,362.200,112.700,36.180,12.320,hard
1307.000,312.900,96.450,30.070,1499.000,327.900,105.000,33.460,266.100,80.940,24.790,8.253,367.000,114.300,36.790,12.540,hard
1312.000,314.800,97.410,30.380,1502.000,328.500,104.700,33.350,269.300,81.240,24.970,8.316,370.700,114.100,36.050,12.140,hard
1304.000,312.300,95.520,29.400,1495.000,327.100,104.100,33.060,262.300,79.240,24.280,8.046,348.500,108.600,34.670,11.750,hard
1299.000,309.700,95.380,29.510,1495.000,327.400,104.500,33.150,262.800,79.320,24.150,8.034,348.500,108.400,34.590,11.820,hard
1300.000,311.300,95.440,29.600,1500.000,327.400,104.600,33.290,263.300,79.560,24.270,8.116,354.100,110.300,35.310,12.010,hard
1304.000,313.000,95.860,29.660,1498.000,327.500,104.500,33.220,262.300,79.770,24.450,8.149,356.300,110.500,35.340,12.080,hard
1305.000,312.100,96.320,29.780,1500.000,327.600,105.000,33.360,266.800,79.890,24.510,8.167,359.600,111.900,35.790,12.300,hard
1311.000,314.400,96.870,30.060,1505.000,329.800,104.700,33.500,268.700,80.720,24.790,8.233,365.600,113.500,36.430,12.470,hard
1315.000,315.700,97.390,30.320,1509.000,329.700,105.300,33.500,266.100,81.230,24.860,8.290,370.100,115.100,36.980,12.530,hard
1316.000,314.100,96.500,29.620,1499.000,328.200,104.300,33.100,267.500,80.530,24.440,8.122,350.900,108.500,34.620,11.810,hard
1302.000,310.900,95.500,29.420,1496.000,327.600,104.200,33.110,259.900,78.880,24.170,8.026,347.800,108.100,34.430,11.750,hard
1302.000,310.700,95.460,29.420,1497.000,326.700,104.500,33.180,258.900,78.910,24.160,8.051,350.300,109.100,34.930,11.930,hard
1305.000,311.500,95.790,29.610,1499.000,328.000,104.600,33.120,263.000,79.700,24.390,8.108,354.400,110.000,35.060,12.030,hard
1306.000,312.900,95.880,29.650,1502.000,328.100,104.700,33.250,263.200,79.910,24.430,8.136,355.900,110.800,35.480,12.130,hard
1309.000,314.400,96.360,29.900,1498.000,328.400,104.700,33.380,265.600,80.560,24.560,8.179,361.800,112.400,35.920,12.320,hard
1313.000,315.100,96.830,30.090,1502.000,329.600,105.000,33.430,265.700,80.960,24.740,8.256,366.600,114.100,36.590,12.540,hard
1318.000,317.200,97.290,30.030,1504.000,328.700,104.400,33.070,267.700,81.360,24.880,8.213,357.600,109.500,34.840,11.810,hard
1304.000,311.400,95.220,29.270,1499.000,326.800,103.900,33.010,261.300,78.660,24.050,8.000,346.200,107.500,34.230,11.690,hard
1303.000,311.500,95.430,29.300,1498.000,326.900,104.100,33.070,260.000,78.930,24.110,8.000,346.800,107.500,34.460,11.770,hard
1303.000,313.300,95.600,29.510,1502.000,327.600,104.000,33.180,259.800,79.360,24.250,8.043,351.200,109.100,34.920,11.940,hard
1306.000,314.200,95.770,29.480,1497.000,327.800,104.200,33.160,263.500,79.640,24.310,8.097,352.900,109.800,35.110,12.020,hard
1309.000,313.700,96.420,29.680,1498.000,328.300,104.400,33.270,263.400,79.670,24.480,8.150,358.100,111.400,35.590,12.200,hard
1313.000,313.000,96.660,29.870,1500.000,328.200,104.800,33.360,264.700,80.350,24.630,8.198,363.000,113.100,36.240,12.370,hard
1318.000,315.400,96.950,30.140,1504.000,329.200,104.700,33.310,267.200,81.340,24.830,8.290,368.700,114.300,36.280,12.240,hard
1315.000,314.000,95.410,29.290,1492.000,326.700,104.000,32.920,263.600,79.510,24.260,8.032,346.800,107.500,34.410,11.700,hard
1304.000,311.100,95.000,29.290,1499.000,326.400,103.800,33.000,259.000,79.210,24.120,8.031,346.900,107.600,34.400,11.740,hard
1306.000,310.800,94.850,29.280,1499.000,327.500,104.200,33.070,261.200,78.990,24.170,8.083,351.100,109.000,35.050,11.930,hard
1309.000,312.900,95.410,29.450,1500.000,327.400,104.100,33.180,264.100,79.670,24.360,8.101,353.500,109.600,35.220,12.030,hard
1310.000,314.500,95.950,29.530,1504.000,327.900,104.500,33.180,264.100,79.640,24.410,8.123,357.600,111.000,35.520,12.190,hard
1314.000,314.300,96.310,29.730,1507.000,329.100,104.800,33.400,264.400,80.050,24.580,8.222,362.400,112.700,36.150,12.370,hard
1319.000,316.000,96.710,29.950,1507.000,329.000,105.100,33.460,266.400,80.500,24.780,8.248,368.000,114.500,36.830,12.580,hard
1324.000,316.800,97.110,29.920,1504.000,328.000,104.100,33.050,267.000,81.380,24.860,8.211,357.300,109.700,34.890,11.870,hard
1309.000,313.500,94.950,29.110,1501.000,326.400,104.000,32.970,262.300,79.110,24.180,8.025,347.600,108.300,34.550,11.790,hard
1307.000,310.600,94.940,29.250,1496.000,326.900,103.800,33.050,261.300,78.680,24.160,8.017,348.200,108.400,34.830,11.930,hard
1309.000,313.300,95.200,29.410,1499.000,327.500,104.100,33.080,258.800,79.360,24.280,8.119,355.500,110.300,35.320,12.050,hard
1310.000,313.500,95.210,29.470,1500.000,327.200,104.000,33.130,262.700,80.040,24.390,8.090,355.600,110.600,35.340,12.140,hard
1313.000,313.100,95.370,29.680,1501.000,326.700,104.500,33.210,262.000,80.140,24.570,8.164,360.000,111.800,35.890,12.310,hard
1316.000,313.900,96.490,29.880,1505.000,328.300,104.900,33.350,265.100,80.520,24.640,8.187,364.800,113.900,36.620,12.510,hard
1320.000,316.900,96.030,29.800,1504.000,327.100,104.100,33.090,267.700,81.230,24.770,8.200,359.400,110.500,35.040,11.840,hard
1307.000,311.600,94.520,29.040,1495.000,326.300,103.700,32.890,259.900,78.640,24.090,8.011,346.400,107.800,34.530,11.710,hard
1305.000,312.600,94.200,29.160,1497.000,325.600,103.600,33.000,260.300,78.710,24.070,8.002,347.300,108.200,34.850,11.880,hard
1306.000,311.100,94.780,29.320,1499.000,326.400,103.700,33.070,260.100,79.400,24.280,8.105,353.600,110.000,35.240,12.010,hard
1308.000,312.100,95.010,29.330,1499.000,326.100,103.700,33.060,263.300,79.740,24.380,8.097,355.800,110.600,35.420,12.120,hard
1309.000,313.700,95.410,29.560,1498.000,327.000,104.000,33.170,261.800,79.960,24.480,8.150,360.700,111.800,36.050,12.290,hard
1312.000,313.000,96.100,29.750,1498.000,327.400,104.500,33.360,266.200,80.550,24.630,8.215,366.100,113.700,36.470,12.510,hard
1317.000,316.400,96.060,29.750,1499.000,326.900,103.900,33.000,268.200,80.990,24.790,8.216,359.600,110.000,34.870,11.850,hard
1304.000,309.800,94.220,29.100,1492.000,325.200,103.400,32.870,258.500,78.700,24.070,8.006,346.400,107.600,34.480,11.730,hard
1300.000,309.800,94.280,29.010,1493.000,325.400,103.600,32.910,259.700,78.260,24.020,7.974,346.600,107.800,34.670,11.810,hard
1300.000,308.800,94.470,29.250,1492.000,325.200,103.600,33.050,261.500,78.830,24.240,8.050,352.700,110.000,35.260,11.980,hard
1301.000,310.500,94.300,29.210,1494.000,325.600,103.600,33.020,263.700,79.200,24.310,8.094,355.100,110.100,35.310,12.040,hard
1302.000,309.800,94.350,29.430,1494.000,326.500,104.000,33.190,260.400,79.640,24.500,8.162,358.400,111.600,35.830,12.240,hard
1307.000,312.300,95.230,29.630,1496.000,326.800,104.300,33.280,263.000,80.640,24.660,8.216,363.800,113.400,36.390,12.450,hard
1310.000,313.400,96.000,29.800,1497.000,327.300,103.800,33.010,269.300,81.020,24.790,8.254,364.000,111.600,35.390,11.920,hard
1299.000,309.500,94.000,28.920,1487.000,326.100,103.200,32.850,258.000,78.780,24.010,7.973,345.500,107.300,34.370,11.670,hard
1293.000,306.900,93.920,28.930,1483.000,323.900,103.100,32.880,258.400,78.400,24.000,7.978,344.800,107.500,34.450,11.710,hard
1292.000,306.000,93.400,29.010,1486.000,324.200,103.200,33.000,259.400,78.990,24.030,8.036,350.400,108.900,34.930,11.870,hard
1293.000,307.900,94.090,29.140,1486.000,324.900,103.400,33.000,261.200,79.590,24.300,8.085,352.100,109.700,35.090,11.990,hard
1294.000,308.400,93.950,29.270,1487.000,324.300,103.700,33.080,262.300,79.350,24.320,8.137,355.400,110.800,35.590,12.190,hard
1297.000,308.900,94.340,29.410,1493.000,325.100,103.800,33.190,263.100,80.370,24.580,8.158,361.800,112.400,36.250,12.350,hard
1302.000,310.900,95.180,29.670,1492.000,325.900,104.400,33.170,265.400,80.530,24.850,8.214,366.900,114.100,36.510,12.330,hard
1301.000,309.900,94.110,29.020,1485.000,324.100,103.200,32.840,264.600,78.920,24.130,7.989,344.900,107.000,34.380,11.700,hard
1287.000,306.500,93.450,28.910,1487.000,323.700,103.100,32.850,258.500,78.130,24.020,7.978,343.200,106.900,34.300,11.660,hard
1286.000,307.100,93.470,28.930,1487.000,323.700,103.300,32.930,259.200,78.810,24.000,7.989,346.800,108.100,34.710,11.830,hard
1288.000,309.000,93.860,29.110,1487.000,324.600,103.500,33.050,261.600,78.860,24.180,8.078,350.600,109.300,34.970,11.960,hard
1291.000,310.300,94.350,29.180,1485.000,324.800,103.500,33.100,263.100,79.200,24.320,8.086,353.300,110.100,35.210,12.020,hard
1293.000,309.800,94.610,29.410,1492.000,325.900,103.700,33.160,264.100,79.560,24.440,8.153,358.400,111.100,35.750,12.250,hard
1297.000,310.600,95.100,29.590,1491.000,326.300,104.200,33.370,265.500,80.410,24.470,8.202,363.300,113.400,36.500,12.420,hard
1302.000,311.300,95.300,29.410,1487.000,325.200,103.300,32.960,265.300,80.600,24.580,8.130,350.300,107.800,34.620,11.700,hard
1286.000,307.400,93.470,28.870,1483.000,324.300,103.600,32.850,259.300,78.710,23.980,7.974,344.600,106.900,34.300,11.660,hard
1285.000,305.500,93.280,28.970,1485.000,324.500,103.400,32.950,258.100,78.190,23.920,7.958,345.200,107.400,34.470,11.800,hard
1288.000,308.700,94.110,29.160,1491.000,324.700,103.800,33.070,257.700,78.950,24.200,8.036,350.800,109.100,34.860,11.870,hard
1289.000,309.300,94.120,29.240,1488.000,326.000,104.000,33.160,260.300,78.860,24.230,8.056,350.500,109.500,35.180,12.010,hard
1292.000,310.100,94.740,29.530,1489.000,326.600,104.100,33.280,261.100,79.330,24.390,8.125,355.600,111.200,35.620,12.170,hard
1296.000,310.500,95.180,29.710,1495.000,326.800,104.500,33.410,267.800,79.620,24.480,8.183,361.700,112.600,36.210,12.380,hard
1302.000,312.300,96.470,29.840,1491.000,326.700,104.100,33.080,265.700,80.440,24.680,8.217,357.400,110.100,35.020,11.800,hard
1290.000,309.400,93.820,29.050,1490.000,325.300,103.900,33.010,259.700,78.570,23.880,7.965,342.400,106.700,34.250,11.670,hard
1287.000,306.200,94.220,28.980,1492.000,325.800,103.900,33.080,256.500,77.880,23.900,7.993,344.500,107.000,34.340,11.750,hard
1288.000,307.400,94.700,29.260,1490.000,325.900,104.000,33.230,258.100,78.840,24.100,8.006,348.800,108.600,34.930,11.940,hard
1292.000,308.600,94.860,29.320,1490.000,326.600,104.100,33.230,261.000,79.130,24.170,8.065,350.700,109.100,35.160,12.010,hard
1294.000,309.200,94.970,29.590,1497.000,326.700,104.300,33.360,261.800,79.640,24.270,8.148,354.600,110.800,35.510,12.180,hard
1298.000,312.400,95.680,29.800,1496.000,326.700,104.500,33.470,262.500,79.910,24.540,8.193,359.700,112.600,36.130,12.390,hard
1303.000,313.200,96.180,29.980,1495.000,327.700,104.900,33.390,264.800,80.060,24.680,8.230,365.900,113.700,36.200,12.190,hard
1300.000,310.900,95.270,29.310,1490.000,326.500,104.100,33.080,260.500,79.140,24.000,8.006,344.700,107.200,34.420,11.710,hard
1291.000,309.400,94.450,29.210,1492.000,325.800,103.900,33.070,257.000,78.070,23.900,7.985,343.200,106.900,34.330,11.670,hard
1291.000,309.900,94.440,29.260,1490.000,326.400,104.200,33.230,256.200,78.320,24.000,7.996,347.500,108.500,34.900,11.890,hard
1295.000,310.600,95.450,29.420,1494.000,326.200,104.500,33.300,260.900,78.810,24.190,8.087,352.000,109.500,35.160,11.960,hard
1298.000,310.700,95.530,29.570,1495.000,327.600,104.500,33.400,261.100,79.040,24.290,8.107,353.200,110.200,35.440,12.130,hard
1302.000,311.900,95.830,29.850,1500.000,328.400,105.000,33.450,262.300,79.830,24.490,8.164,359.900,112.400,36.070,12.320,hard
1307.000,314.000,96.800,30.080,1504.000,330.300,105.300,33.640,264.600,80.370,24.630,8.234,365.400,113.500,36.630,12.540,hard
1313.000,315.000,97.500,30.040,1499.000,328.100,104.700,33.230,265.800,80.760,24.780,8.228,357.600,109.900,34.950,11.820,hard
1299.000,311.700,95.460,29.280,1498.000,326.900,104.700,33.280,260.500,78.100,23.960,8.003,343.700,107.000,34.290,11.740,hard
1298.000,309.700,94.850,29.290,1500.000,327.400,104.300,33.270,259.000,78.270,23.920,7.972,344.000,107.400,34.420,11.810,hard
1300.000,310.800,95.710,29.520,1501.000,327.600,104.700,33.430,259.700,78.580,24.080,8.038,350.200,109.100,35.030,12.000,hard
1305.000,312.800,95.850,29.580,1494.000,328.900,105.000,33.480,259.400,79.480,24.200,8.094,353.400,110.200,35.340,12.070,hard
1307.000,314.400,96.230,29.780,1501.000,328.900,105.200,33.530,261.500,79.450,24.430,8.140,356.700,111.500,35.800,12.320,hard
1312.000,315.900,97.050,29.990,1505.000,329.900,105.500,33.690,262.100,80.420,24.610,8.216,363.500,113.400,36.710,12.530,hard
1316.000,318.600,97.660,30.320,1511.000,330.300,105.600,33.860,266.400,80.540,24.830,8.281,369.800,115.400,37.070,12.730,hard
1323.000,317.800,97.760,30.360,1511.000,329.900,105.400,33.410,269.000,81.290,24.870,8.258,365.300,112.600,35.660,12.080,bogus
1312.000,314.800,96.130,29.470,1502.000,328.300,104.900,33.310,258.200,78.480,24.060,8.024,346.400,108.300,34.620,11.870,bogus
1309.000,313.600,96.030,29.450,1501.000,328.400,104.500,33.360,259.200,78.450,24.030,8.007,347.300,108.300,34.760,11.910,bogus
1310.000,314.700,96.290,29.660,1505.000,329.100,105.100,33.450,260.800,79.110,24.250,8.070,353.900,110.500,35.520,12.160,bogus
1312.000,315.100,96.240,29.720,1504.000,329.200,104.900,33.490,263.500,79.620,24.290,8.103,355.700,110.800,35.770,12.220,bogus
1276.000,305.900,93.270,29.380,1483.000,321.100,102.100,33.070,257.600,76.930,23.430,7.756,352.500,109.100,34.900,11.940,easy
1276.000,305.200,92.860,29.290,1483.000,321.400,101.900,33.050,257.700,77.510,23.470,7.747,352.400,109.600,34.940,11.940,easy
1275.000,304.700,92.890,29.400,1479.000,320.800,102.100,33.080,259.100,77.600,23.510,7.794,354.600,109.700,35.130,12.080,easy
1277.000,305.700,93.660,29.450,1481.000,321.300,102.400,33.150,259.100,78.430,23.670,7.816,358.100,111.600,35.590,12.200,easy
1280.000,307.900,93.750,29.710,1482.000,323.000,102.300,33.270,260.900,78.510,23.760,7.864,364.000,112.800,36.240,12.410,easy
1284.000,308.200,94.140,29.880,1481.000,322.900,102.700,33.410,261.800,79.340,23.970,7.935,367.800,114.300,36.580,12.550,easy
1289.000,307.600,94.780,29.720,1481.000,322.400,102.000,32.930,265.700,79.440,23.900,7.846,353.900,108.900,34.460,11.730,easy
1273.000,301.000,92.240,28.930,1475.000,320.300,101.900,32.830,255.000,76.980,23.240,7.700,343.400,106.400,33.920,11.570,easy
1267.000,299.900,91.390,28.710,1474.000,319.400,101.500,32.700,255.500,76.510,23.190,7.662,342.800,106.200,33.800,11.600,easy
1264.000,300.600,91.800,28.820,1474.000,320.200,101.500,32.800,254.300,76.880,23.180,7.680,346.100,107.300,34.160,11.660,easy
1266.000,301.900,91.520,28.860,1482.000,320.100,101.500,32.860,257.000,76.970,23.280,7.698,346.700,107.200,34.200,11.720,easy
1266.000,302.000,91.840,29.060,1480.000,320.900,101.800,32.990,253.400,77.870,23.380,7.768,349.500,108.500,34.620,11.840,easy
1270.000,303.500,92.040,29.200,1482.000,321.000,102.100,33.060,257.700,77.710,23.580,7.837,354.700,109.800,35.180,12.040,easy
1273.000,304.700,92.920,29.480,1483.000,321.700,102.400,33.200,262.500,78.790,23.770,7.892,359.300,111.600,35.540,12.210,easy
1279.000,306.000,93.550,29.620,1488.000,322.600,102.300,33.340,262.500,79.000,23.900,7.914,363.000,112.600,36.150,12.340,easy
1283.000,305.800,93.670,29.490,1492.000,321.700,101.900,32.950,264.500,78.990,24.020,7.840,351.300,107.700,34.170,11.550,easy
1268.000,300.400,91.500,28.760,1483.000,320.800,101.700,32.870,253.400,76.640,23.180,7.684,340.100,105.200,33.480,11.410,easy
1265.000,300.100,91.430,28.590,1479.000,320.100,101.300,32.760,252.800,76.420,23.160,7.648,338.900,105.000,33.560,11.380,easy
1262.000,299.400,91.180,28.750,1482.000,321.200,101.400,32.830,257.300,76.450,23.240,7.715,342.200,106.100,33.770,11.540,easy
1265.000,299.800,91.970,28.710,1482.000,320.900,101.900,32.830,256.400,77.200,23.380,7.737,343.000,106.700,34.000,11.500,easy
1264.000,301.100,91.390,28.850,1481.000,321.200,102.100,32.940,255.400,77.240,23.370,7.782,346.400,107.500,34.300,11.710,easy
1269.000,302.500,92.260,29.050,1482.000,321.500,102.200,33.130,257.500,77.880,23.630,7.851,350.800,109.200,34.870,11.880,easy
1273.000,303.700,92.840,29.290,1484.000,322.500,102.600,33.240,261.000,78.800,23.810,7.914,356.800,110.500,35.420,12.020,easy
1278.000,305.400,93.050,29.500,1487.000,323.200,103.100,33.370,261.400,78.850,23.960,7.961,359.800,112.100,35.920,12.220,easy
1282.000,307.700,93.930,29.640,1491.000,323.900,103.000,33.280,263.700,79.440,24.100,8.023,363.500,112.200,35.400,11.890,easy
1278.000,303.200,92.090,28.830,1485.000,321.900,102.000,33.070,256.800,77.320,23.410,7.744,339.200,105.500,33.590,11.410,easy
1270.000,301.900,91.980,28.740,1486.000,322.200,102.100,33.040,253.200,76.770,23.350,7.706,338.300,105.100,33.410,11.330,easy
1268.000,302.600,91.390,28.870,1487.000,322.100,102.200,33.040,253.400,76.240,23.260,7.754,340.500,105.900,33.730,11.460,easy
1270.000,302.700,92.100,28.860,1486.000,322.500,102.300,33.020,254.700,77.280,23.480,7.797,341.600,105.900,33.720,11.510,easy
1270.000,302.900,91.890,28.860,1483.000,322.000,102.200,33.080,256.000,77.410,23.390,7.810,343.600,106.500,33.990,11.610,easy
1272.000,303.700,92.350,29.110,1486.000,323.300,102.800,33.160,256.300,77.580,23.590,7.864,348.000,108.100,34.510,11.750,easy
1276.000,304.300,93.170,29.380,1488.000,324.400,102.900,33.360,258.600,78.080,23.800,7.935,353.700,110.000,35.030,11.940,easy
1281.000,306.900,93.700,29.520,1496.000,324.500,103.300,33.480,261.400,78.200,23.970,7.975,356.100,110.800,35.480,12.140,easy
1286.000,308.400,93.880,29.730,1492.000,325.100,103.300,33.290,262.400,78.900,24.100,8.040,359.700,110.800,34.940,11.740,easy
1281.000,305.000,92.580,28.910,1492.000,322.500,102.700,33.180,254.300,77.230,23.490,7.768,338.800,104.800,33.340,11.360,easy
1274.000,303.200,92.050,28.940,1490.000,322.800,102.500,33.150,253.900,76.360,23.390,7.735,336.400,104.300,33.200,11.330,easy
1272.000,303.600,92.010,28.820,1490.000,323.500,102.800,33.150,252.600,77.130,23.350,7.735,339.100,105.100,33.530,11.440,easy
1275.000,303.000,92.270,28.910,1490.000,324.000,102.600,33.140,255.700,76.930,23.440,7.794,339.300,105.600,33.610,11.450,easy
1275.000,304.000,92.630,28.960,1489.000,324.000,102.800,33.280,253.900,77.330,23.480,7.826,342.100,106.200,33.990,11.560,easy
1278.000,305.000,92.730,29.210,1493.000,323.500,103.200,33.430,256.300,77.480,23.570,7.872,345.300,107.600,34.400,11.730,easy
1282.000,305.600,93.360,29.330,1496.000,325.400,103.600,33.570,256.800,78.450,23.810,7.949,351.000,109.100,35.000,11.930,easy
1287.000,308.700,93.560,29.550,1499.000,327.200,103.700,33.630,259.700,78.930,24.010,8.022,355.600,111.000,35.470,12.090,easy
1290.000,308.800,94.050,29.780,1496.000,326.900,104.000,33.700,262.600,79.370,24.170,8.043,359.600,112.000,35.830,12.110,easy
1292.000,307.800,93.680,29.210,1500.000,325.200,103.300,33.280,259.100,78.020,23.630,7.834,337.700,104.800,33.450,11.360,easy
1278.000,303.000,92.420,28.980,1492.000,324.000,103.300,33.190,253.400,76.640,23.270,7.749,334.800,104.000,33.200,11.260,easy
1276.000,305.300,91.910,28.790,1490.000,323.400,102.900,33.240,253.100,76.240,23.340,7.735,335.100,104.200,33.330,11.360,easy
1276.000,304.900,92.600,28.870,1495.000,324.500,103.100,33.260,255.100,76.210,23.450,7.783,338.000,105.200,33.650,11.410,easy
1276.000,305.400,92.470,28.910,1489.000,324.100,102.900,33.260,254.600,76.760,23.450,7.787,338.800,105.200,33.770,11.530,easy
1278.000,304.600,92.970,28.940,1490.000,325.100,103.400,33.350,256.200,77.040,23.590,7.850,343.000,107.100,34.180,11.640,easy
1281.000,308.000,93.230,29.270,1493.000,326.100,103.500,33.510,257.700,77.840,23.730,7.905,349.700,108.900,34.760,11.880,easy
1285.000,308.300,93.740,29.490,1497.000,325.200,103.800,33.550,257.500,78.420,24.000,7.957,353.400,109.900,35.360,12.040,easy
1288.000,308.200,94.210,29.680,1500.000,326.300,104.100,33.720,259.600,78.690,24.110,7.992,357.500,111.400,35.750,12.250,easy
1292.000,311.200,94.740,29.560,1493.000,326.200,103.700,33.340,261.800,79.500,24.120,7.956,347.300,107.000,34.050,11.500,easy
1279.000,305.200,92.840,28.830,1491.000,324.500,103.100,33.260,250.600,76.610,23.340,7.785,335.800,104.500,33.440,11.340,easy
1275.000,305.000,92.490,28.780,1491.000,323.800,102.900,33.200,252.100,76.460,23.350,7.730,335.400,104.300,33.370,11.340,easy
1274.000,303.700,92.370,28.910,1491.000,324.700,103.400,33.260,255.200,76.780,23.370,7.790,339.000,105.400,33.540,11.480,easy
1277.000,305.100,92.280,28.900,1491.000,323.900,103.300,33.360,255.200,77.230,23.380,7.781,339.500,105.600,33.880,11.500,easy
1277.000,305.400,92.740,28.960,1494.000,324.700,103.600,33.440,253.700,77.100,23.540,7.811,340.900,106.600,34.200,11.670,easy
1280.000,306.200,92.990,29.190,1494.000,325.800,103.500,33.490,256.000,77.760,23.620,7.875,347.600,108.300,34.590,11.810,easy
1282.000,307.900,93.900,29.420,1495.000,325.900,103.700,33.570,259.200,78.140,23.860,7.920,351.800,109.500,35.140,12.070,easy
1287.000,307.600,94.290,29.670,1499.000,326.600,104.400,33.720,260.900,78.270,23.950,7.973,356.400,110.800,35.570,12.190,easy
1291.000,308.800,94.540,29.610,1495.000,326.100,103.700,33.430,260.600,78.970,24.030,7.953,350.700,107.600,34.190,11.550,easy
1279.000,305.600,92.530,28.880,1494.000,324.500,103.400,33.330,251.800,76.580,23.230,7.744,335.300,104.300,33.370,11.380,easy
1277.000,304.100,92.610,28.810,1490.000,324.900,103.500,33.370,253.000,76.340,23.280,7.699,334.000,104.300,33.370,11.370,easy
1275.000,304.200,92.550,29.020,1493.000,325.400,103.300,33.460,255.400,76.620,23.290,7.758,339.500,105.500,33.600,11.490,easy
1278.000,303.700,92.850,29.040,1493.000,325.600,103.600,33.480,254.900,76.690,23.350,7.784,340.000,105.600,33.780,11.550,easy
1279.000,305.700,93.140,29.150,1499.000,325.500,103.800,33.600,253.400,76.790,23.500,7.790,342.400,106.900,34.190,11.690,easy
1283.000,306.400,93.810,29.370,1500.000,326.500,104.200,33.730,258.500,77.320,23.670,7.861,347.800,108.600,34.830,11.870,easy
1288.000,308.700,93.960,29.570,1499.000,327.500,104.400,33.940,257.200,78.280,23.810,7.896,352.700,110.000,35.300,12.060,easy
1292.000,309.400,94.300,29.870,1504.000,328.200,104.800,33.960,261.000,78.190,23.960,7.983,357.600,111.200,35.860,12.230,easy
1297.000,311.600,95.230,30.150,1505.000,328.300,104.700,33.920,258.100,78.990,24.110,8.023,361.000,111.400,35.400,11.920,easy
1290.000,308.800,93.650,29.290,1499.000,326.300,103.700,33.500,255.600,76.490,23.350,7.790,337.700,104.900,33.580,11.460,easy
1282.000,305.500,93.250,29.120,1494.000,326.100,103.800,33.580,252.400,76.280,23.270,7.732,335.900,104.300,33.420,11.380,easy
1280.000,305.700,93.130,29.100,1500.000,326.000,103.900,33.600,253.100,76.610,23.240,7.732,338.400,105.500,33.730,11.580,easy
1282.000,305.300,93.050,29.190,1497.000,325.700,104.000,33.700,253.600,76.870,23.460,7.793,341.200,105.700,33.840,11.570,easy
1282.000,306.300,93.560,29.300,1500.000,326.200,104.100,33.670,256.700,76.640,23.480,7.788,343.800,106.800,34.250,11.700,easy
1284.000,307.600,93.720,29.460,1497.000,326.100,104.300,33.770,257.800,77.530,23.610,7.860,347.100,108.200,34.680,11.880,easy
1289.000,308.700,94.120,29.740,1498.000,327.000,104.700,33.930,257.700,77.730,23.850,7.909,352.600,109.700,35.290,12.060,easy
1294.000,309.800,94.990,29.980,1502.000,327.400,104.800,34.130,260.000,78.330,23.990,7.975,357.300,111.500,35.630,12.220,easy
1297.000,312.200,95.700,30.160,1505.000,328.300,105.100,34.190,262.000,78.930,24.050,8.026,361.400,112.400,35.980,12.280,easy
1298.000,312.300,94.920,29.680,1502.000,326.200,104.400,33.720,262.200,78.210,23.640,7.842,340.800,105.800,33.760,11.570,easy
1286.000,305.800,93.910,29.210,1500.000,325.500,104.200,33.670,253.900,76.360,23.330,7.751,338.700,105.000,33.530,11.460,easy
1283.000,306.700,93.790,29.360,1497.000,326.800,104.200,33.770,254.100,76.270,23.320,7.756,338.000,105.400,33.590,11.550,easy
1284.000,307.800,94.080,29.530,1500.000,326.600,104.100,33.830,257.800,77.030,23.440,7.798,341.600,106.200,33.930,11.610,easy
1287.000,306.500,94.020,29.500,1497.000,327.400,104.400,33.900,253.200,76.830,23.470,7.809,341.600,106.300,34.190,11.670,easy
1289.000,307.500,93.920,29.620,1499.000,327.200,105.000,34.020,256.700,77.620,23.630,7.848,345.900,107.700,34.520,11.810,easy
1293.000,308.700,94.680,29.850,1503.000,327.900,104.800,34.090,259.300,77.910,23.700,7.912,350.300,109.400,35.010,12.000,easy
1297.000,310.500,95.230,30.110,1507.000,328.900,105.200,34.170,259.200,78.280,23.910,7.963,355.200,110.700,35.560,12.170,easy
1301.000,312.100,95.470,30.290,1507.000,329.100,105.400,34.260,261.800,78.740,24.080,7.999,359.000,112.100,35.960,12.300,easy
1306.000,312.600,95.930,30.120,1502.000,327.400,104.700,33.940,263.400,79.160,23.960,7.933,345.600,106.800,34.020,11.570,easy
1292.000,309.300,94.220,29.540,1500.000,326.800,104.500,33.870,255.200,76.950,23.400,7.740,337.500,104.900,33.600,11.410,easy
1291.000,308.600,94.170,29.480,1498.000,326.200,104.500,33.780,252.800,76.600,23.330,7.740,336.100,105.000,33.590,11.440,easy
1289.000,308.600,93.850,29.620,1504.000,327.600,104.700,33.890,253.100,77.070,23.360,7.796,340.800,106.100,33.880,11.570,easy
1291.000,311.000,94.500,29.630,1501.000,326.700,104.600,33.980,254.400,77.340,23.510,7.803,341.400,106.200,33.970,11.620,easy
1293.000,309.800,94.610,29.770,1505.000,327.500,104.600,34.060,254.100,77.100,23.570,7.858,345.700,107.200,34.410,11.770,easy
1296.000,310.300,95.030,29.930,1502.000,328.400,105.200,34.240,256.300,77.770,23.650,7.931,349.700,108.900,34.910,11.990,easy
1301.000,311.800,95.550,30.250,1505.000,329.000,105.400,34.340,260.300,78.270,23.900,7.963,354.700,110.500,35.340,12.160,easy
1306.000,312.900,96.120,30.350,1509.000,330.600,105.500,34.400,264.300,78.540,24.040,8.036,359.200,111.800,35.780,12.310,easy
1310.000,315.000,96.460,30.600,1510.000,330.100,105.400,34.210,264.900,79.660,24.130,8.024,354.800,109.100,34.470,11.730,easy
1301.000,311.700,95.130,29.810,1509.000,327.800,105.100,34.050,255.600,76.750,23.410,7.793,338.300,105.500,33.610,11.460,easy
1299.000,310.200,94.640,29.690,1504.000,328.400,104.900,34.000,255.300,76.770,23.420,7.794,337.500,104.900,33.610,11.480,easy
1298.000,309.800,94.590,29.780,1506.000,328.900,105.000,34.100,254.800,76.740,23.470,7.809,341.000,106.000,33.940,11.610,easy
1301.000,311.000,95.090,29.860,1505.000,329.200,105.100,34.170,255.700,77.320,23.500,7.822,340.900,106.500,33.990,11.630,easy
1301.000,312.000,95.320,29.940,1509.000,328.700,105.400,34.250,256.300,77.500,23.550,7.874,344.400,107.400,34.390,11.770,easy
1305.000,313.000,95.850,30.170,1506.000,329.100,105.700,34.310,256.000,77.560,23.760,7.918,349.000,108.800,34.730,11.920,easy
1308.000,314.200,96.340,30.320,1511.000,329.900,105.700,34.480,260.200,77.980,23.890,7.985,352.600,110.100,35.280,12.100,easy
1312.000,315.100,96.660,30.580,1514.000,330.900,106.000,34.600,262.500,79.010,24.110,8.041,358.000,111.300,35.660,12.250,easy
1318.000,317.800,97.360,30.780,1517.000,331.800,106.400,34.460,264.200,79.450,24.250,8.073,360.100,111.300,35.210,11.900,easy
1311.000,314.500,95.780,30.000,1509.000,330.000,105.400,34.190,256.600,77.240,23.580,7.831,339.200,105.900,33.870,11.550,easy
1306.000,313.300,95.340,30.070,1513.000,330.200,105.300,34.260,254.100,77.150,23.410,7.792,338.000,105.300,33.660,11.520,easy
1306.000,311.500,95.440,29.990,1511.000,329.500,105.600,34.310,256.200,77.010,23.530,7.856,341.300,106.600,34.070,11.670,easy
1308.000,313.600,95.900,30.030,1514.000,330.100,105.700,34.260,256.400,77.480,23.650,7.867,342.300,106.800,34.110,11.650,easy
1310.000,314.100,95.550,30.120,1513.000,330.100,105.600,34.350,257.800,77.570,23.720,7.914,345.200,108.000,34.510,11.770,easy
1312.000,314.800,96.180,30.350,1517.000,330.400,105.900,34.490,257.800,78.000,23.830,7.976,350.800,109.300,35.040,11.990,easy
1314.000,315.300,96.940,30.460,1512.000,330.500,105.900,34.550,263.100,78.920,24.060,8.008,354.900,111.200,35.640,12.150,easy
1318.000,317.800,97.290,30.740,1517.000,331.700,106.400,34.680,263.100,79.260,24.250,8.086,360.400,112.400,35.950,12.320,easy
1322.000,319.000,97.300,30.930,1519.000,332.200,106.400,34.670,260.400,80.160,24.300,8.114,364.300,113.000,36.240,12.240,easy
1321.000,317.000,96.570,30.200,1515.000,330.400,105.600,34.270,259.700,78.200,23.750,7.909,341.900,106.500,33.950,11.600,easy
1311.000,314.000,96.070,30.050,1512.000,330.100,105.400,34.350,255.200,77.410,23.530,7.838,339.800,105.600,33.820,11.540,easy
1308.000,312.400,95.400,29.900,1508.000,329.800,105.300,34.260,255.600,76.720,23.520,7.836,341.000,106.100,34.100,11.630,easy
1310.000,313.300,95.600,30.020,1508.000,330.200,105.500,34.270,258.700,77.460,23.650,7.889,344.200,106.700,34.230,11.650,easy
1309.000,313.700,96.130,30.070,1507.000,330.500,105.600,34.270,255.500,77.850,23.660,7.908,344.700,107.300,34.340,11.730,easy
1310.000,314.600,95.730,30.200,1509.000,331.100,105.800,34.330,259.600,78.600,23.790,7.962,348.900,108.700,34.810,11.890,easy
1314.000,315.200,96.700,30.380,1510.000,330.800,106.200,34.530,258.900,78.190,23.990,8.021,353.500,110.400,35.350,12.100,easy
1317.000,316.400,96.760,30.540,1510.000,331.500,106.100,34.620,262.000,79.100,24.160,8.075,356.900,111.400,35.720,12.230,easy
1321.000,317.400,97.360,30.830,1514.000,331.900,106.500,34.610,262.700,79.480,24.330,8.117,362.200,112.800,36.030,12.380,easy
1323.000,317.700,97.310,30.490,1510.000,331.000,105.700,34.290,264.600,79.490,24.150,8.013,348.800,107.300,34.150,11.610,easy
1310.000,314.100,95.980,29.950,1512.000,329.800,105.700,34.250,258.700,77.470,23.620,7.833,340.900,106.000,33.720,11.530,easy
1307.000,314.300,95.670,29.840,1508.000,329.000,105.200,34.120,255.600,77.330,23.550,7.855,339.100,105.700,33.700,11.530,easy
1305.000,312.300,95.570,29.890,1509.000,329.500,105.500,34.100,255.300,77.460,23.640,7.888,342.900,106.700,33.950,11.600,easy
1305.000,312.700,95.720,30.000,1507.000,329.000,105.600,34.220,256.600,77.710,23.740,7.908,342.900,106.900,34.100,11.650,easy
1306.000,313.200,95.860,30.140,1509.000,329.200,105.400,34.270,257.000,78.190,23.850,7.967,347.400,108.100,34.590,11.810,easy
1307.000,314.700,96.270,30.330,1507.000,329.600,105.600,34.380,258.000,78.620,23.990,8.009,352.000,109.600,34.980,11.990,easy
1311.000,316.400,97.100,30.400,1505.000,329.400,106.000,34.400,263.500,79.680,24.190,8.084,357.000,111.100,35.560,12.170,easy
1315.000,316.300,97.050,30.660,1510.000,330.500,106.200,34.540,264.500,79.380,24.400,8.121,361.100,112.200,35.940,12.320,easy
1317.000,318.300,97.570,30.860,1514.000,331.600,106.400,34.340,264.300,79.880,24.440,8.172,363.800,112.700,35.640,12.040,easy
1313.000,315.100,96.210,30.100,1509.000,328.400,105.400,34.120,259.800,78.320,23.830,7.918,341.600,106.300,33.950,11.570,easy
1305.000,314.200,95.720,29.930,1503.000,328.300,104.900,34.190,254.100,77.700,23.640,7.888,341.200,105.800,33.820,11.530,easy
1302.000,313.100,95.660,29.960,1504.000,328.200,105.300,34.190,257.500,76.920,23.650,7.925,343.300,106.800,34.170,11.670,easy
1303.000,313.100,95.690,30.010,1501.000,328.400,105.100,34.170,257.000,77.970,23.810,7.940,343.500,107.300,34.210,11.700,easy
1303.000,312.600,96.100,30.080,1499.000,328.600,105.200,34.230,257.400,77.980,23.800,7.953,346.800,107.900,34.550,11.750,easy
1304.000,313.700,96.020,30.200,1503.000,329.100,105.500,34.280,259.100,78.570,24.060,7.996,351.000,109.200,34.960,11.940,easy
1307.000,315.000,96.470,30.430,1503.000,329.500,105.800,34.380,260.800,79.010,24.130,8.081,355.600,110.600,35.480,12.120,easy
1311.000,315.400,97.740,30.560,1504.000,329.900,105.900,34.380,262.300,79.300,24.340,8.125,359.500,111.700,35.850,12.230,easy
1314.000,318.300,97.480,30.790,1506.000,330.000,106.200,34.350,267.200,80.090,24.470,8.160,361.800,111.400,35.490,11.930,easy
1309.000,315.100,96.140,30.270,1504.000,328.800,105.600,34.170,259.000,77.610,23.870,7.941,341.900,106.600,33.940,11.590,easy
1305.000,313.400,95.980,30.130,1503.000,328.300,105.300,34.150,259.600,77.820,23.770,7.912,342.200,106.200,33.950,11.580,easy
1303.000,313.500,96.140,30.130,1504.000,329.000,105.400,34.260,257.300,77.950,23.740,7.944,344.900,107.500,34.350,11.710,easy
1306.000,314.300,96.610,30.270,1500.000,328.800,105.500,34.220,257.000,77.890,23.860,7.960,346.900,107.800,34.340,11.730,easy
1306.000,313.000,96.520,30.310,1504.000,329.400,105.300,34.310,260.700,78.330,23.970,7.999,348.400,108.400,34.810,11.870,easy
1308.000,314.700,96.900,30.490,1507.000,329.100,105.800,34.400,260.900,78.490,23.990,8.064,353.500,110.300,35.330,12.080,easy
1311.000,316.200,97.480,30.720,1502.000,330.700,106.200,34.550,261.900,78.920,24.250,8.100,359.100,111.700,35.820,12.220,easy
1315.000,317.800,98.040,30.920,1511.000,330.400,106.200,34.520,263.800,79.630,24.360,8.175,363.000,112.700,36.230,12.400,easy
1320.000,319.000,98.050,30.970,1506.000,330.500,106.000,34.320,265.500,80.190,24.530,8.173,359.000,110.300,34.990,11.840,easy
1311.000,314.800,97.070,30.350,1504.000,329.000,105.600,34.250,257.300,77.870,23.780,7.923,343.900,106.500,34.070,11.620,easy
1308.000,313.300,96.310,30.210,1501.000,327.800,105.500,34.220,256.100,78.110,23.720,7.920,342.700,106.700,34.130,11.600,easy
1305.000,313.000,95.980,30.370,1504.000,328.500,105.500,34.270,258.400,77.880,23.750,7.942,346.600,107.900,34.320,11.710,easy
1307.000,313.500,96.940,30.400,1505.000,328.600,105.600,34.280,255.400,78.190,23.860,7.970,346.700,107.800,34.380,11.740,easy
1307.000,315.000,96.410,30.450,1503.000,328.800,105.800,34.370,257.500,78.390,23.870,7.993,349.000,108.400,34.660,11.840,easy
1310.000,314.400,97.170,30.680,1508.000,330.300,106.000,34.480,259.600,78.800,24.120,8.037,353.100,109.900,35.110,12.010,easy
1313.000,316.500,97.740,30.830,1505.000,330.600,106.300,34.530,260.000,79.350,24.200,8.118,357.700,111.200,35.570,12.160,easy
1315.000,317.400,98.100,31.040,1510.000,330.000,106.500,34.620,261.100,79.210,24.390,8.159,361.700,112.600,36.110,12.300,easy
1319.000,320.000,98.370,30.800,1504.000,330.000,105.800,34.330,265.200,79.990,24.160,8.061,348.700,107.200,34.210,11.630,easy
1307.000,315.000,96.710,30.310,1504.000,328.700,105.800,34.210,257.100,77.500,23.670,7.917,340.500,106.100,33.720,11.520,easy
1304.000,313.500,96.600,30.180,1501.000,329.100,105.300,34.180,257.100,77.190,23.730,7.900,339.700,105.800,33.770,11.550,easy
1303.000,313.400,96.890,30.360,1501.000,328.500,105.500,34.290,257.700,77.520,23.720,7.935,343.900,106.400,33.970,11.600,easy
1304.000,314.600,96.620,30.350,1508.000,328.500,105.800,34.320,255.700,77.700,23.720,7.968,344.600,107.000,34.050,11.630,easy
1306.000,314.600,96.960,30.490,1504.000,328.200,105.900,34.390,259.800,78.010,23.820,8.004,346.900,107.900,34.350,11.780,easy
1309.000,315.700,96.620,30.680,1504.000,329.700,105.900,34.430,259.200,78.600,24.080,8.062,350.800,109.100,34.880,11.950,easy
1312.000,315.900,97.850,30.830,1507.000,330.300,106.300,34.560,261.600,78.860,24.210,8.091,355.500,110.600,35.290,12.100,easy
1317.000,318.200,98.270,31.000,1513.000,330.800,106.500,34.650,262.200,79.240,24.320,8.148,359.600,112.000,35.730,12.240,easy
1319.000,319.800,97.830,30.720,1507.000,329.100,105.800,34.340,263.300,79.440,24.070,8.024,344.200,106.700,33.850,11.550,easy
1308.000,314.300,96.740,30.400,1504.000,329.000,105.700,34.300,258.100,77.940,23.660,7.898,340.700,105.500,33.620,11.440,easy
1308.000,312.400,96.940,30.340,1505.000,329.300,105.600,34.380,254.900,77.340,23.690,7.898,340.200,105.700,33.770,11.490,easy
1309.000,315.000,96.530,30.440,1508.000,329.600,105.900,34.240,256.900,78.010,23.810,7.977,343.100,106.300,34.010,11.590,easy
1310.000,313.800,97.450,30.540,1505.000,329.400,105.800,34.370,257.300,77.780,23.820,7.998,344.400,107.000,34.090,11.710,easy
1311.000,315.500,97.340,30.700,1510.000,329.100,106.300,34.550,258.300,78.220,23.890,8.012,347.700,108.300,34.430,11.800,easy
1315.000,317.400,98.010,30.890,1513.000,330.700,106.400,34.580,258.800,78.720,24.120,8.103,352.400,109.500,34.930,11.970,easy
1320.000,318.100,98.070,31.080,1517.000,331.200,106.400,34.640,262.800,79.100,24.320,8.147,357.100,110.900,35.400,12.150,easy
1323.000,320.100,98.730,31.310,1516.000,331.400,106.900,34.750,261.400,79.460,24.450,8.183,360.600,112.100,35.740,12.170,easy
1324.000,319.200,98.380,30.750,1511.000,330.000,105.900,34.400,262.700,79.040,24.020,8.032,342.800,106.500,33.930,11.530,easy
1315.000,316.700,97.550,30.550,1509.000,330.100,106.300,34.290,256.200,77.790,23.800,7.958,340.400,106.200,33.770,11.480,easy
1315.000,314.700,97.250,30.560,1512.000,329.300,106.000,34.390,256.400,77.730,23.710,7.960,341.800,106.500,33.900,11.620,easy
1318.000,316.500,97.680,30.740,1511.000,329.900,106.300,34.530,257.300,78.350,23.830,8.019,344.500,107.000,34.070,11.660,easy
1317.000,318.000,97.890,30.860,1513.000,330.100,106.400,34.530,257.400,78.100,23.930,8.027,345.800,107.800,34.530,11.730,easy
1319.000,317.700,97.990,30.980,1518.000,331.100,106.400,34.610,259.500,78.580,24.110,8.068,350.400,108.900,34.670,11.870,easy
1324.000,318.200,98.700,31.090,1516.000,331.700,106.400,34.710,260.200,79.020,24.230,8.112,354.300,110.200,35.220,12.050,easy
1327.000,320.900,98.930,31.420,1515.000,331.900,106.900,34.810,263.200,79.930,24.380,8.171,359.400,111.400,35.590,12.170,easy
1332.000,322.000,99.130,31.100,1516.000,331.400,106.200,34.390,262.200,79.200,24.260,8.072,345.500,106.900,33.900,11.550,easy
1321.000,317.200,97.480,30.690,1513.000,331.500,106.300,34.520,258.500,77.820,23.770,7.969,340.400,105.900,33.710,11.480,easy
1321.000,317.100,97.950,30.710,1512.000,330.000,106.200,34.530,257.800,77.750,23.780,7.950,341.900,106.500,33.840,11.570,easy
1322.000,318.600,97.840,30.920,1514.000,331.200,106.400,34.490,259.900,78.430,23.980,8.006,345.000,107.200,34.060,11.660,easy
1324.000,319.000,98.190,30.940,1513.000,331.700,106.500,34.650,258.700,78.130,23.960,8.051,346.500,107.700,34.340,11.730,easy
1326.000,320.600,98.700,31.040,1512.000,331.600,106.700,34.670,258.400,78.580,24.120,8.086,349.600,108.800,34.840,11.880,easy
1330.000,321.500,98.670,31.230,1521.000,332.500,106.700,34.860,262.300,79.000,24.280,8.140,355.000,110.500,35.270,12.050,easy
1333.000,322.100,99.680,31.470,1523.000,332.700,107.100,34.940,263.500,79.380,24.470,8.167,359.300,111.700,35.640,12.230,easy
1337.000,322.700,99.160,31.240,1519.000,331.900,106.600,34.530,262.700,79.860,24.270,8.077,345.800,106.700,33.970,11.590,easy
1326.000,319.300,98.400,30.840,1516.000,331.000,106.200,34.490,258.900,77.760,23.780,7.975,339.500,105.800,33.790,11.480,easy
1323.000,318.200,98.170,30.750,1511.000,330.700,106.400,34.500,257.600,77.430,23.810,7.957,340.500,106.400,33.800,11.530,easy
1325.000,318.500,98.000,30.830,1514.000,331.300,106.600,34.460,257.200,77.960,24.000,8.002,344.000,106.900,34.040,11.610,easy
1325.000,319.200,98.260,30.820,1510.000,330.600,106.500,34.520,258.700,77.840,23.990,8.009,344.500,107.600,34.250,11.680,easy
1327.000,319.900,98.710,31.070,1516.000,331.300,106.500,34.610,258.300,78.210,24.060,8.053,349.300,108.700,34.700,11.850,easy
1329.000,320.700,98.500,31.190,1515.000,331.100,106.600,34.770,260.400,78.900,24.160,8.137,354.000,110.000,35.140,12.020,easy
1332.000,321.600,98.890,31.310,1519.000,332.000,107.100,34.720,263.600,79.300,24.420,8.152,358.000,111.400,35.610,12.210,easy
1335.000,321.400,99.360,31.220,1520.000,331.700,106.400,34.440,262.000,79.910,24.340,8.091,347.400,107.300,33.980,11.600,easy
1323.000,318.500,98.080,30.720,1513.000,331.100,105.900,34.440,257.300,77.530,23.780,7.954,339.700,105.600,33.560,11.490,easy
1320.000,316.500,97.590,30.540,1508.000,330.000,106.100,34.360,258.100,77.590,23.760,7.913,339.200,105.600,33.700,11.510,easy
1321.000,317.300,97.520,30.720,1512.000,330.800,106.300,34.480,256.700,77.650,23.860,8.006,343.200,106.600,33.950,11.600,easy
1322.000,318.400,98.080,30.730,1512.000,330.500,106.200,34.480,258.400,77.750,23.920,7.980,344.600,107.000,34.180,11.650,easy
1324.000,318.400,98.050,30.860,1512.000,330.800,106.500,34.560,258.100,78.450,23.960,8.021,348.200,107.900,34.590,11.790,easy
1325.000,320.200,98.340,31.010,1514.000,331.400,106.700,34.630,257.500,78.470,24.060,8.092,351.400,109.600,35.000,11.990,easy
1328.000,321.500,98.950,31.200,1515.000,331.100,106.800,34.740,261.400,79.130,24.230,8.126,355.800,110.600,35.370,12.140,easy
1333.000,322.000,99.180,31.360,1513.000,331.700,106.600,34.670,264.600,79.310,24.520,8.162,359.100,110.600,35.090,11.820,easy
1327.000,319.600,98.020,30.670,1511.000,331.100,106.100,34.410,257.500,78.000,23.740,7.959,342.000,105.900,33.770,11.510,easy
1321.000,318.400,97.530,30.620,1508.000,330.100,106.200,34.400,255.600,77.750,23.680,7.914,339.500,105.400,33.650,11.460,easy
1320.000,318.200,97.630,30.640,1509.000,329.500,106.200,34.470,256.900,77.360,23.640,7.925,340.800,106.500,34.110,11.580,easy
1321.000,319.400,97.700,30.730,1509.000,329.600,106.300,34.490,256.700,77.940,23.760,7.937,342.800,106.800,34.010,11.660,easy
1322.000,318.300,97.780,30.800,1510.000,330.900,106.300,34.610,256.900,77.980,23.860,8.000,346.800,107.300,34.370,11.760,easy
1323.000,319.900,97.800,31.070,1510.000,331.300,106.600,34.670,260.300,78.180,23.990,8.042,351.300,108.800,34.910,11.950,easy
1328.000,321.000,99.150,31.310,1517.000,331.600,106.800,34.770,260.400,78.770,24.190,8.087,355.500,110.800,35.280,12.150,easy
1331.000,322.200,99.560,31.470,1516.000,333.100,107.000,34.940,260.800,79.510,24.380,8.132,360.100,111.800,35.790,12.290,easy
1335.000,323.700,100.000,31.620,1515.000,332.500,106.700,34.640,262.700,79.900,24.430,8.175,355.900,109.800,34.610,11.760,easy
1325.000,319.800,98.040,30.870,1512.000,330.300,106.400,34.520,258.800,78.160,23.750,7.929,342.300,106.300,33.980,11.590,easy
1322.000,318.600,98.250,30.880,1509.000,331.100,106.400,34.550,257.300,77.030,23.700,7.907,341.300,106.300,33.860,11.580,easy
1321.000,318.400,98.250,30.860,1507.000,330.800,106.800,34.590,255.800,77.700,23.730,7.965,344.500,107.100,34.250,11.690,easy
1323.000,319.600,98.610,30.950,1513.000,331.800,106.400,34.590,259.200,77.990,23.930,7.991,347.000,107.400,34.420,11.730,easy
1323.000,320.700,98.920,31.040,1516.000,331.300,106.300,34.640,259.900,77.820,23.930,8.001,349.500,108.600,34.720,11.860,easy
1326.000,321.500,98.660,31.300,1512.000,331.400,106.800,34.820,261.000,78.840,24.120,8.079,354.600,110.200,35.330,12.090,easy
1329.000,323.100,99.320,31.550,1515.000,332.000,106.800,34.920,262.300,79.220,24.300,8.129,359.500,111.800,35.880,12.300,easy
1333.000,323.000,99.880,31.630,1520.000,332.500,107.300,34.990,264.600,79.660,24.440,8.184,363.700,113.100,36.200,12.430,easy
1337.000,323.400,100.800,31.880,1518.000,332.700,107.200,34.810,265.800,80.290,24.540,8.226,362.300,111.600,35.420,11.970,easy
1329.000,320.400,99.180,31.140,1514.000,331.300,106.700,34.610,256.200,78.130,23.830,7.979,344.900,107.400,34.340,11.750,easy
1324.000,320.100,98.930,31.020,1516.000,330.800,106.600,34.610,255.800,77.630,23.870,7.956,345.000,107.300,34.330,11.710,easy
1324.000,320.900,98.620,31.120,1512.000,331.700,106.900,34.700,258.700,77.900,23.890,7.966,347.800,108.500,34.760,11.850,easy
1326.000,320.400,99.310,31.320,1507.000,331.600,106.700,34.740,262.200,78.360,24.010,8.015,349.100,108.700,34.630,11.950,easy
1326.000,320.100,99.350,31.350,1515.000,331.500,106.800,34.780,261.600,78.580,24.060,8.034,352.200,109.700,35.040,12.020,easy
1328.000,322.700,99.630,31.500,1514.000,331.900,107.300,34.940,261.600,79.060,24.250,8.070,356.500,111.100,35.590,12.220,easy
1332.000,322.400,100.100,31.780,1516.000,331.700,107.300,34.970,263.800,79.530,24.380,8.138,362.000,112.300,36.070,12.390,easy
1336.000,323.300,100.500,31.950,1516.000,332.900,107.600,35.020,267.300,79.920,24.460,8.182,365.200,114.000,36.540,12.530,easy
1339.000,326.200,100.600,31.870,1517.000,331.800,107.100,34.790,265.200,80.560,24.510,8.138,357.100,110.100,34.880,11.900,easy
1328.000,320.500,99.440,31.310,1516.000,331.200,107.000,34.720,257.900,78.380,23.860,7.983,346.900,108.200,34.490,11.770,easy
1325.000,321.700,99.200,31.170,1512.000,332.100,106.500,34.710,260.600,78.300,23.820,7.954,346.700,108.000,34.620,11.890,easy
1325.000,320.300,99.700,31.360,1510.000,330.500,106.700,34.720,260.200,78.000,24.020,8.024,350.800,109.000,34.960,11.960,easy
1325.000,322.100,99.450,31.460,1509.000,332.000,106.600,34.800,259.800,78.480,24.080,8.016,351.400,109.400,35.060,12.020,easy
1326.000,320.700,99.880,31.480,1515.000,331.100,106.900,34.780,260.500,78.820,24.100,8.067,355.000,110.800,35.480,12.180,easy
1329.000,321.000,99.940,31.740,1513.000,331.500,107.200,34.970,262.900,79.050,24.240,8.082,360.400,112.200,36.070,12.320,easy
1332.000,323.300,100.800,31.960,1514.000,332.300,107.300,34.990,263.700,79.730,24.450,8.182,364.600,113.600,36.520,12.500,easy
