A-DC1,A-DC2,A-DC3,A-DC4,A-DC5,A-DC6,A-DC7,A-DC8,B-DC1,B-DC2,B-DC3,B-DC4,B-DC5,B-DC6,B-DC7,B-DC8,condition
1241.000,217.300,31.160,4.474,984.700,149.800,17.750,2.581,156.300,25.500,4.838,1.104,336.900,58.890,11.460,2.414,baseline
1215.000,213.700,30.330,4.368,975.000,149.400,17.610,2.547,151.200,25.210,4.786,1.094,333.600,58.310,11.350,2.400,baseline
1208.000,210.500,30.330,4.424,978.100,148.400,17.660,2.535,152.200,25.120,4.754,1.091,334.500,58.310,11.370,2.379,baseline
1211.000,214.400,30.780,4.306,983.400,149.300,17.480,2.556,149.400,25.410,4.772,1.091,336.300,59.220,11.470,2.413,baseline
1213.000,211.400,31.020,4.356,979.000,149.600,17.540,2.555,154.500,24.960,4.770,1.087,336.200,58.500,11.470,2.435,baseline
1215.000,212.200,30.610,4.357,978.900,149.600,17.780,2.569,154.300,25.180,4.811,1.093,338.200,59.040,11.630,2.450,baseline
1221.000,213.200,30.720,4.415,978.000,150.500,17.590,2.545,150.800,25.730,4.836,1.092,342.600,60.110,11.610,2.483,baseline
1233.000,215.700,31.350,4.410,1002.000,152.700,18.290,2.552,154.000,25.680,4.786,1.120,354.700,62.560,12.390,2.610,baseline
1305.000,231.700,33.050,4.560,1033.000,157.400,18.750,2.564,167.600,27.050,4.907,1.136,408.100,71.310,13.440,2.779,baseline
1355.000,234.900,33.170,4.659,1036.000,156.700,18.620,2.619,175.500,28.360,4.970,1.136,419.200,74.480,13.830,2.852,baseline
1342.000,233.500,33.340,4.670,1032.000,156.300,18.570,2.665,176.200,29.150,5.180,1.182,398.100,70.640,13.060,2.629,baseline
1289.000,224.800,32.740,4.512,1016.000,154.200,18.520,2.631,169.000,28.230,4.929,1.119,355.200,64.070,11.960,2.434,baseline
1261.000,219.200,31.510,4.484,1001.000,153.500,18.190,2.588,162.800,27.820,4.947,1.118,350.200,63.150,11.930,2.446,baseline
1249.000,220.300,31.870,4.467,997.400,153.000,18.020,2.602,160.500,28.010,5.015,1.103,351.900,63.730,12.200,2.457,baseline
1246.000,221.000,31.460,4.459,995.500,152.600,17.870,2.621,161.200,27.740,5.022,1.106,351.500,63.330,11.970,2.463,baseline
1241.000,219.100,31.550,4.359,992.200,151.700,17.830,2.565,156.500,27.770,5.083,1.115,350.100,63.880,12.030,2.493,baseline
1241.000,218.900,31.590,4.441,989.600,151.800,17.970,2.602,165.700,27.570,4.999,1.122,354.900,64.430,12.100,2.566,baseline
1246.000,220.200,32.010,4.515,994.200,152.000,18.150,2.627,163.300,27.980,5.105,1.133,357.900,65.040,12.300,2.583,baseline
1253.000,221.600,31.900,4.504,997.200,153.200,18.100,2.595,162.100,27.350,5.059,1.125,358.000,65.130,12.410,2.584,baseline
1256.000,221.400,32.360,4.579,994.100,153.000,18.040,2.600,161.700,27.390,5.057,1.129,359.300,64.710,12.400,2.627,baseline
1268.000,224.300,32.310,4.549,1002.000,152.800,18.110,2.581,163.300,28.090,5.037,1.143,357.700,64.690,12.320,2.547,baseline
1252.000,220.000,32.320,4.484,988.600,152.400,18.150,2.626,163.600,27.620,4.948,1.121,342.400,61.900,11.800,2.461,baseline
1232.000,218.600,31.430,4.398,988.700,151.200,18.070,2.571,160.200,27.110,4.938,1.117,341.800,61.720,11.610,2.459,baseline
1230.000,216.300,31.440,4.438,982.600,151.300,18.120,2.588,156.800,27.220,4.888,1.100,340.100,61.990,11.840,2.455,baseline
1232.000,218.100,31.110,4.422,985.500,151.000,17.780,2.602,158.300,26.930,4.906,1.108,343.200,61.850,11.770,2.460,baseline
1229.000,219.700,31.280,4.454,980.300,150.800,17.850,2.620,157.900,26.840,4.944,1.125,339.000,61.550,11.750,2.448,baseline
1231.000,218.000,31.250,4.439,982.800,151.100,17.970,2.598,158.800,26.860,4.897,1.120,340.700,61.790,11.920,2.482,baseline
1236.000,216.400,31.480,4.476,986.700,150.000,18.150,2.589,157.900,27.000,4.982,1.116,345.100,62.550,11.880,2.520,baseline
1240.000,219.700,32.110,4.454,991.800,151.500,18.100,2.598,154.400,27.190,4.963,1.124,347.800,63.370,12.140,2.583,baseline
1254.000,221.900,32.200,4.515,1001.000,153.000,18.030,2.616,160.900,27.980,5.099,1.165,367.600,66.400,12.830,2.687,baseline
1269.000,223.300,32.400,4.501,995.600,151.800,18.080,2.603,165.100,27.810,5.182,1.155,365.700,65.040,12.240,2.534,baseline
1241.000,217.500,31.320,4.365,984.800,150.400,18.020,2.567,162.200,27.610,5.012,1.123,348.300,63.090,11.970,2.492,baseline
1226.000,216.200,30.770,4.351,980.300,150.000,17.860,2.539,159.600,27.280,4.983,1.124,347.000,63.330,12.000,2.474,baseline
1227.000,217.400,31.420,4.333,981.200,150.000,17.800,2.552,162.600,27.580,5.009,1.125,351.800,63.360,12.050,2.510,baseline
1223.000,215.300,31.000,4.348,979.000,149.400,17.770,2.565,161.800,27.490,5.012,1.139,351.800,63.430,12.060,2.486,baseline
1218.000,214.400,30.670,4.287,976.800,148.300,17.720,2.540,163.800,27.660,5.011,1.138,351.100,63.210,12.180,2.507,baseline
1222.000,216.600,31.110,4.335,975.500,148.300,17.590,2.563,162.200,27.280,5.086,1.129,355.300,64.590,12.270,2.557,baseline
1227.000,214.900,31.250,4.419,971.600,149.400,17.740,2.568,166.000,27.400,5.092,1.143,358.700,64.460,12.380,2.598,baseline
1231.000,216.800,31.500,4.377,973.000,148.100,17.690,2.589,160.800,27.360,5.071,1.155,361.500,65.090,12.440,2.638,baseline
1238.000,218.200,31.490,4.452,983.000,148.900,17.660,2.579,165.800,27.610,5.078,1.146,364.400,65.380,12.690,2.656,baseline
1243.000,217.500,32.010,4.351,978.700,148.900,17.590,2.531,161.100,27.640,5.078,1.150,349.500,62.660,11.900,2.463,baseline
1213.000,214.000,30.750,4.324,969.600,148.600,17.480,2.538,160.700,27.100,4.896,1.137,339.000,61.170,11.630,2.456,baseline
1205.000,211.300,31.090,4.344,967.500,147.300,17.580,2.508,158.600,26.700,4.936,1.118,337.800,60.820,11.630,2.446,baseline
1203.000,212.800,30.780,4.288,968.100,146.800,17.290,2.555,157.000,26.700,4.923,1.127,340.700,61.530,11.780,2.428,baseline
1205.000,211.900,30.690,4.291,965.500,147.000,17.730,2.530,157.900,26.940,4.942,1.127,340.700,61.240,11.800,2.460,baseline
1204.000,212.000,30.970,4.254,970.100,147.700,17.540,2.585,159.400,26.750,4.922,1.129,340.400,61.320,11.770,2.483,baseline
1209.000,213.700,30.500,4.397,971.200,147.400,17.500,2.558,160.000,26.720,4.937,1.148,342.800,61.720,11.900,2.461,baseline
1219.000,215.100,31.060,4.353,969.600,147.500,17.580,2.577,160.100,26.600,5.026,1.140,345.800,62.580,11.870,2.505,baseline
1222.000,213.000,30.930,4.355,977.000,147.800,17.750,2.541,159.300,26.840,5.010,1.130,347.600,62.580,12.040,2.533,baseline
1227.000,217.800,31.480,4.383,969.100,147.700,17.670,2.591,160.300,26.810,5.002,1.148,350.000,63.210,12.190,2.559,baseline
1236.000,217.700,31.620,4.381,981.400,148.700,17.870,2.540,156.400,27.080,5.020,1.146,354.600,63.850,12.280,2.607,baseline
1246.000,220.600,31.920,4.475,975.700,149.400,17.840,2.574,156.200,27.360,5.044,1.157,356.000,63.710,12.300,2.560,baseline
1232.000,216.500,31.190,4.408,972.800,148.800,17.700,2.541,160.800,26.930,4.954,1.126,337.700,60.810,11.720,2.404,baseline
1210.000,211.700,31.130,4.280,967.600,147.400,17.670,2.529,154.900,26.470,4.914,1.113,333.900,60.200,11.500,2.422,baseline
1204.000,213.800,30.580,4.292,963.300,147.300,17.630,2.528,152.300,26.110,4.925,1.115,332.400,60.330,11.580,2.378,baseline
1203.000,212.400,30.590,4.247,961.500,146.300,17.550,2.535,157.400,26.560,4.923,1.118,337.200,61.150,11.700,2.421,baseline
1202.000,209.200,30.220,4.318,972.800,146.600,17.320,2.528,157.700,26.800,4.952,1.121,342.000,62.010,11.850,2.470,baseline
1203.000,211.200,30.070,4.235,969.700,144.900,17.150,2.517,158.500,26.910,4.964,1.125,351.000,62.840,12.110,2.505,baseline
1208.000,211.000,30.150,4.257,970.600,145.500,17.380,2.500,160.600,27.140,4.983,1.132,357.700,64.340,12.250,2.546,baseline
1215.000,212.800,30.800,4.298,972.400,145.600,17.130,2.533,159.500,27.150,4.987,1.142,361.600,64.420,12.330,2.551,baseline
1218.000,212.500,30.540,4.329,967.900,145.400,17.150,2.510,163.100,27.350,5.070,1.154,365.400,65.310,12.640,2.601,baseline
1227.000,213.600,30.840,4.340,975.400,146.000,17.510,2.491,163.500,27.320,5.097,1.173,370.900,66.130,12.750,2.647,baseline
1237.000,213.700,31.020,4.391,977.200,146.800,17.360,2.514,169.500,27.570,5.107,1.157,376.900,66.980,12.930,2.712,baseline
1247.000,217.500,31.820,4.401,974.800,146.600,17.480,2.480,165.700,27.590,5.112,1.180,374.000,65.770,12.550,2.531,baseline
1220.000,212.800,30.750,4.218,971.600,145.700,17.280,2.482,159.100,27.100,4.985,1.107,351.100,62.330,11.890,2.427,baseline
1206.000,210.500,29.990,4.282,963.400,145.700,17.170,2.480,160.600,26.680,4.920,1.113,347.500,62.170,11.980,2.425,baseline
1205.000,212.000,30.440,4.277,964.100,144.900,17.240,2.490,162.300,26.670,4.945,1.126,352.900,62.880,12.050,2.492,baseline
1210.000,211.400,30.540,4.221,968.300,145.500,17.420,2.498,164.000,26.590,4.978,1.136,354.200,63.050,11.980,2.489,baseline
1208.000,210.700,30.280,4.302,961.700,145.900,17.290,2.459,159.100,26.890,4.905,1.128,351.900,63.360,12.040,2.481,baseline
1212.000,214.400,30.530,4.254,968.300,146.000,17.480,2.529,160.100,26.900,4.894,1.141,357.100,63.720,12.150,2.519,baseline
1221.000,214.000,30.740,4.279,963.100,146.100,17.430,2.535,162.600,26.670,4.930,1.134,363.100,64.790,12.420,2.552,baseline
1227.000,215.800,30.900,4.404,970.300,146.600,17.430,2.525,160.800,27.050,5.007,1.149,368.100,65.520,12.580,2.590,baseline
1234.000,215.000,31.300,4.416,973.000,146.900,17.230,2.522,168.000,27.010,5.006,1.167,369.600,65.980,12.640,2.633,baseline
1247.000,218.000,31.370,4.383,980.100,147.800,17.430,2.523,167.100,26.940,5.070,1.139,371.700,65.980,12.610,2.605,baseline
1241.000,215.900,31.040,4.371,967.500,145.400,17.140,2.495,166.200,26.780,5.003,1.105,349.000,61.830,11.750,2.388,baseline
1201.000,211.000,30.210,4.192,949.800,144.200,17.330,2.461,157.700,26.420,4.807,1.103,340.300,60.700,11.550,2.371,baseline
1198.000,210.400,30.150,4.272,960.900,144.600,17.280,2.490,155.300,26.050,4.802,1.096,345.000,62.040,11.820,2.501,baseline
1212.000,213.500,30.900,4.296,954.100,145.600,17.470,2.528,156.500,26.370,4.863,1.125,351.200,62.950,12.030,2.487,baseline
1215.000,214.000,30.840,4.378,969.000,146.700,17.400,2.551,157.500,26.260,4.847,1.129,348.300,62.720,11.960,2.479,baseline
1220.000,214.500,30.890,4.375,972.000,147.000,17.540,2.563,158.900,26.160,4.883,1.114,348.000,62.200,11.950,2.515,baseline
1229.000,216.300,31.300,4.426,969.800,146.500,17.540,2.557,157.500,26.270,4.864,1.131,350.100,62.930,12.080,2.507,baseline
1243.000,219.700,31.630,4.399,978.400,148.200,17.550,2.552,160.000,26.180,4.946,1.132,352.300,63.290,12.010,2.578,baseline
1247.000,217.100,31.610,4.419,968.800,145.800,17.150,2.441,157.600,26.430,4.805,1.125,350.500,62.350,11.950,2.519,baseline
1223.000,213.900,30.580,4.289,944.300,142.300,16.680,2.394,152.800,25.710,4.758,1.085,341.600,61.250,11.780,2.482,baseline
1202.000,210.400,30.240,4.212,933.500,141.800,16.420,2.350,154.000,25.590,4.802,1.079,336.000,60.040,11.470,2.355,baseline
1179.000,207.200,29.380,4.078,921.500,139.700,16.150,2.317,151.600,24.590,4.571,1.047,322.900,57.940,11.130,2.309,baseline
1165.000,204.300,28.980,3.981,919.600,138.800,16.150,2.268,146.600,24.600,4.568,1.039,319.600,57.470,10.950,2.305,baseline
1160.000,203.100,28.860,4.058,909.000,138.600,16.110,2.318,146.400,25.070,4.533,1.039,318.600,58.470,11.110,2.323,baseline
1157.000,202.800,28.710,3.982,909.300,137.500,16.010,2.305,149.900,25.020,4.630,1.053,319.300,57.970,11.020,2.298,baseline
1151.000,201.500,28.420,3.947,909.200,136.900,16.000,2.302,146.600,25.160,4.574,1.040,319.100,58.190,11.140,2.313,baseline
1150.000,201.900,28.520,4.002,909.900,137.400,15.790,2.320,145.200,25.050,4.576,1.040,320.800,58.460,11.260,2.373,baseline
1154.000,205.000,28.980,4.060,904.700,137.200,15.820,2.266,146.100,25.050,4.625,1.052,323.100,59.240,11.350,2.388,baseline
1160.000,204.700,29.110,4.068,909.400,137.000,15.990,2.318,149.400,25.180,4.655,1.052,325.600,59.950,11.440,2.415,baseline
1169.000,205.700,29.020,4.115,906.900,137.700,15.940,2.307,149.300,25.350,4.706,1.067,328.400,60.550,11.590,2.449,baseline
1174.000,206.000,29.370,4.160,905.900,137.400,15.980,2.317,148.900,25.250,4.689,1.067,325.600,59.580,11.300,2.359,baseline
1155.000,203.700,28.720,4.012,903.700,137.300,15.880,2.297,142.300,25.330,4.662,1.038,317.200,58.200,11.020,2.284,baseline
1142.000,199.900,28.480,4.008,897.100,134.900,15.780,2.265,143.100,24.900,4.584,1.042,316.000,57.930,11.030,2.296,baseline
1142.000,199.600,28.820,4.065,897.800,135.900,15.840,2.258,145.200,24.760,4.592,1.052,318.600,58.330,11.240,2.347,baseline
1144.000,200.000,28.710,4.024,900.900,136.400,15.890,2.351,144.600,24.650,4.646,1.046,321.500,58.890,11.270,2.360,baseline
1145.000,202.700,28.830,4.074,897.300,135.400,16.090,2.326,146.200,25.200,4.647,1.057,323.700,59.910,11.390,2.403,baseline
1157.000,204.700,29.320,4.217,902.600,137.100,16.210,2.347,147.300,25.170,4.755,1.071,332.100,60.830,11.680,2.465,baseline
1176.000,208.300,30.070,4.183,923.500,138.200,16.550,2.370,151.900,25.420,4.743,1.086,339.500,61.990,11.940,2.525,baseline
1191.000,208.200,30.020,4.287,928.600,139.100,16.650,2.419,151.400,25.400,4.754,1.084,345.100,63.000,12.140,2.607,baseline
1209.000,212.000,30.830,4.349,937.300,140.700,16.790,2.450,150.000,25.940,4.848,1.097,347.000,63.260,12.190,2.587,baseline
1216.000,214.200,31.190,4.392,941.500,142.900,17.110,2.462,150.600,25.840,4.747,1.085,331.100,60.040,11.530,2.448,baseline
1204.000,212.500,31.240,4.345,945.700,144.800,17.260,2.538,148.000,25.280,4.647,1.069,324.200,59.680,11.370,2.426,baseline
1209.000,214.500,31.300,4.377,952.600,144.000,17.280,2.501,143.700,25.050,4.658,1.067,324.400,59.960,11.540,2.507,baseline
1226.000,216.300,31.440,4.493,954.900,145.700,17.420,2.532,147.900,25.100,4.709,1.081,327.800,60.100,11.490,2.481,baseline
1231.000,218.600,31.340,4.487,965.000,146.800,17.440,2.561,148.600,24.840,4.718,1.084,329.600,60.250,11.620,2.491,baseline
1238.000,220.000,31.830,4.477,975.600,146.900,17.340,2.574,149.800,25.040,4.638,1.079,329.600,60.570,11.580,2.502,baseline
1256.000,221.500,32.290,4.640,977.000,147.700,17.640,2.596,146.700,25.550,4.710,1.085,335.900,61.430,11.990,2.578,baseline
1273.000,226.800,32.440,4.688,984.300,149.800,17.850,2.588,150.300,25.070,4.695,1.093,339.000,61.720,12.080,2.608,baseline
1292.000,226.500,33.140,4.704,994.100,150.500,18.070,2.633,148.300,24.910,4.731,1.105,342.700,62.050,12.060,2.604,baseline
1285.000,227.300,32.820,4.652,992.300,150.300,17.900,2.622,148.000,24.960,4.769,1.089,328.200,59.880,11.500,2.448,baseline
1256.000,221.500,32.460,4.560,984.000,149.400,17.890,2.580,146.300,24.890,4.648,1.071,325.400,59.350,11.490,2.462,baseline
1257.000,222.300,32.310,4.561,986.300,149.500,17.910,2.643,144.000,24.740,4.641,1.074,329.300,60.360,11.700,2.524,baseline
1273.000,223.600,33.250,4.606,988.600,149.800,17.760,2.564,148.100,25.240,4.681,1.058,330.400,60.210,11.680,2.542,baseline
1271.000,225.200,32.600,4.650,988.900,150.800,18.070,2.616,148.300,25.200,4.654,1.074,330.400,60.110,11.710,2.528,baseline
1276.000,225.300,32.990,4.673,993.400,150.400,18.190,2.644,147.300,24.970,4.663,1.067,332.700,60.970,11.880,2.563,baseline
1294.000,227.900,33.600,4.709,1004.000,151.500,18.080,2.635,148.600,24.690,4.718,1.081,340.900,62.290,12.160,2.611,baseline
1308.000,227.700,33.710,4.783,1004.000,151.900,18.200,2.636,148.500,25.540,4.741,1.096,345.600,63.180,12.250,2.644,baseline
1323.000,234.600,34.010,4.874,1009.000,153.000,18.340,2.693,150.000,25.720,4.821,1.105,349.200,64.020,12.350,2.699,baseline
1330.000,234.400,33.960,4.873,1001.000,151.600,18.210,2.655,150.300,25.540,4.756,1.089,333.200,59.970,11.470,2.493,baseline
1287.000,227.400,33.160,4.734,996.800,151.800,18.380,2.661,144.100,24.380,4.578,1.039,324.600,59.020,11.480,2.468,baseline
1284.000,228.700,32.970,4.661,997.500,151.600,18.180,2.646,144.800,24.410,4.533,1.049,323.800,59.080,11.560,2.505,baseline
1296.000,230.800,33.240,4.753,1008.000,151.800,18.400,2.639,143.000,24.150,4.645,1.053,329.000,59.770,11.530,2.537,baseline
1295.000,228.100,33.760,4.797,996.400,152.300,18.210,2.613,143.200,24.480,4.640,1.062,329.800,59.840,11.610,2.512,baseline
1298.000,229.000,33.750,4.769,999.600,152.500,18.090,2.636,147.300,24.610,4.586,1.053,330.600,59.750,11.660,2.516,baseline
1310.000,231.800,34.080,4.782,1008.000,153.400,18.130,2.643,143.600,24.040,4.636,1.062,335.300,60.950,11.820,2.607,baseline
1326.000,233.100,34.730,4.883,1011.000,152.400,18.410,2.692,144.500,24.960,4.626,1.072,342.100,61.350,12.100,2.653,baseline
1340.000,236.100,34.840,4.862,1011.000,154.600,18.340,2.688,147.500,24.570,4.716,1.083,346.400,62.450,12.250,2.720,baseline
1354.000,239.300,35.520,4.954,1022.000,153.800,18.540,2.693,144.500,25.160,4.750,1.092,350.700,63.170,12.230,2.667,baseline
1337.000,235.600,34.310,4.782,1008.000,153.500,18.420,2.638,145.500,24.970,4.611,1.050,327.800,59.640,11.510,2.481,baseline
1304.000,231.900,33.850,4.813,998.900,151.100,18.430,2.658,144.600,24.310,4.549,1.036,326.700,59.030,11.490,2.484,baseline
1303.000,229.900,33.930,4.821,1009.000,153.200,18.200,2.677,142.900,24.360,4.542,1.037,330.700,59.980,11.800,2.576,baseline
1317.000,231.600,34.220,4.811,998.500,152.600,18.230,2.704,143.700,24.490,4.596,1.057,333.700,60.380,11.850,2.588,baseline
1314.000,232.100,34.060,4.806,998.800,152.000,18.460,2.638,146.300,24.270,4.596,1.062,334.000,60.560,11.740,2.582,baseline
1319.000,232.300,34.630,4.847,1014.000,152.100,18.320,2.689,145.100,24.390,4.640,1.072,336.300,61.090,11.930,2.624,baseline
1334.000,235.800,34.440,4.895,1016.000,153.900,18.360,2.656,145.900,24.720,4.623,1.068,345.400,62.720,12.360,2.674,baseline
1350.000,236.900,34.970,4.971,1018.000,155.100,18.360,2.703,150.600,25.200,4.746,1.078,350.600,64.010,12.510,2.728,baseline
1361.000,240.500,35.180,5.028,1018.000,154.100,18.300,2.701,149.000,24.750,4.775,1.085,358.400,65.320,12.740,2.761,baseline
1365.000,239.400,35.200,4.975,1010.000,153.800,18.290,2.662,150.100,25.500,4.714,1.089,342.600,61.310,11.920,2.571,baseline
1320.000,234.200,34.340,4.857,1001.000,152.500,18.290,2.630,146.900,24.470,4.663,1.041,333.700,60.560,11.780,2.553,baseline
1315.000,233.500,34.300,4.883,1001.000,151.900,18.420,2.669,148.000,24.300,4.670,1.060,336.500,61.710,12.060,2.604,baseline
1333.000,234.600,34.560,4.952,1003.000,152.100,18.330,2.659,149.800,25.200,4.638,1.080,343.100,62.200,12.120,2.639,baseline
1330.000,235.000,34.290,4.870,1010.000,152.100,18.310,2.623,146.900,24.710,4.694,1.072,341.400,62.340,12.070,2.614,baseline
1328.000,234.600,34.300,4.867,1010.000,152.000,18.420,2.659,146.800,24.590,4.692,1.064,343.600,62.650,12.060,2.631,baseline
1342.000,236.600,35.030,4.921,1015.000,153.000,18.160,2.699,148.900,24.960,4.707,1.080,349.000,63.520,12.390,2.698,baseline
1352.000,243.300,35.120,4.989,1008.000,152.600,18.510,2.671,150.500,25.240,4.746,1.079,356.100,64.270,12.470,2.754,baseline
1363.000,239.900,35.430,4.983,1022.000,153.700,18.460,2.679,154.100,25.530,4.785,1.091,361.000,65.100,12.780,2.748,baseline
1354.000,236.600,35.000,4.925,999.500,152.400,18.380,2.636,148.200,25.300,4.751,1.071,341.000,61.420,12.000,2.594,baseline
1320.000,233.300,34.610,4.861,1006.000,151.500,18.110,2.630,149.800,24.770,4.677,1.061,336.800,61.200,11.940,2.577,baseline
1322.000,232.800,34.170,4.896,1006.000,152.500,18.330,2.682,148.300,24.630,4.742,1.052,344.400,62.500,12.220,2.665,baseline
1337.000,233.800,34.470,4.884,1007.000,152.200,18.080,2.642,151.600,24.640,4.710,1.071,344.800,62.590,12.220,2.625,baseline
1331.000,235.000,34.900,4.914,1003.000,151.600,18.270,2.628,149.200,25.150,4.662,1.069,345.400,63.150,12.160,2.668,baseline
1336.000,234.800,34.720,4.924,1013.000,152.500,18.300,2.637,148.700,24.610,4.744,1.069,347.300,63.440,12.320,2.639,baseline
1348.000,239.300,34.650,4.999,1012.000,153.100,18.420,2.676,148.500,25.060,4.738,1.065,352.500,64.340,12.600,2.747,baseline
1361.000,242.400,35.510,5.026,1014.000,153.400,18.350,2.645,150.500,25.390,4.709,1.089,356.200,65.600,12.660,2.795,baseline
1370.000,241.000,35.820,5.070,1017.000,153.600,18.520,2.652,150.100,25.710,4.784,1.097,363.400,65.430,12.730,2.758,baseline
1357.000,238.000,34.860,4.967,1007.000,151.300,18.390,2.641,149.100,25.330,4.746,1.053,339.300,61.680,12.050,2.577,baseline
1317.000,234.000,34.890,4.844,1000.000,151.900,18.490,2.657,146.200,24.850,4.611,1.047,336.900,61.480,11.970,2.574,baseline
1317.000,232.900,34.390,4.874,1005.000,152.600,18.250,2.659,143.600,24.340,4.714,1.055,341.700,62.430,12.030,2.674,baseline
1328.000,232.800,34.510,4.873,1000.000,151.700,18.110,2.629,148.000,24.840,4.636,1.058,344.000,62.590,12.220,2.609,baseline
1326.000,233.800,34.800,4.961,998.200,151.200,18.090,2.669,149.300,24.850,4.636,1.051,343.400,62.110,12.200,2.603,baseline
1327.000,235.800,34.760,5.002,994.900,151.600,18.340,2.643,146.100,24.840,4.666,1.061,344.900,62.820,12.180,2.648,baseline
1340.000,236.500,34.680,4.932,1003.000,152.600,18.450,2.647,146.200,24.650,4.744,1.070,347.200,63.810,12.360,2.678,baseline
1350.000,238.400,35.470,4.933,1011.000,152.500,18.240,2.657,150.000,25.050,4.710,1.076,353.600,64.590,12.620,2.714,baseline
1359.000,239.000,35.270,5.043,1018.000,153.400,18.280,2.681,148.900,25.270,4.746,1.074,358.000,65.040,12.770,2.792,baseline
1365.000,241.100,35.300,5.054,1002.000,151.900,18.350,2.676,148.700,24.890,4.700,1.062,344.800,62.530,12.020,2.593,baseline
1321.000,234.100,34.480,4.895,996.500,150.300,18.140,2.633,146.200,24.930,4.635,1.043,334.900,61.250,11.880,2.545,baseline
1313.000,233.300,34.340,4.846,995.100,149.300,18.180,2.638,147.800,24.470,4.592,1.036,334.600,61.690,11.910,2.594,baseline
1321.000,233.300,34.810,4.857,995.900,150.300,18.160,2.638,146.800,24.730,4.641,1.048,339.600,62.100,12.080,2.577,baseline
1321.000,234.000,34.380,4.895,991.300,151.500,18.000,2.641,147.900,24.970,4.635,1.048,340.200,62.520,12.220,2.601,baseline
1321.000,235.700,34.090,4.891,995.600,150.900,18.120,2.655,141.900,24.610,4.616,1.051,338.900,62.540,12.090,2.604,baseline
1330.000,234.600,34.520,4.919,998.200,150.700,18.250,2.665,146.400,24.700,4.644,1.052,346.100,63.010,12.270,2.681,baseline
1342.000,239.500,35.110,5.001,1003.000,151.100,18.150,2.651,148.800,24.830,4.616,1.069,350.300,63.790,12.500,2.740,baseline
1352.000,240.600,35.230,5.010,1002.000,152.800,18.240,2.675,148.000,24.820,4.644,1.056,353.300,64.690,12.660,2.753,baseline
1362.000,241.300,35.160,5.042,1005.000,152.000,18.430,2.666,148.300,25.000,4.717,1.068,356.800,64.760,12.700,2.718,baseline
1345.000,236.700,34.880,5.008,991.500,150.900,18.170,2.632,149.300,24.600,4.643,1.044,338.500,61.850,12.040,2.553,baseline
1314.000,233.100,34.380,4.883,994.400,150.500,18.180,2.593,146.900,24.510,4.605,1.022,334.800,61.410,12.030,2.543,baseline
1313.000,233.800,33.990,4.821,993.900,150.600,18.200,2.661,145.300,24.510,4.561,1.046,338.300,61.860,12.150,2.599,baseline
1318.000,233.000,34.030,4.898,998.200,151.200,17.970,2.634,147.700,24.130,4.603,1.049,341.000,62.530,12.170,2.627,baseline
1317.000,233.700,34.740,4.811,988.700,150.800,18.170,2.611,145.600,24.420,4.575,1.028,340.200,62.440,12.050,2.628,baseline
1319.000,233.500,34.510,4.848,988.600,150.300,18.080,2.632,146.100,24.350,4.652,1.048,341.600,62.770,12.280,2.604,baseline
1328.000,234.600,35.150,4.886,997.700,151.300,18.010,2.648,145.300,24.050,4.620,1.050,346.500,63.360,12.330,2.659,baseline
1338.000,236.400,34.980,4.928,998.900,151.900,17.880,2.621,144.800,24.480,4.676,1.051,348.200,64.220,12.580,2.726,baseline
1347.000,236.700,35.260,4.949,996.500,152.100,18.030,2.625,145.600,24.690,4.680,1.069,352.200,64.820,12.690,2.746,baseline
1347.000,239.700,34.940,4.967,991.700,151.600,18.210,2.635,146.100,24.660,4.644,1.056,342.100,62.760,12.080,2.559,baseline
1314.000,232.600,34.490,4.845,991.500,150.200,18.100,2.625,147.300,24.260,4.605,1.036,336.700,61.540,11.960,2.539,baseline
1311.000,234.300,33.950,4.853,990.300,150.700,18.140,2.643,144.300,24.850,4.590,1.030,337.300,62.490,12.110,2.613,baseline
1317.000,232.600,34.290,4.835,987.800,149.700,17.920,2.624,146.900,24.110,4.560,1.049,341.600,62.790,12.210,2.634,baseline
1313.000,234.400,34.280,4.899,986.100,149.600,18.120,2.649,149.200,24.340,4.596,1.047,339.300,62.570,12.110,2.603,baseline
1313.000,235.700,34.310,4.871,991.900,150.100,17.940,2.628,144.700,24.530,4.594,1.044,341.100,62.720,12.300,2.615,baseline
1320.000,234.100,34.370,4.875,987.400,151.100,18.120,2.603,147.000,24.590,4.618,1.048,344.900,63.130,12.380,2.651,baseline
1326.000,233.800,34.740,4.916,998.800,151.300,18.250,2.646,145.700,24.590,4.633,1.067,347.500,63.860,12.430,2.671,baseline
1335.000,234.900,34.880,4.943,998.100,150.300,18.080,2.611,150.200,25.160,4.674,1.056,349.500,64.350,12.570,2.657,baseline
1327.000,234.200,34.150,4.878,986.900,150.000,17.950,2.617,146.200,24.600,4.599,1.043,336.200,61.740,12.060,2.541,baseline
1300.000,232.800,33.620,4.748,981.500,150.700,18.090,2.598,146.600,24.290,4.523,1.024,331.600,61.270,11.990,2.529,baseline
1297.000,232.600,34.470,4.775,983.300,149.300,17.930,2.631,144.200,24.200,4.526,1.046,334.600,61.780,12.000,2.578,baseline
1302.000,230.400,33.860,4.807,984.100,149.200,18.050,2.629,144.100,23.980,4.483,1.047,337.200,61.560,11.990,2.539,baseline
1301.000,229.700,34.160,4.805,979.800,149.000,18.000,2.646,143.800,24.060,4.571,1.043,337.600,61.530,12.090,2.574,baseline
1302.000,231.600,33.990,4.858,983.000,149.100,18.070,2.620,142.900,24.640,4.612,1.039,338.800,62.380,12.180,2.579,baseline
1306.000,231.500,34.140,4.812,986.200,149.000,17.970,2.643,142.900,24.000,4.600,1.045,341.500,62.630,12.220,2.613,baseline
1312.000,233.800,34.140,4.877,990.300,149.700,18.120,2.635,143.300,24.290,4.607,1.066,345.100,63.130,12.360,2.631,baseline
1318.000,233.400,33.960,4.890,992.100,149.500,17.910,2.610,145.700,24.440,4.671,1.054,346.000,63.290,12.420,2.644,baseline
1324.000,235.000,34.530,4.854,986.600,149.800,17.850,2.627,144.500,24.290,4.662,1.067,343.100,62.720,11.980,2.562,baseline
1296.000,229.700,33.570,4.691,976.400,147.800,18.090,2.623,144.100,24.500,4.462,1.030,329.000,60.780,11.820,2.453,baseline
1284.000,227.900,33.780,4.682,978.200,149.400,17.720,2.630,142.100,23.610,4.496,1.031,329.300,61.410,11.800,2.468,baseline
1283.000,227.400,33.650,4.661,978.600,148.000,18.040,2.637,142.000,24.440,4.523,1.040,332.300,60.610,11.930,2.497,baseline
1283.000,228.000,33.710,4.688,973.100,148.300,17.890,2.601,144.600,23.850,4.536,1.041,331.700,61.280,11.860,2.534,baseline
1280.000,227.000,33.000,4.737,974.500,149.100,17.900,2.625,142.800,23.670,4.516,1.057,332.300,61.220,11.830,2.528,baseline
1283.000,228.100,33.340,4.713,969.300,148.900,17.860,2.610,141.800,23.610,4.518,1.059,334.900,61.720,11.940,2.551,baseline
1289.000,226.900,33.690,4.692,972.700,148.200,17.970,2.672,145.400,23.630,4.658,1.070,336.500,62.150,12.090,2.517,baseline
1293.000,229.500,33.680,4.731,982.900,148.800,17.770,2.656,141.100,24.010,4.539,1.063,339.100,61.980,12.120,2.573,baseline
1297.000,229.300,33.400,4.783,977.700,149.300,17.950,2.605,144.200,24.150,4.576,1.052,340.900,62.740,12.130,2.586,baseline
1302.000,233.300,34.170,4.750,975.900,148.400,17.770,2.660,141.100,24.130,4.555,1.080,343.700,63.010,12.200,2.613,baseline
1304.000,230.500,33.660,4.754,977.200,149.300,17.820,2.627,144.300,23.960,4.532,1.051,332.100,60.890,11.760,2.459,baseline
1275.000,227.400,33.390,4.671,971.700,149.000,17.690,2.610,142.800,23.620,4.441,1.028,326.800,59.860,11.590,2.425,baseline
1269.000,225.200,33.050,4.613,968.900,148.100,17.870,2.621,143.900,23.340,4.477,1.018,327.500,59.960,11.650,2.456,baseline
1270.000,225.300,33.220,4.693,968.000,148.000,17.740,2.619,145.300,23.460,4.464,1.029,329.100,60.320,11.620,2.454,baseline
1268.000,225.100,32.790,4.644,970.400,147.900,17.840,2.628,141.100,22.890,4.413,1.037,328.600,59.730,11.710,2.452,baseline
1269.000,223.900,33.110,4.640,967.300,147.500,17.750,2.645,142.900,23.380,4.438,1.041,328.300,60.040,11.760,2.482,baseline
1273.000,226.400,32.610,4.632,970.200,148.200,17.820,2.620,138.800,23.710,4.427,1.057,330.300,60.830,11.800,2.498,baseline
1279.000,228.700,32.940,4.653,974.100,147.900,17.720,2.622,143.800,23.850,4.516,1.065,333.600,61.130,11.890,2.519,baseline
1283.000,227.500,33.330,4.720,977.200,148.100,17.780,2.621,141.200,23.530,4.487,1.060,334.400,61.240,11.870,2.539,baseline
1289.000,227.500,33.590,4.679,980.400,148.300,17.890,2.639,139.400,23.490,4.488,1.061,336.000,61.630,11.940,2.560,baseline
1295.000,229.600,33.320,4.777,982.000,148.700,17.800,2.689,141.200,23.440,4.523,1.076,340.100,61.780,12.100,2.558,baseline
1296.000,229.600,33.650,4.742,978.900,148.700,18.010,2.600,141.800,23.370,4.520,1.053,331.500,60.120,11.580,2.437,baseline
1270.000,226.200,33.420,4.613,970.600,148.400,17.780,2.640,138.700,23.340,4.489,1.049,324.100,59.180,11.560,2.430,baseline
1264.000,225.600,32.620,4.629,973.300,148.300,17.700,2.624,138.400,23.410,4.385,1.038,322.800,59.350,11.620,2.421,baseline
1265.000,224.800,33.270,4.643,970.900,147.200,17.820,2.638,135.300,23.140,4.424,1.050,326.900,59.680,11.540,2.436,baseline
1264.000,222.400,32.550,4.638,972.000,147.800,17.780,2.647,136.600,23.540,4.448,1.052,324.300,59.300,11.490,2.475,baseline
1265.000,224.600,32.810,4.612,963.000,147.300,17.920,2.634,137.000,22.800,4.408,1.049,327.400,60.050,11.570,2.475,baseline
1269.000,223.800,33.010,4.690,975.300,147.100,17.930,2.626,139.700,23.260,4.470,1.045,327.800,60.490,11.700,2.482,baseline
1273.000,226.500,33.260,4.725,971.300,147.800,17.780,2.658,139.200,23.390,4.425,1.053,329.300,60.220,11.600,2.491,baseline
1277.000,228.200,33.070,4.653,974.600,147.500,17.790,2.632,140.200,23.180,4.487,1.066,330.100,60.320,11.700,2.474,baseline
1283.000,229.400,33.080,4.753,977.300,148.900,17.830,2.627,139.400,23.130,4.468,1.061,333.800,60.770,11.840,2.514,baseline
1287.000,230.700,33.440,4.704,976.400,148.600,17.850,2.685,139.100,23.400,4.450,1.067,331.600,60.280,11.660,2.477,baseline
1272.000,226.000,32.830,4.611,969.600,147.800,17.940,2.619,136.300,23.050,4.404,1.041,323.200,58.860,11.400,2.417,baseline
1259.000,222.600,33.280,4.578,968.300,147.300,17.760,2.668,137.100,23.010,4.384,1.029,321.400,58.870,11.340,2.413,baseline
1259.000,223.100,32.700,4.595,969.300,148.200,17.830,2.646,133.500,23.150,4.370,1.029,322.700,58.650,11.470,2.434,baseline
1260.000,222.900,32.710,4.604,973.400,147.200,17.940,2.636,135.600,22.760,4.405,1.037,322.900,58.840,11.490,2.425,baseline
1259.000,223.200,32.600,4.651,968.100,147.200,17.770,2.635,140.400,23.080,4.362,1.055,323.800,58.740,11.470,2.413,baseline
1261.000,224.700,32.840,4.621,971.800,147.100,17.950,2.614,138.600,22.990,4.406,1.036,323.200,59.300,11.550,2.452,baseline
1266.000,224.400,32.840,4.637,968.400,147.000,17.730,2.629,136.900,23.150,4.395,1.056,325.200,59.510,11.690,2.484,baseline
1270.000,223.500,33.240,4.698,974.200,147.400,18.000,2.649,138.500,22.950,4.398,1.058,329.200,59.950,11.720,2.490,baseline
1278.000,227.100,32.890,4.661,981.700,147.500,17.760,2.672,140.500,23.080,4.402,1.052,329.700,59.870,11.580,2.518,baseline
1283.000,227.000,33.230,4.704,974.100,147.700,17.970,2.658,138.600,23.150,4.407,1.060,330.600,60.300,11.790,2.516,baseline
1291.000,225.500,33.530,4.778,977.900,148.800,17.940,2.677,139.600,22.730,4.409,1.067,335.200,60.080,11.680,2.486,baseline
1275.000,227.100,33.070,4.623,972.300,149.300,17.820,2.649,136.700,22.720,4.362,1.041,319.700,58.160,11.330,2.399,baseline
1257.000,224.700,32.760,4.649,977.200,147.900,17.710,2.612,135.200,22.460,4.383,1.032,318.000,57.940,11.420,2.384,baseline
1252.000,223.100,32.910,4.603,971.500,147.400,17.700,2.641,136.200,22.510,4.338,1.034,318.900,58.160,11.410,2.379,baseline
1254.000,222.400,32.930,4.622,966.300,147.700,17.940,2.646,137.200,22.930,4.306,1.047,318.400,58.070,11.310,2.379,baseline
1254.000,222.900,32.520,4.597,967.000,147.200,17.910,2.653,134.800,22.590,4.355,1.051,317.800,57.980,11.230,2.387,baseline
1255.000,221.700,32.650,4.669,965.500,147.200,17.790,2.646,136.100,22.720,4.373,1.031,318.800,57.920,11.420,2.411,baseline
1261.000,224.500,32.930,4.662,972.200,148.800,17.940,2.652,134.800,22.420,4.337,1.039,320.500,58.320,11.300,2.452,baseline
1266.000,223.800,33.020,4.693,972.300,147.900,17.910,2.647,139.000,22.310,4.412,1.052,323.800,58.800,11.600,2.472,baseline
1273.000,226.300,32.880,4.687,980.900,148.900,17.740,2.647,135.500,22.640,4.331,1.038,324.700,58.990,11.550,2.461,baseline
1279.000,227.300,33.390,4.658,981.900,148.700,17.940,2.702,137.200,22.440,4.375,1.039,327.500,59.170,11.560,2.529,baseline
1287.000,225.700,34.000,4.750,988.800,149.400,17.790,2.683,136.400,22.940,4.380,1.055,329.700,59.870,11.710,2.526,baseline
1296.000,231.200,33.910,4.787,984.500,150.700,17.910,2.666,137.700,22.680,4.378,1.052,329.800,59.400,11.480,2.447,baseline
1274.000,226.500,33.060,4.705,974.100,148.200,17.850,2.675,137.000,22.510,4.358,1.029,316.100,57.390,11.110,2.374,baseline
1255.000,223.100,32.910,4.673,969.500,147.400,17.810,2.641,138.800,22.830,4.314,1.018,316.300,57.180,11.140,2.379,baseline
1251.000,221.400,32.180,4.614,972.800,147.300,17.990,2.689,137.300,22.040,4.366,1.025,316.300,56.870,11.230,2.397,baseline
1253.000,222.400,32.860,4.639,972.400,149.200,17.720,2.658,138.600,22.180,4.301,1.034,315.800,57.160,11.190,2.375,baseline
1250.000,221.800,32.380,4.637,974.300,147.900,17.840,2.674,135.100,22.500,4.331,1.042,315.300,57.010,11.240,2.378,baseline
1253.000,222.800,32.440,4.644,972.200,149.000,17.940,2.644,135.100,21.920,4.320,1.026,317.100,57.060,11.260,2.385,baseline
1259.000,225.700,32.670,4.676,978.600,149.000,17.940,2.655,135.900,21.930,4.269,1.035,319.100,57.410,11.250,2.410,baseline
1266.000,225.600,33.060,4.692,978.600,149.500,17.870,2.664,136.800,22.390,4.349,1.040,320.800,58.170,11.450,2.452,baseline
1271.000,226.000,32.770,4.687,981.700,149.500,18.140,2.671,134.700,22.520,4.352,1.037,323.600,58.270,11.520,2.452,baseline
1278.000,225.300,33.570,4.695,983.000,149.600,17.840,2.669,136.400,22.600,4.324,1.032,325.500,58.410,11.520,2.499,baseline
1286.000,227.600,33.590,4.767,983.200,150.000,18.280,2.668,136.800,22.130,4.355,1.039,327.800,58.920,11.450,2.533,baseline
1296.000,229.600,33.920,4.802,999.200,150.600,18.050,2.706,138.300,22.530,4.431,1.045,331.300,59.500,11.690,2.518,baseline
1308.000,231.000,34.150,4.885,992.300,150.200,17.960,2.707,136.100,22.610,4.428,1.044,331.700,59.960,11.740,2.526,baseline
1293.000,227.800,33.460,4.760,987.200,150.200,18.030,2.639,140.600,22.920,4.378,1.040,321.300,57.590,11.250,2.416,baseline
1264.000,224.300,33.110,4.696,980.100,149.100,18.020,2.652,136.400,22.270,4.333,1.032,317.700,57.200,11.130,2.398,baseline
1260.000,223.700,32.840,4.702,978.300,149.800,18.080,2.653,135.800,22.470,4.292,1.025,315.900,56.990,11.230,2.398,baseline
1261.000,224.700,32.570,4.655,978.600,149.800,17.960,2.693,136.300,22.380,4.381,1.034,318.700,57.390,11.160,2.406,baseline
1259.000,223.100,32.860,4.713,981.500,148.600,17.950,2.688,136.100,22.640,4.355,1.033,317.500,57.490,11.320,2.438,baseline
1260.000,223.500,32.890,4.697,979.900,148.300,17.970,2.672,136.900,22.590,4.321,1.025,319.400,57.070,11.230,2.435,baseline
1264.000,225.500,32.740,4.727,980.800,149.700,18.150,2.696,137.000,22.530,4.371,1.027,321.900,57.490,11.260,2.436,baseline
1271.000,228.600,32.890,4.736,978.000,149.500,18.140,2.679,140.400,22.670,4.379,1.044,322.500,57.920,11.460,2.485,baseline
1278.000,228.400,33.000,4.746,982.800,150.000,18.140,2.688,139.200,22.420,4.381,1.039,325.300,58.800,11.430,2.523,baseline
1284.000,230.300,33.930,4.802,991.700,150.300,18.080,2.678,137.500,22.410,4.380,1.055,325.400,58.600,11.480,2.506,baseline
1293.000,230.000,33.820,4.792,989.900,151.200,18.190,2.700,140.500,22.430,4.395,1.025,329.600,59.270,11.590,2.546,baseline
1296.000,229.500,33.910,4.832,986.600,151.000,18.230,2.698,140.500,23.110,4.441,1.044,323.800,57.860,11.270,2.427,baseline
1268.000,226.800,33.080,4.706,981.800,148.800,18.210,2.640,135.100,22.780,4.354,1.019,317.500,56.930,11.280,2.400,baseline
1260.000,222.200,33.110,4.689,975.700,150.500,17.940,2.667,136.000,22.420,4.377,1.015,315.700,56.560,11.210,2.437,baseline
1263.000,226.000,33.220,4.733,982.900,149.500,17.930,2.671,139.000,22.510,4.349,1.011,317.800,57.140,11.280,2.416,baseline
1262.000,222.900,33.190,4.758,983.700,149.000,18.090,2.647,139.500,22.850,4.354,1.019,318.000,57.100,11.200,2.435,baseline
1262.000,222.800,32.650,4.741,980.400,149.800,18.070,2.691,136.200,22.780,4.311,1.018,319.300,57.360,11.260,2.441,baseline
1269.000,224.900,33.140,4.692,987.000,149.600,18.220,2.697,137.300,22.700,4.395,1.031,321.500,57.920,11.270,2.449,baseline
1276.000,227.000,33.090,4.769,989.900,149.400,18.150,2.718,138.700,22.780,4.400,1.019,324.300,58.030,11.570,2.512,baseline
1282.000,228.300,33.390,4.798,986.500,150.500,18.280,2.670,139.600,22.540,4.421,1.025,327.500,58.820,11.550,2.525,baseline
1289.000,230.300,33.450,4.814,993.800,150.400,18.390,2.666,141.200,22.560,4.466,1.042,329.900,59.090,11.570,2.544,baseline
1298.000,229.200,33.360,4.883,996.300,151.500,18.140,2.701,140.900,22.990,4.475,1.037,331.300,59.340,11.870,2.576,baseline
1308.000,232.800,34.210,4.932,996.500,152.200,18.300,2.694,138.800,23.230,4.463,1.052,335.200,60.210,11.870,2.619,baseline
1313.000,231.500,34.080,4.847,991.800,151.000,18.190,2.663,144.100,23.230,4.516,1.037,329.000,58.710,11.540,2.450,baseline
1275.000,224.900,33.210,4.764,984.600,150.600,18.120,2.643,139.400,23.430,4.475,1.024,319.000,57.360,11.170,2.429,baseline
1264.000,225.400,33.310,4.716,981.000,150.700,18.240,2.685,139.300,22.990,4.401,1.018,319.100,57.120,11.300,2.452,baseline
1262.000,225.200,32.720,4.718,986.000,149.800,18.160,2.639,141.900,22.590,4.373,1.014,319.700,57.710,11.210,2.439,baseline
1262.000,223.700,32.970,4.710,985.500,150.600,18.120,2.630,142.000,22.820,4.407,1.029,319.900,57.710,11.350,2.459,baseline
1262.000,225.100,33.030,4.783,982.500,150.000,18.090,2.640,137.000,23.290,4.430,1.031,322.200,57.630,11.330,2.476,baseline
1267.000,225.100,32.940,4.691,983.700,150.000,18.240,2.653,139.000,22.670,4.405,1.015,324.100,58.080,11.360,2.489,baseline
1273.000,226.500,33.290,4.731,991.400,151.700,18.170,2.686,140.800,23.050,4.487,1.026,326.100,58.780,11.530,2.523,baseline
1281.000,229.700,33.810,4.777,993.000,151.500,18.050,2.707,142.300,23.150,4.424,1.035,328.600,58.950,11.670,2.553,baseline
1288.000,228.300,33.480,4.796,994.700,151.400,18.030,2.706,140.700,23.270,4.482,1.034,332.800,59.530,11.660,2.608,baseline
1296.000,232.000,34.290,4.863,999.600,152.300,18.060,2.694,142.600,23.800,4.536,1.041,334.700,60.020,11.810,2.606,baseline
1305.000,231.400,33.970,4.843,999.800,151.900,18.470,2.670,142.200,23.300,4.523,1.052,336.800,61.020,12.020,2.627,baseline
1316.000,233.400,34.540,4.948,1001.000,152.100,18.440,2.674,144.000,23.940,4.593,1.052,343.300,61.150,12.060,2.644,baseline
1301.000,230.900,33.830,4.813,987.500,151.000,18.340,2.622,145.800,23.640,4.557,1.037,327.000,58.200,11.410,2.467,baseline
1270.000,226.600,32.790,4.736,995.400,150.700,18.100,2.648,140.900,23.450,4.453,1.036,322.900,57.690,11.250,2.470,baseline
1266.000,225.300,33.370,4.764,985.200,149.500,18.350,2.630,141.000,23.230,4.474,1.031,323.400,57.740,11.400,2.491,baseline
1267.000,227.400,33.050,4.782,991.800,150.600,18.070,2.652,141.700,23.320,4.496,1.025,325.100,58.250,11.440,2.500,baseline
1267.000,226.800,32.820,4.709,990.200,150.500,18.200,2.606,143.200,23.520,4.464,1.025,325.200,58.170,11.550,2.489,baseline
1268.000,224.100,32.990,4.689,985.600,151.000,18.050,2.666,139.200,23.190,4.490,1.033,325.000,58.550,11.530,2.490,baseline
1274.000,226.700,33.620,4.776,993.100,150.700,17.950,2.666,141.500,23.770,4.557,1.037,328.500,59.120,11.600,2.530,baseline
1284.000,228.100,33.270,4.771,991.600,150.600,18.240,2.691,141.900,23.270,4.563,1.042,333.400,59.900,11.720,2.576,baseline
1291.000,229.800,33.870,4.887,994.200,151.600,18.240,2.679,142.000,23.970,4.581,1.032,336.100,60.020,11.820,2.595,baseline
1299.000,230.600,33.670,4.875,1001.000,151.700,18.340,2.664,142.900,24.040,4.601,1.059,337.200,60.790,11.980,2.651,baseline
1307.000,232.400,34.250,4.948,1002.000,153.000,18.130,2.678,145.700,23.840,4.599,1.063,343.100,61.230,12.050,2.658,baseline
1318.000,233.200,34.070,4.943,1005.000,152.600,18.160,2.711,148.600,24.050,4.625,1.072,348.100,61.900,12.310,2.730,baseline
1313.000,230.900,33.790,4.896,996.100,152.400,18.220,2.641,147.700,24.070,4.595,1.068,333.300,59.320,11.570,2.516,baseline
1277.000,227.100,33.140,4.788,993.600,151.500,18.170,2.652,147.600,23.770,4.574,1.046,325.400,58.220,11.450,2.501,baseline
1272.000,225.000,33.170,4.829,988.700,151.000,17.940,2.667,143.000,23.690,4.530,1.040,328.400,58.400,11.480,2.516,baseline
1275.000,228.600,33.130,4.771,996.000,151.700,18.250,2.696,140.200,23.830,4.552,1.044,329.200,58.730,11.650,2.514,baseline
1273.000,225.800,33.080,4.783,992.400,151.600,18.220,2.648,145.200,23.250,4.502,1.035,328.200,58.650,11.510,2.526,baseline
1274.000,226.000,33.590,4.824,998.500,151.700,18.060,2.645,144.800,23.490,4.568,1.039,328.500,58.930,11.570,2.547,baseline
1280.000,227.000,33.690,4.825,992.600,151.600,18.130,2.657,145.400,24.050,4.505,1.050,331.600,59.220,11.660,2.595,baseline
1286.000,227.700,33.720,4.814,992.500,151.200,18.260,2.670,145.800,23.960,4.625,1.049,333.800,59.800,11.800,2.575,baseline
1294.000,228.300,34.040,4.871,1005.000,152.100,18.410,2.651,145.300,24.020,4.630,1.063,336.300,60.300,11.870,2.602,baseline
1302.000,229.500,34.010,4.908,999.600,152.200,18.350,2.693,145.400,23.900,4.619,1.055,338.000,61.020,11.930,2.655,baseline
1311.000,232.700,34.350,4.948,1008.000,152.800,18.570,2.682,145.700,24.230,4.732,1.057,340.400,60.880,12.070,2.637,baseline
1297.000,230.500,33.570,4.865,994.600,152.500,18.400,2.681,145.500,23.830,4.517,1.041,329.500,58.560,11.550,2.486,baseline
1273.000,227.300,33.250,4.770,990.900,150.200,18.280,2.668,142.800,23.440,4.580,1.028,325.100,57.930,11.360,2.500,baseline
1270.000,225.500,32.920,4.807,993.700,151.600,18.280,2.681,142.100,23.410,4.567,1.030,323.900,58.180,11.360,2.526,baseline
1273.000,227.400,33.260,4.756,998.600,150.500,18.320,2.656,143.200,23.890,4.560,1.032,328.000,58.810,11.560,2.528,baseline
1271.000,227.500,33.530,4.738,992.800,150.800,18.250,2.653,142.300,23.650,4.513,1.048,327.800,58.670,11.600,2.532,baseline
1271.000,226.200,33.310,4.772,992.900,150.900,18.190,2.651,144.100,23.820,4.530,1.031,327.900,58.580,11.600,2.540,baseline
1279.000,226.400,33.740,4.884,991.400,151.300,18.260,2.676,143.400,23.860,4.549,1.046,330.900,59.340,11.740,2.537,baseline
1287.000,228.300,33.540,4.854,998.100,150.800,18.160,2.681,146.500,23.690,4.541,1.037,333.700,59.960,11.760,2.601,baseline
1294.000,229.100,33.940,4.913,998.400,151.500,18.150,2.706,144.300,23.710,4.615,1.055,336.400,60.250,11.870,2.617,baseline
1300.000,230.900,33.830,4.926,1004.000,153.200,18.370,2.680,142.800,23.820,4.643,1.044,339.200,60.850,11.970,2.643,baseline
1307.000,231.700,34.400,4.987,1005.000,152.600,18.380,2.686,143.700,24.030,4.675,1.051,342.300,61.120,12.090,2.682,baseline
1309.000,231.100,33.770,4.904,993.500,151.200,18.200,2.654,147.600,24.200,4.634,1.055,331.300,59.120,11.670,2.503,baseline
1271.000,225.900,33.310,4.800,990.500,152.100,18.360,2.629,142.100,23.960,4.607,1.032,324.400,58.300,11.350,2.501,baseline
1264.000,224.800,33.250,4.763,990.200,151.500,18.240,2.653,144.800,24.180,4.564,1.026,325.900,58.030,11.400,2.485,baseline
1263.000,224.200,33.380,4.772,983.500,150.900,18.440,2.653,140.700,23.550,4.509,1.030,326.500,58.470,11.580,2.490,baseline
1262.000,223.100,32.960,4.800,991.900,150.400,18.130,2.645,143.100,24.070,4.576,1.037,326.800,58.500,11.570,2.490,baseline
1261.000,224.100,32.780,4.736,990.600,150.500,18.150,2.661,141.400,23.840,4.524,1.035,327.600,58.770,11.610,2.528,baseline
1265.000,224.100,33.210,4.740,994.900,151.400,18.110,2.646,143.600,23.920,4.528,1.036,330.000,59.340,11.560,2.550,baseline
1272.000,227.500,33.230,4.832,990.900,150.400,18.190,2.645,144.800,23.690,4.555,1.035,330.900,59.540,11.780,2.590,baseline
1277.000,226.200,33.590,4.896,993.900,151.500,18.070,2.664,143.700,24.070,4.587,1.048,335.000,60.290,11.890,2.616,baseline
1284.000,228.200,33.720,4.874,993.000,151.400,18.120,2.678,144.000,24.020,4.606,1.067,336.700,60.800,12.010,2.622,baseline
1256.000,224.400,32.440,4.732,987.500,150.200,18.120,2.661,144.700,23.930,4.596,1.033,326.900,58.180,11.450,2.508,hard
1259.000,224.200,32.720,4.721,989.300,150.200,18.340,2.654,145.000,23.900,4.527,1.037,327.500,58.640,11.620,2.547,hard
1257.000,224.200,33.070,4.819,983.700,150.700,18.210,2.648,144.300,23.750,4.576,1.037,328.000,58.460,11.580,2.537,hard
1259.000,225.200,32.990,4.783,982.900,149.600,18.060,2.663,143.800,23.780,4.565,1.038,329.000,59.350,11.660,2.545,hard
1265.000,225.800,33.420,4.750,992.800,150.700,18.110,2.645,143.800,23.900,4.620,1.038,333.000,59.270,11.790,2.580,hard
1271.000,225.800,33.250,4.771,987.300,150.700,17.980,2.650,144.300,24.150,4.638,1.050,335.100,60.100,11.760,2.591,hard
1277.000,226.500,33.520,4.822,995.200,151.500,18.160,2.675,144.200,24.140,4.646,1.060,336.300,60.560,11.940,2.631,hard
1282.000,228.500,33.800,4.855,989.200,152.300,18.100,2.635,148.000,23.820,4.642,1.048,338.000,61.000,12.090,2.629,hard
1292.000,228.500,33.940,4.860,994.300,152.000,18.280,2.688,145.700,24.370,4.618,1.055,340.900,61.240,12.080,2.628,hard
1281.000,229.400,33.270,4.858,997.100,151.100,18.290,2.610,145.000,23.940,4.591,1.042,328.400,59.030,11.650,2.502,hard
1259.000,224.800,33.190,4.776,982.800,150.300,18.180,2.659,138.000,23.880,4.595,1.031,327.800,58.940,11.660,2.513,hard
1256.000,221.500,32.980,4.731,982.700,150.800,18.340,2.649,145.300,24.000,4.533,1.039,327.900,58.730,11.690,2.529,hard
1259.000,223.300,32.880,4.760,985.700,150.500,18.200,2.621,144.700,23.530,4.576,1.025,328.700,59.300,11.760,2.513,hard
1258.000,223.600,33.000,4.753,979.800,149.300,18.330,2.633,143.200,23.870,4.573,1.027,328.700,59.020,11.600,2.517,hard
1258.000,224.300,32.880,4.729,983.600,150.700,18.160,2.677,144.500,23.420,4.521,1.034,329.000,59.190,11.850,2.532,hard
1262.000,226.100,33.040,4.835,985.700,150.800,17.950,2.654,142.600,23.660,4.522,1.037,329.700,60.020,11.900,2.577,hard
1270.000,225.900,33.200,4.791,989.100,150.300,18.310,2.683,142.500,23.710,4.593,1.044,333.600,59.900,12.010,2.609,hard
1274.000,226.400,33.680,4.801,991.000,150.500,18.420,2.670,144.500,23.790,4.597,1.041,336.000,60.470,11.860,2.626,hard
1279.000,225.800,33.410,4.882,991.900,152.100,18.220,2.694,141.800,23.760,4.583,1.044,338.100,60.830,12.020,2.630,hard
1285.000,229.600,33.660,4.880,991.100,151.100,18.300,2.653,142.800,24.550,4.568,1.056,332.200,59.710,11.710,2.549,hard
1259.000,225.600,33.200,4.807,982.300,150.700,18.340,2.668,139.600,23.830,4.509,1.038,326.500,57.960,11.580,2.504,hard
1253.000,224.000,32.870,4.709,983.200,149.600,18.180,2.696,141.100,23.380,4.539,1.039,327.400,58.610,11.540,2.497,hard
1253.000,224.300,33.110,4.711,983.600,149.900,18.380,2.658,142.000,23.340,4.534,1.042,326.000,58.570,11.660,2.528,hard
1254.000,224.600,32.960,4.785,982.600,149.700,18.130,2.696,141.300,23.270,4.582,1.029,327.800,59.080,11.640,2.505,hard
1253.000,222.600,33.110,4.725,988.700,150.100,18.190,2.669,141.500,23.620,4.524,1.028,328.300,58.920,11.600,2.505,hard
1257.000,224.500,33.140,4.738,990.700,150.300,17.990,2.683,142.200,23.670,4.472,1.037,328.800,59.360,11.760,2.547,hard
1262.000,226.600,32.850,4.788,988.300,150.900,18.210,2.710,141.700,24.130,4.579,1.053,331.200,59.660,11.900,2.594,hard
1267.000,225.000,33.720,4.808,985.600,150.800,18.160,2.674,141.600,23.580,4.564,1.045,334.300,60.140,11.850,2.626,hard
1274.000,228.000,34.080,4.839,989.200,151.700,18.420,2.693,143.800,23.690,4.598,1.048,334.000,60.410,11.990,2.614,hard
1280.000,230.100,33.540,4.870,989.500,151.600,18.390,2.692,141.600,23.810,4.544,1.031,338.500,60.770,11.980,2.615,hard
1282.000,227.600,33.760,4.845,993.200,150.800,18.000,2.691,144.600,23.590,4.564,1.046,329.900,58.800,11.660,2.486,hard
1251.000,225.100,32.870,4.747,982.300,149.400,18.370,2.660,138.300,23.440,4.516,1.038,322.000,58.270,11.450,2.461,hard
1244.000,221.800,32.850,4.709,974.800,149.400,18.110,2.637,139.200,23.240,4.522,1.039,323.200,58.250,11.430,2.472,hard
1243.000,222.200,32.940,4.734,981.100,149.700,18.500,2.658,142.400,23.880,4.457,1.041,322.600,58.170,11.420,2.443,hard
1241.000,221.900,32.450,4.668,976.900,149.500,18.110,2.658,140.100,23.600,4.512,1.029,322.100,57.910,11.410,2.459,hard
1242.000,221.900,32.740,4.669,982.700,149.200,18.090,2.692,140.800,23.180,4.453,1.017,321.900,58.050,11.590,2.456,hard
1244.000,221.700,32.850,4.704,979.000,150.300,18.040,2.677,141.200,23.430,4.472,1.019,325.200,58.310,11.440,2.510,hard
1248.000,221.300,32.640,4.749,984.600,149.500,18.080,2.709,138.400,23.400,4.474,1.020,326.400,58.820,11.540,2.512,hard
1253.000,225.100,33.130,4.756,983.500,149.700,18.270,2.660,136.300,23.360,4.493,1.029,328.200,59.210,11.700,2.519,hard
1259.000,224.700,32.900,4.757,980.500,150.800,18.100,2.700,141.700,23.490,4.487,1.044,329.600,59.600,11.740,2.524,hard
1265.000,224.400,33.030,4.788,987.100,150.800,18.090,2.675,142.300,23.720,4.538,1.035,330.800,59.540,11.740,2.564,hard
1270.000,226.300,33.360,4.778,988.800,150.000,18.070,2.679,143.500,23.650,4.490,1.039,327.200,58.130,11.420,2.463,hard
1243.000,219.800,32.820,4.705,978.800,149.600,17.970,2.656,140.200,23.410,4.456,1.012,320.000,57.150,11.230,2.415,hard
1234.000,220.800,32.450,4.661,974.700,149.400,17.910,2.652,141.900,23.320,4.422,1.021,318.000,57.050,11.360,2.425,hard
1232.000,221.600,32.950,4.632,975.500,149.000,17.960,2.666,134.800,23.270,4.421,1.026,319.000,57.390,11.280,2.423,hard
1232.000,219.800,32.410,4.623,978.500,148.900,17.940,2.689,140.600,22.920,4.408,1.006,318.700,57.490,11.370,2.431,hard
1231.000,219.400,32.490,4.609,969.200,148.400,17.910,2.636,139.900,23.140,4.427,1.025,319.600,57.440,11.370,2.445,hard
1235.000,221.900,32.270,4.660,973.000,149.200,18.220,2.654,138.400,23.120,4.454,1.022,320.500,57.630,11.370,2.418,hard
1241.000,222.200,33.060,4.682,977.000,149.500,17.930,2.669,138.300,22.630,4.390,1.036,322.500,58.160,11.420,2.494,hard
1245.000,221.200,32.660,4.690,981.800,150.000,17.920,2.659,141.600,23.180,4.382,1.026,323.600,57.910,11.380,2.514,hard
1252.000,222.500,32.800,4.750,976.900,149.000,18.030,2.668,139.500,23.340,4.485,1.019,325.800,58.430,11.530,2.475,hard
1258.000,223.100,33.290,4.765,988.100,149.600,18.140,2.671,139.800,22.840,4.504,1.033,326.400,58.490,11.590,2.509,hard
1261.000,222.200,32.950,4.700,982.800,149.200,18.030,2.637,144.000,23.580,4.442,1.035,320.000,57.240,11.100,2.416,hard
1238.000,220.000,32.180,4.653,980.600,148.300,18.170,2.646,140.200,23.380,4.393,1.003,315.100,56.200,11.070,2.381,hard
1230.000,220.900,31.960,4.577,969.700,148.100,18.010,2.673,135.000,22.950,4.403,1.006,315.800,56.540,11.020,2.381,hard
1229.000,218.400,32.670,4.587,978.600,149.500,18.120,2.700,137.000,22.760,4.410,1.027,316.200,56.500,11.070,2.381,hard
1229.000,219.700,32.410,4.607,974.400,148.800,18.070,2.644,137.000,22.970,4.376,1.014,315.200,56.890,11.170,2.398,hard
1230.000,220.100,31.740,4.546,975.300,148.300,18.170,2.676,139.100,22.650,4.386,1.028,314.500,56.600,11.100,2.447,hard
1234.000,220.100,32.500,4.575,981.400,150.200,17.990,2.676,137.600,22.610,4.405,1.010,317.600,57.000,11.190,2.430,hard
1239.000,221.700,32.550,4.660,981.000,149.800,17.970,2.698,137.300,22.880,4.375,1.026,321.000,57.530,11.300,2.447,hard
1246.000,223.400,32.380,4.651,984.900,149.600,18.120,2.660,135.200,22.850,4.390,1.021,320.000,57.490,11.370,2.460,hard
1251.000,222.400,33.210,4.734,977.200,150.600,18.080,2.670,136.700,23.290,4.457,1.032,323.000,57.910,11.310,2.489,hard
1256.000,220.400,33.070,4.667,983.000,150.500,18.000,2.693,140.800,23.340,4.483,1.042,319.500,56.890,11.140,2.385,hard
1232.000,221.700,32.290,4.684,977.500,148.600,17.870,2.656,136.100,22.740,4.355,1.013,312.900,55.860,10.990,2.357,hard
1226.000,218.800,31.930,4.567,975.700,148.400,18.040,2.675,137.800,22.560,4.366,1.023,311.600,56.000,11.070,2.372,hard
1228.000,219.100,31.830,4.584,968.100,148.800,18.030,2.668,134.300,22.430,4.379,1.009,315.700,56.560,11.070,2.360,hard
1229.000,218.300,32.280,4.658,971.200,148.400,17.860,2.651,137.900,22.180,4.354,1.010,314.500,56.240,10.960,2.381,hard
1228.000,219.300,31.790,4.579,976.900,148.800,17.980,2.659,138.100,23.260,4.343,1.015,313.800,56.260,11.070,2.379,hard
1234.000,220.500,32.290,4.619,978.800,149.100,17.980,2.683,137.600,22.890,4.403,1.013,315.700,56.740,11.050,2.413,hard
1240.000,221.700,32.800,4.677,983.000,149.500,18.110,2.678,137.800,22.630,4.436,1.030,318.600,57.020,11.230,2.440,hard
1246.000,220.900,32.060,4.683,984.700,149.300,17.900,2.661,138.700,22.650,4.429,1.030,320.300,57.580,11.310,2.453,hard
1252.000,222.700,33.020,4.653,980.900,149.400,18.160,2.676,138.700,22.560,4.482,1.028,322.900,57.710,11.460,2.481,hard
1262.000,224.800,32.570,4.719,979.800,150.400,18.080,2.667,138.700,22.760,4.423,1.041,325.700,58.250,11.460,2.473,hard
1250.000,221.300,32.570,4.628,983.100,150.200,18.050,2.631,138.600,23.420,4.460,1.012,313.900,55.800,11.050,2.377,hard
1229.000,219.500,32.090,4.620,971.700,149.200,17.980,2.649,136.900,23.080,4.376,1.025,311.900,56.130,10.980,2.347,hard
1226.000,217.300,31.900,4.559,974.300,147.900,17.800,2.640,138.000,23.200,4.348,1.016,312.600,56.090,11.000,2.354,hard
1227.000,217.900,32.170,4.549,972.900,148.400,18.090,2.646,136.000,22.480,4.484,1.011,315.000,56.150,10.980,2.352,hard
1227.000,220.400,31.750,4.623,970.000,149.300,18.000,2.649,138.700,23.000,4.382,1.015,313.800,55.900,11.020,2.335,hard
1230.000,218.400,32.100,4.580,978.500,148.900,17.970,2.690,136.200,22.520,4.385,1.021,312.900,56.390,11.070,2.408,hard
1237.000,220.600,32.370,4.549,978.800,149.500,18.090,2.675,140.200,22.900,4.389,1.029,316.800,56.490,11.110,2.403,hard
1244.000,222.600,32.310,4.604,984.100,149.000,18.090,2.668,137.700,22.920,4.472,1.037,320.500,57.140,11.290,2.422,hard
1250.000,221.500,32.900,4.662,985.100,149.800,18.000,2.672,139.300,22.900,4.445,1.043,321.800,57.550,11.340,2.496,hard
1257.000,223.100,33.010,4.647,985.400,150.300,18.130,2.691,138.800,23.180,4.437,1.030,323.100,57.660,11.410,2.448,hard
1267.000,225.200,33.400,4.726,992.400,150.200,18.110,2.699,138.900,23.290,4.455,1.046,326.600,58.630,11.560,2.510,hard
1273.000,226.200,32.750,4.735,987.300,150.500,18.210,2.720,135.100,23.230,4.549,1.041,323.100,57.080,11.310,2.402,hard
1242.000,221.500,32.980,4.624,979.100,149.600,18.120,2.677,139.700,23.110,4.382,1.010,314.800,56.530,11.140,2.367,hard
1235.000,219.100,32.330,4.663,971.600,148.800,18.110,2.659,139.900,22.930,4.390,1.027,313.500,56.350,10.960,2.378,hard
1234.000,220.200,32.140,4.613,977.100,149.000,18.160,2.687,138.500,22.870,4.429,1.019,314.400,56.830,11.020,2.379,hard
1236.000,221.000,31.780,4.647,973.900,149.200,18.010,2.655,138.100,23.100,4.449,1.017,316.400,56.580,11.240,2.418,hard
1237.000,222.100,32.350,4.636,976.400,149.500,17.970,2.670,138.600,22.810,4.485,1.037,317.000,56.750,11.180,2.427,hard
1239.000,221.500,32.250,4.644,984.800,150.700,18.110,2.709,137.300,23.180,4.419,1.017,317.500,57.090,11.230,2.416,hard
1247.000,222.200,32.530,4.659,982.800,149.200,17.960,2.709,138.300,23.170,4.471,1.019,320.400,57.470,11.250,2.451,hard
1249.000,222.100,32.810,4.715,985.400,149.700,18.150,2.703,139.000,23.090,4.452,1.023,323.900,57.950,11.380,2.457,hard
1256.000,226.100,33.070,4.726,984.800,150.200,18.050,2.718,138.500,23.290,4.464,1.040,324.500,57.810,11.440,2.474,hard
1265.000,225.200,32.850,4.707,993.600,151.900,18.140,2.705,142.000,22.730,4.463,1.044,327.400,58.440,11.470,2.473,hard
1255.000,222.000,32.640,4.661,984.300,150.300,17.990,2.689,136.800,23.090,4.477,1.014,315.600,56.530,11.110,2.377,hard
1238.000,221.500,32.220,4.640,982.200,150.300,17.920,2.692,141.000,23.780,4.439,1.015,314.100,56.500,11.100,2.386,hard
1237.000,219.700,32.050,4.650,974.300,149.100,18.060,2.659,139.400,22.990,4.459,1.023,315.700,56.830,11.180,2.404,hard
1241.000,221.500,32.250,4.661,980.800,149.400,18.050,2.680,139.900,22.910,4.444,1.025,317.100,56.790,11.190,2.421,hard
1239.000,221.400,32.490,4.683,976.800,149.900,17.960,2.687,138.300,22.940,4.409,1.026,317.500,57.140,11.250,2.406,hard
1242.000,221.900,32.400,4.666,978.300,150.100,17.880,2.692,141.300,23.170,4.420,1.029,319.400,57.670,11.360,2.434,hard
1249.000,223.700,32.710,4.719,987.700,149.700,18.120,2.713,140.200,23.370,4.477,1.036,320.700,57.710,11.420,2.473,hard
1255.000,224.400,33.110,4.754,983.200,149.300,18.210,2.676,141.700,22.890,4.471,1.033,324.100,58.180,11.370,2.487,hard
1261.000,224.200,32.920,4.708,989.500,149.600,18.220,2.710,141.900,23.560,4.499,1.034,326.900,58.700,11.530,2.498,hard
1270.000,225.900,33.510,4.712,995.300,150.200,18.150,2.713,138.600,23.270,4.451,1.042,326.900,58.390,11.460,2.449,hard
1256.000,221.800,32.820,4.637,980.700,150.200,17.860,2.696,138.500,23.520,4.466,1.035,315.600,56.980,11.050,2.386,hard
1238.000,219.600,32.500,4.610,980.100,149.000,17.980,2.665,141.300,23.340,4.428,1.017,315.500,56.570,11.140,2.362,hard
1234.000,219.800,32.360,4.613,981.000,150.000,17.880,2.648,141.500,23.270,4.412,1.018,317.200,56.670,11.080,2.373,hard
1239.000,219.300,32.500,4.641,975.600,149.500,18.110,2.682,137.400,22.940,4.456,1.009,316.800,56.890,11.040,2.374,hard
1238.000,219.800,32.280,4.655,974.700,149.200,18.090,2.678,139.500,23.300,4.542,1.022,316.300,56.910,11.140,2.402,hard
1238.000,221.800,32.430,4.605,977.700,148.700,18.000,2.651,138.600,23.160,4.497,1.019,317.900,57.150,11.180,2.423,hard
1245.000,222.600,32.650,4.663,986.900,149.600,18.020,2.651,139.500,23.280,4.472,1.028,320.100,57.810,11.230,2.465,hard
1252.000,224.000,32.320,4.642,981.600,148.100,18.060,2.676,139.400,23.550,4.484,1.033,323.400,58.510,11.430,2.480,hard
1258.000,224.000,32.810,4.739,986.300,149.900,18.070,2.701,138.500,23.560,4.471,1.036,326.500,58.700,11.480,2.477,hard
1265.000,226.100,33.360,4.709,992.400,149.700,18.270,2.698,142.000,23.770,4.587,1.041,329.900,59.050,11.770,2.534,hard
1277.000,226.600,33.350,4.748,985.800,151.300,18.230,2.697,143.500,23.800,4.561,1.048,333.300,59.130,11.730,2.472,hard
1258.000,223.700,32.580,4.629,984.300,148.900,18.060,2.707,141.800,23.590,4.482,1.034,318.900,57.000,11.220,2.395,hard
1237.000,219.600,32.340,4.569,977.500,147.800,17.950,2.664,140.400,23.610,4.435,1.025,317.400,56.830,11.210,2.365,hard
1235.000,217.200,32.810,4.600,982.400,149.300,18.000,2.639,139.800,23.420,4.467,1.024,317.100,57.060,11.100,2.387,hard
1237.000,221.500,32.550,4.627,980.100,148.200,18.050,2.650,140.100,23.730,4.435,1.023,319.100,56.950,11.140,2.394,hard
1236.000,218.400,32.000,4.588,985.600,149.100,17.960,2.684,139.500,23.330,4.485,1.023,319.500,57.070,11.210,2.404,hard
1238.000,221.400,31.870,4.652,979.700,149.500,18.030,2.697,140.000,23.130,4.511,1.024,320.100,57.480,11.180,2.396,hard
1245.000,221.900,32.430,4.664,980.400,149.800,18.070,2.673,140.500,23.660,4.520,1.035,321.500,57.840,11.310,2.460,hard
1252.000,223.000,32.700,4.690,986.300,149.400,17.940,2.683,143.300,23.230,4.519,1.032,325.900,58.340,11.430,2.483,hard
1258.000,224.800,32.740,4.668,984.000,148.800,18.010,2.688,141.700,23.710,4.502,1.030,327.700,58.500,11.500,2.510,hard
1265.000,225.800,33.000,4.702,989.300,149.500,18.310,2.669,142.500,23.780,4.571,1.046,332.000,59.350,11.590,2.508,hard
1269.000,224.600,32.880,4.680,982.000,149.900,18.010,2.698,143.200,23.900,4.549,1.022,322.000,57.220,11.210,2.375,hard
1242.000,221.000,32.540,4.559,979.200,148.800,17.980,2.673,140.100,23.340,4.546,1.027,316.000,56.690,11.140,2.321,hard
1236.000,219.800,32.620,4.628,979.300,149.800,17.980,2.675,144.000,23.290,4.477,1.019,317.700,56.750,11.100,2.380,hard
1239.000,218.400,32.150,4.571,980.500,149.600,17.780,2.650,138.900,23.650,4.441,1.034,317.700,57.120,11.170,2.386,hard
1239.000,220.800,32.350,4.614,975.000,149.400,17.870,2.646,141.000,23.570,4.473,1.015,319.300,57.110,11.020,2.410,hard
1239.000,221.900,32.300,4.664,979.500,150.100,18.030,2.648,139.200,23.380,4.496,1.019,318.400,56.880,11.230,2.434,hard
1245.000,222.500,32.390,4.664,985.000,148.500,18.120,2.681,140.000,23.200,4.484,1.029,321.900,57.510,11.260,2.456,hard
1251.000,223.800,32.910,4.734,985.300,150.200,18.110,2.689,140.500,23.420,4.467,1.043,324.400,58.060,11.440,2.441,hard
1258.000,223.500,32.940,4.696,987.700,148.600,18.070,2.685,144.200,23.440,4.510,1.040,324.900,58.270,11.420,2.472,hard
1267.000,226.000,33.140,4.752,988.000,149.800,18.080,2.691,144.700,23.510,4.635,1.050,329.400,58.670,11.500,2.468,hard
1258.000,222.900,32.620,4.638,983.400,150.200,18.000,2.694,139.700,23.840,4.448,1.017,316.000,56.720,11.150,2.362,hard
1237.000,221.300,31.990,4.557,982.200,148.800,18.140,2.634,142.100,23.480,4.447,1.012,315.200,56.400,11.100,2.378,hard
1234.000,220.200,32.190,4.589,981.600,148.700,18.150,2.672,142.900,23.360,4.532,1.017,317.100,56.560,11.210,2.368,hard
1237.000,221.800,32.360,4.648,984.400,149.400,18.030,2.688,139.000,23.660,4.526,1.009,318.000,56.770,11.100,2.391,hard
1239.000,220.300,32.260,4.550,984.100,148.700,17.860,2.659,141.900,23.410,4.470,1.030,317.600,56.860,11.130,2.410,hard
1240.000,222.000,32.650,4.643,982.700,149.900,18.030,2.668,141.500,23.230,4.441,1.022,319.200,57.180,11.310,2.428,hard
1246.000,223.000,32.520,4.696,987.100,150.100,18.180,2.663,139.000,23.600,4.569,1.023,321.500,57.670,11.260,2.423,hard
1255.000,223.900,32.680,4.720,981.400,149.900,18.090,2.680,139.400,23.620,4.473,1.027,326.000,58.170,11.410,2.447,hard
1259.000,223.900,32.530,4.676,986.800,149.300,18.250,2.682,144.300,23.800,4.583,1.052,326.800,58.550,11.540,2.478,hard
1267.000,225.800,33.090,4.788,988.500,149.700,18.240,2.691,144.800,23.850,4.564,1.036,328.700,58.870,11.480,2.493,hard
1263.000,224.500,32.640,4.677,984.800,149.400,18.160,2.675,144.000,23.980,4.538,1.037,318.400,56.500,11.120,2.359,hard
1237.000,220.000,32.150,4.549,979.700,149.800,17.870,2.685,140.100,23.770,4.499,1.018,314.800,56.460,11.100,2.354,hard
1232.000,219.500,32.060,4.596,986.600,148.600,18.060,2.687,137.500,23.630,4.464,1.023,314.600,56.510,10.980,2.359,hard
1233.000,221.100,31.970,4.610,985.000,149.900,17.960,2.709,143.500,23.580,4.511,1.014,316.000,56.450,11.020,2.375,hard
1234.000,219.700,32.530,4.629,987.400,149.600,18.140,2.649,142.500,23.580,4.517,1.020,317.700,56.620,11.010,2.372,hard
1234.000,217.400,32.070,4.600,975.000,149.800,18.120,2.668,141.100,23.440,4.434,1.021,318.200,57.600,11.130,2.422,hard
1240.000,221.600,32.600,4.676,983.100,149.000,18.090,2.682,141.800,23.710,4.546,1.026,319.300,57.510,11.210,2.432,hard
1247.000,222.000,32.710,4.661,984.900,149.700,18.240,2.676,139.500,23.530,4.541,1.032,322.600,57.880,11.310,2.450,hard
1252.000,222.600,32.860,4.645,987.100,150.600,18.280,2.680,144.300,23.740,4.535,1.035,324.500,58.180,11.520,2.440,hard
1261.000,223.500,33.040,4.728,995.200,150.900,18.070,2.690,143.200,24.210,4.553,1.054,327.600,59.010,11.490,2.509,hard
1270.000,225.900,32.920,4.766,992.700,151.100,18.040,2.691,142.800,23.690,4.543,1.036,330.900,59.500,11.720,2.525,hard
1281.000,227.700,33.160,4.763,993.300,149.800,18.210,2.701,142.600,23.690,4.617,1.063,330.300,58.730,11.370,2.421,hard
1252.000,222.800,32.590,4.634,986.000,149.100,18.030,2.686,142.100,23.850,4.488,1.041,317.900,57.150,11.060,2.385,hard
1237.000,217.800,32.390,4.591,983.300,149.900,18.020,2.680,143.500,23.680,4.498,1.025,317.400,56.890,11.170,2.392,hard
1236.000,218.200,32.370,4.555,975.700,149.000,18.000,2.679,141.000,23.610,4.503,1.021,318.200,56.990,11.220,2.383,hard
1237.000,220.500,32.720,4.577,981.900,149.300,18.090,2.659,144.300,23.640,4.526,1.020,318.800,57.100,11.100,2.375,hard
1238.000,221.000,32.250,4.587,974.800,149.500,18.140,2.680,140.600,23.820,4.554,1.024,320.100,57.440,11.280,2.433,hard
1240.000,218.400,32.870,4.653,983.600,149.500,18.070,2.683,138.600,23.930,4.533,1.021,320.600,57.690,11.140,2.398,hard
1248.000,222.300,32.590,4.660,984.900,149.900,18.090,2.694,143.100,24.190,4.576,1.039,323.200,58.640,11.450,2.451,hard
1254.000,222.200,32.760,4.680,983.900,150.500,18.200,2.709,142.900,24.150,4.570,1.039,326.000,58.700,11.500,2.465,hard
1260.000,225.200,32.750,4.715,992.400,150.400,18.290,2.674,144.400,23.360,4.610,1.044,328.000,59.000,11.750,2.485,hard
1268.000,224.800,33.320,4.749,990.400,149.800,18.460,2.694,143.900,23.810,4.606,1.046,331.000,59.250,11.720,2.533,hard
1261.000,224.400,32.530,4.662,995.000,150.300,18.250,2.660,145.100,24.080,4.592,1.040,320.000,57.490,11.200,2.413,hard
1240.000,220.500,32.080,4.647,981.500,149.400,18.320,2.660,141.700,23.780,4.556,1.026,317.600,57.050,11.220,2.366,hard
1238.000,220.900,32.040,4.614,983.300,150.600,18.090,2.663,144.800,23.710,4.534,1.018,317.400,57.410,11.230,2.396,hard
1241.000,222.200,32.680,4.595,985.300,150.100,18.120,2.708,140.000,23.740,4.487,1.036,320.100,58.120,11.300,2.417,hard
1242.000,221.200,32.350,4.638,986.900,149.100,17.900,2.663,145.000,23.760,4.505,1.037,319.700,57.650,11.320,2.386,hard
1243.000,221.000,32.570,4.621,985.400,149.600,18.190,2.661,144.100,23.730,4.578,1.050,321.500,58.190,11.340,2.422,hard
1249.000,222.700,32.660,4.636,988.400,150.400,18.100,2.695,142.700,24.030,4.559,1.040,324.100,58.080,11.550,2.448,hard
1255.000,224.100,32.940,4.672,987.600,150.300,18.200,2.720,139.700,23.980,4.549,1.043,325.800,59.010,11.540,2.475,hard
1261.000,222.600,32.680,4.718,991.200,150.900,18.380,2.704,144.200,24.290,4.617,1.050,328.600,59.040,11.600,2.489,hard
1269.000,224.400,33.520,4.714,991.600,150.900,18.210,2.711,145.500,23.960,4.615,1.046,330.200,59.040,11.510,2.435,hard
1252.000,223.900,32.570,4.665,983.300,150.400,18.240,2.673,143.700,24.190,4.519,1.045,318.300,57.400,11.320,2.373,hard
1239.000,222.400,32.220,4.633,981.100,149.900,18.170,2.714,142.700,24.340,4.546,1.036,318.200,57.240,11.240,2.382,hard
1239.000,220.700,32.590,4.617,980.700,148.900,18.060,2.706,139.400,24.190,4.532,1.021,317.700,57.700,11.060,2.396,hard
1242.000,220.600,32.700,4.667,982.200,150.300,18.110,2.712,144.800,23.800,4.548,1.035,320.300,57.920,11.240,2.360,hard
1240.000,221.000,32.480,4.672,985.500,150.700,18.280,2.739,142.400,23.980,4.521,1.027,321.700,57.830,11.230,2.398,hard
1243.000,221.400,33.090,4.626,988.200,149.300,18.160,2.705,144.000,23.520,4.542,1.042,321.700,57.910,11.390,2.415,hard
1251.000,222.100,33.230,4.648,986.300,149.900,18.320,2.718,139.700,24.100,4.543,1.042,325.000,58.620,11.360,2.448,hard
1257.000,222.700,32.910,4.716,987.200,149.700,18.320,2.692,142.800,23.840,4.568,1.036,327.500,59.030,11.660,2.465,hard
1261.000,222.200,33.040,4.699,987.100,151.100,18.180,2.684,143.700,24.150,4.578,1.039,328.600,59.470,11.630,2.516,hard
1269.000,225.500,33.040,4.731,995.000,151.000,18.210,2.735,143.100,23.960,4.600,1.057,331.900,59.430,11.690,2.437,hard
1256.000,223.200,32.270,4.738,988.000,150.100,18.340,2.711,142.600,23.870,4.585,1.046,317.400,57.110,11.150,2.366,hard
1236.000,217.200,32.530,4.640,979.700,149.600,18.090,2.658,141.100,23.870,4.539,1.024,316.700,56.920,11.080,2.377,hard
1233.000,221.700,32.590,4.658,979.100,149.700,18.400,2.702,142.300,23.720,4.549,1.031,317.400,57.260,11.250,2.370,hard
1235.000,220.500,32.520,4.629,987.400,150.300,18.340,2.692,141.300,23.630,4.534,1.026,318.300,57.300,11.190,2.362,hard
1235.000,220.400,32.370,4.601,985.700,149.800,17.960,2.713,140.600,24.300,4.565,1.037,318.900,57.050,11.150,2.369,hard
1236.000,222.200,32.360,4.660,982.800,148.900,18.220,2.712,141.900,23.860,4.559,1.037,317.900,57.870,11.310,2.377,hard
1241.000,221.500,32.490,4.643,989.900,150.300,18.300,2.728,140.600,24.110,4.515,1.043,322.400,58.110,11.300,2.435,hard
1250.000,222.600,32.760,4.629,989.800,150.100,18.180,2.712,139.800,24.190,4.585,1.032,324.400,58.400,11.460,2.436,hard
1257.000,223.400,32.790,4.693,993.300,150.700,18.200,2.704,140.000,24.080,4.634,1.063,328.000,58.910,11.600,2.479,hard
1264.000,223.500,33.330,4.745,994.200,150.900,18.240,2.692,143.700,24.190,4.563,1.055,329.900,59.570,11.820,2.501,hard
1274.000,226.700,33.420,4.780,999.000,151.500,18.350,2.723,142.800,23.680,4.634,1.046,333.700,59.800,11.750,2.512,hard
1273.000,224.800,33.110,4.685,990.800,151.200,18.360,2.684,144.500,24.350,4.599,1.033,322.500,57.500,11.270,2.359,hard
1242.000,222.500,32.390,4.647,989.000,151.000,18.200,2.709,141.200,23.780,4.567,1.032,318.800,57.060,11.140,2.343,hard
1237.000,222.000,32.140,4.601,985.300,149.200,18.120,2.714,141.100,23.740,4.514,1.020,316.800,57.180,11.180,2.372,hard
1239.000,219.400,32.580,4.696,987.400,150.200,18.230,2.708,140.500,23.740,4.495,1.027,319.900,57.270,11.330,2.368,hard
1239.000,222.100,32.350,4.638,981.600,149.700,18.240,2.674,145.300,24.060,4.543,1.035,319.400,57.750,11.270,2.368,hard
1239.000,220.400,32.160,4.620,981.200,149.800,18.300,2.694,143.000,23.890,4.507,1.042,319.700,58.010,11.240,2.382,hard
1245.000,221.900,33.060,4.668,986.300,150.000,17.900,2.693,142.300,24.260,4.556,1.040,325.000,57.860,11.290,2.435,hard
1251.000,223.900,32.900,4.702,987.400,150.500,18.230,2.691,143.900,24.180,4.577,1.054,325.000,58.530,11.410,2.467,hard
1258.000,225.200,32.940,4.677,988.300,150.200,18.250,2.731,143.600,24.140,4.579,1.045,327.400,58.900,11.550,2.477,hard
1264.000,223.600,33.370,4.767,993.700,150.600,18.350,2.712,144.100,24.190,4.604,1.051,331.600,59.750,11.670,2.493,hard
1273.000,227.700,33.420,4.828,992.000,151.100,18.330,2.729,142.800,24.400,4.617,1.064,331.100,59.430,11.530,2.430,hard
1254.000,222.700,32.570,4.704,987.200,149.900,18.250,2.671,144.300,24.180,4.571,1.031,318.600,57.780,11.280,2.344,hard
1241.000,220.500,32.740,4.603,984.000,149.100,18.260,2.726,145.000,23.930,4.561,1.027,317.200,57.480,11.160,2.344,hard
1241.000,221.300,32.630,4.632,983.300,149.300,18.130,2.677,141.300,24.110,4.500,1.048,317.700,57.520,11.320,2.388,hard
1243.000,220.700,32.730,4.596,984.500,148.600,18.050,2.703,138.500,23.900,4.560,1.031,320.700,57.750,11.290,2.402,hard
1241.000,221.500,32.460,4.635,977.300,149.400,18.040,2.682,141.900,23.730,4.519,1.044,320.600,57.650,11.220,2.396,hard
1246.000,222.700,32.950,4.698,987.000,150.400,18.200,2.691,141.300,23.890,4.542,1.032,323.000,58.070,11.380,2.420,hard
1252.000,223.200,32.550,4.687,987.800,150.100,18.230,2.727,143.700,24.110,4.637,1.038,325.300,58.550,11.450,2.421,hard
1260.000,226.100,33.140,4.719,992.600,150.400,18.270,2.706,145.500,24.120,4.600,1.043,328.200,59.040,11.500,2.445,hard
1263.000,225.100,33.370,4.764,990.600,149.800,18.200,2.711,143.200,24.150,4.611,1.049,328.700,59.430,11.630,2.515,hard
1273.000,226.400,33.150,4.803,994.700,150.700,18.130,2.674,143.500,24.570,4.664,1.051,328.100,59.310,11.380,2.426,hard
1253.000,222.800,32.480,4.674,984.800,150.200,18.230,2.657,144.000,23.980,4.531,1.027,318.300,57.730,11.200,2.348,hard
1239.000,220.100,32.370,4.679,984.000,149.300,18.090,2.685,139.000,24.180,4.526,1.030,318.200,57.470,11.120,2.373,hard
1240.000,220.600,32.240,4.669,986.400,149.600,18.210,2.678,142.400,23.650,4.506,1.044,319.900,57.680,11.190,2.379,hard
1242.000,220.900,32.680,4.697,989.900,149.800,18.250,2.710,142.100,24.430,4.572,1.031,319.400,57.750,11.210,2.417,hard
1241.000,221.000,32.500,4.726,982.400,149.400,18.120,2.704,144.300,23.710,4.559,1.044,320.300,57.760,11.300,2.402,hard
1244.000,223.900,32.480,4.653,990.000,149.800,18.000,2.669,141.100,24.230,4.523,1.032,323.000,58.070,11.320,2.421,hard
1252.000,222.500,33.230,4.705,988.200,149.700,18.090,2.685,144.400,23.780,4.586,1.047,324.300,58.570,11.500,2.418,hard
1259.000,226.100,33.110,4.740,991.900,150.000,18.040,2.691,139.300,24.090,4.538,1.060,328.500,58.790,11.560,2.486,hard
1264.000,223.900,33.210,4.763,993.000,150.000,18.110,2.695,142.000,24.230,4.580,1.052,330.500,59.550,11.730,2.501,hard
1273.000,226.000,33.140,4.795,993.300,151.100,18.010,2.709,144.100,24.190,4.602,1.077,332.900,60.060,11.750,2.523,hard
1268.000,224.800,33.140,4.780,988.700,150.500,18.030,2.671,140.700,24.100,4.591,1.041,322.100,57.580,11.400,2.358,hard
1241.000,219.700,32.620,4.700,989.900,149.900,18.020,2.667,141.200,23.830,4.537,1.041,316.700,57.230,11.130,2.344,hard
1237.000,220.500,32.200,4.672,981.100,150.000,17.940,2.654,141.800,23.930,4.543,1.019,318.300,57.290,11.190,2.340,hard
1237.000,221.500,32.720,4.691,987.000,149.400,18.070,2.655,137.700,23.980,4.572,1.026,319.900,57.580,11.240,2.375,hard
1239.000,222.000,32.230,4.685,987.200,149.100,18.120,2.683,138.800,24.030,4.585,1.033,320.700,57.320,11.240,2.379,hard
1239.000,223.000,32.300,4.635,979.600,148.400,18.050,2.678,144.300,23.990,4.540,1.045,319.800,57.640,11.280,2.394,hard
1245.000,222.100,32.640,4.740,989.300,149.300,18.090,2.702,143.200,24.210,4.519,1.018,321.500,57.930,11.300,2.410,hard
1253.000,224.100,32.690,4.705,991.600,149.700,18.070,2.679,139.400,23.470,4.525,1.050,325.100,58.520,11.460,2.465,hard
1259.000,222.300,32.910,4.734,989.100,150.100,18.070,2.672,144.400,24.030,4.598,1.041,326.700,59.130,11.570,2.489,hard
1264.000,226.400,33.490,4.802,989.200,151.600,18.240,2.701,145.700,24.160,4.659,1.055,331.000,59.420,11.600,2.514,hard
1273.000,225.800,33.570,4.811,998.300,149.700,18.210,2.646,145.200,24.400,4.645,1.055,333.200,60.070,11.700,2.454,hard
1259.000,222.900,33.030,4.749,985.300,148.900,18.020,2.696,143.600,23.960,4.518,1.040,319.400,57.370,11.140,2.393,hard
1240.000,220.400,32.120,4.733,976.900,149.900,17.940,2.680,140.000,24.190,4.509,1.038,317.100,57.310,11.200,2.348,hard
1238.000,220.600,32.360,4.638,979.200,149.200,17.990,2.679,142.700,24.390,4.519,1.035,319.100,57.430,11.280,2.363,hard
1241.000,222.900,32.360,4.724,982.900,149.100,18.070,2.656,141.000,23.790,4.554,1.023,321.300,57.760,11.280,2.389,hard
1239.000,221.800,32.490,4.617,979.300,148.900,18.120,2.657,141.800,23.890,4.579,1.035,321.500,57.600,11.300,2.404,hard
1240.000,220.600,32.270,4.637,983.500,149.200,18.040,2.678,144.900,23.920,4.523,1.037,322.300,57.680,11.220,2.400,hard
1245.000,223.000,32.820,4.722,990.400,149.500,18.210,2.691,144.400,24.130,4.543,1.035,322.200,58.170,11.510,2.445,hard
1251.000,222.400,32.830,4.728,982.900,149.400,17.850,2.669,143.600,24.250,4.558,1.048,325.200,58.890,11.530,2.460,hard
1258.000,225.300,33.150,4.728,985.600,149.900,18.200,2.687,139.900,23.990,4.578,1.064,329.100,59.100,11.510,2.486,hard
1263.000,225.300,33.180,4.720,989.800,150.000,18.240,2.703,142.500,24.210,4.580,1.049,329.100,59.110,11.410,2.412,hard
1247.000,223.900,32.780,4.659,989.600,148.600,18.040,2.695,139.100,23.760,4.516,1.035,317.900,57.440,11.190,2.331,hard
1234.000,219.700,32.520,4.609,979.900,148.800,17.900,2.690,141.700,24.430,4.582,1.048,316.600,56.730,11.180,2.358,hard
1233.000,219.400,32.630,4.691,982.700,148.700,18.160,2.684,143.500,23.810,4.508,1.042,318.500,57.560,11.160,2.368,hard
1236.000,219.800,32.310,4.621,977.000,148.600,17.980,2.678,142.700,23.740,4.549,1.031,319.100,57.530,11.170,2.374,hard
1235.000,220.500,32.320,4.635,979.300,149.800,17.920,2.671,141.300,23.990,4.565,1.040,317.400,57.250,11.170,2.362,hard
1239.000,221.100,32.480,4.695,983.500,149.100,18.040,2.674,142.700,24.120,4.569,1.054,320.000,57.740,11.230,2.384,hard
1243.000,222.200,32.520,4.751,989.400,149.200,18.020,2.694,143.300,24.080,4.556,1.037,322.900,58.560,11.480,2.422,hard
1248.000,222.500,32.780,4.656,984.200,150.200,18.040,2.651,142.700,23.820,4.557,1.054,324.900,58.570,11.440,2.444,hard
1254.000,224.000,33.360,4.756,982.700,149.600,17.950,2.701,141.200,24.410,4.605,1.067,328.400,58.900,11.560,2.483,hard
1262.000,225.000,33.240,4.744,991.300,149.700,18.010,2.700,143.900,24.180,4.624,1.071,325.300,58.290,11.360,2.392,hard
1242.000,221.800,32.480,4.655,985.100,149.400,18.050,2.679,143.000,23.880,4.594,1.044,316.100,56.370,11.120,2.354,hard
1229.000,221.200,32.380,4.585,980.900,147.800,18.000,2.693,142.200,23.680,4.523,1.021,314.300,56.720,11.030,2.360,hard
1227.000,218.400,32.320,4.667,985.300,148.900,17.960,2.670,140.800,23.680,4.533,1.030,314.800,56.340,11.130,2.348,hard
1228.000,220.400,32.190,4.571,981.100,149.000,17.710,2.674,139.700,24.120,4.514,1.030,315.600,56.700,11.110,2.361,hard
1227.000,218.600,32.510,4.685,977.100,148.600,17.870,2.656,141.800,23.600,4.497,1.032,315.100,56.960,11.160,2.411,hard
1230.000,219.600,32.530,4.663,972.500,149.300,17.810,2.665,142.200,23.790,4.515,1.036,316.600,57.130,11.170,2.417,hard
1234.000,222.300,32.550,4.758,985.600,148.700,18.000,2.697,142.300,23.470,4.505,1.052,320.100,57.940,11.200,2.395,hard
1243.000,222.900,32.410,4.714,980.900,149.400,18.240,2.712,143.200,23.990,4.523,1.038,322.600,58.090,11.350,2.442,hard
1249.000,223.600,32.800,4.706,982.500,150.000,18.090,2.674,144.100,23.890,4.588,1.055,324.400,58.130,11.410,2.459,hard
1255.000,223.700,32.920,4.793,992.000,149.800,18.010,2.718,143.400,24.050,4.593,1.055,327.900,58.790,11.370,2.456,hard
1264.000,223.100,33.720,4.745,992.100,150.200,18.170,2.702,142.800,23.940,4.600,1.068,329.700,59.660,11.540,2.516,hard
1269.000,227.700,33.150,4.785,987.800,150.200,17.980,2.720,143.700,24.000,4.649,1.042,322.600,57.600,11.160,2.372,hard
1235.000,221.300,32.130,4.639,980.700,149.200,18.070,2.678,139.700,23.990,4.543,1.027,315.100,56.340,10.960,2.352,hard
1228.000,217.400,32.460,4.623,979.400,148.300,18.010,2.642,142.400,23.520,4.568,1.028,315.500,56.510,10.970,2.342,hard
1227.000,218.500,32.370,4.634,977.500,148.300,17.880,2.678,141.100,24.240,4.537,1.021,316.000,56.750,11.080,2.380,hard
1229.000,218.400,32.020,4.636,977.300,149.100,17.870,2.700,140.900,23.670,4.507,1.044,315.500,57.080,11.110,2.382,hard
1228.000,220.500,32.210,4.595,979.100,148.100,17.880,2.643,142.900,23.670,4.579,1.034,316.200,57.020,11.110,2.411,hard
1232.000,220.100,32.420,4.643,973.300,148.400,17.880,2.679,142.300,23.630,4.521,1.040,319.300,57.450,11.200,2.401,hard
1238.000,221.300,32.440,4.673,976.500,148.700,18.150,2.682,140.700,24.090,4.487,1.060,322.600,57.880,11.400,2.423,hard
1246.000,222.300,32.980,4.679,981.100,149.700,18.200,2.662,143.000,24.020,4.586,1.052,324.200,58.260,11.510,2.472,hard
1250.000,223.300,32.610,4.751,984.900,149.300,18.000,2.696,144.100,24.310,4.591,1.053,326.100,58.540,11.540,2.469,hard
1261.000,224.800,33.340,4.783,988.000,149.300,18.070,2.676,142.600,24.360,4.624,1.055,328.200,58.930,11.450,2.471,hard
1249.000,222.400,32.680,4.649,981.700,148.500,17.820,2.685,142.400,24.150,4.566,1.052,316.500,56.610,11.150,2.368,hard
1231.000,220.700,32.240,4.716,979.100,148.800,18.080,2.629,142.700,23.950,4.518,1.038,315.000,56.750,11.080,2.363,hard
1229.000,219.300,32.550,4.650,976.100,147.800,17.920,2.673,139.700,23.640,4.479,1.019,315.500,56.200,11.110,2.385,hard
1232.000,218.600,32.260,4.702,978.600,149.100,17.930,2.697,139.900,23.660,4.531,1.041,317.300,56.740,11.060,2.388,hard
1230.000,219.700,32.300,4.665,979.000,148.500,18.150,2.668,144.800,23.900,4.523,1.034,317.400,56.930,11.290,2.395,hard
1232.000,219.700,32.540,4.649,975.700,148.800,17.870,2.652,143.900,23.710,4.562,1.037,318.000,57.390,11.210,2.420,hard
1237.000,222.500,32.600,4.727,980.200,147.500,17.920,2.670,141.500,23.260,4.549,1.037,320.500,57.880,11.250,2.444,hard
1244.000,223.300,32.900,4.755,985.400,149.800,17.930,2.658,145.000,23.720,4.538,1.045,322.800,58.200,11.290,2.445,hard
1249.000,224.000,32.680,4.746,987.300,149.800,17.860,2.651,144.700,24.060,4.553,1.053,324.100,58.250,11.450,2.492,hard
1257.000,226.000,33.060,4.751,986.200,149.800,18.130,2.640,142.400,23.640,4.651,1.042,326.500,59.010,11.480,2.494,hard
1258.000,224.500,32.910,4.731,986.700,148.600,18.140,2.675,146.400,24.000,4.570,1.044,317.700,57.120,11.080,2.385,hard
1233.000,218.900,32.440,4.596,984.500,149.200,17.780,2.684,139.800,24.240,4.496,1.024,315.200,56.650,11.060,2.362,hard
1229.000,218.500,32.170,4.627,973.800,149.500,17.780,2.637,140.000,23.600,4.538,1.021,314.800,56.570,11.010,2.388,hard
1228.000,221.800,32.520,4.665,972.200,149.700,18.030,2.681,142.400,23.360,4.467,1.017,317.300,56.950,11.160,2.379,hard
1228.000,219.200,32.020,4.639,978.400,148.400,17.880,2.670,142.500,23.850,4.513,1.031,316.700,56.900,11.170,2.412,hard
1229.000,219.000,32.390,4.651,975.100,148.000,17.980,2.699,141.000,24.000,4.521,1.037,316.100,57.130,11.060,2.430,hard
1233.000,220.200,32.390,4.750,980.800,148.800,17.980,2.673,141.400,23.630,4.553,1.021,317.600,57.420,11.190,2.432,hard
1240.000,222.800,32.490,4.668,980.500,149.100,18.090,2.650,147.100,24.140,4.589,1.037,321.500,57.930,11.430,2.473,hard
1245.000,221.300,32.630,4.699,986.100,149.100,18.010,2.665,143.600,24.010,4.550,1.042,324.400,58.110,11.450,2.485,hard
1251.000,223.300,32.750,4.727,980.500,148.300,18.050,2.663,141.600,23.860,4.621,1.048,325.000,58.840,11.430,2.482,hard
1258.000,225.000,32.860,4.810,986.000,149.400,18.010,2.691,145.100,24.200,4.612,1.045,323.300,58.080,11.300,2.426,hard
1236.000,220.400,32.380,4.711,979.500,148.800,17.910,2.655,141.100,24.180,4.538,1.011,313.800,56.660,11.020,2.365,hard
1224.000,218.700,32.240,4.635,974.900,148.400,18.070,2.674,141.300,23.850,4.501,1.025,313.200,56.290,10.960,2.334,hard
1222.000,216.700,31.970,4.631,977.000,149.100,17.860,2.669,140.600,23.300,4.512,1.006,312.200,56.350,11.110,2.364,hard
1223.000,218.200,31.910,4.643,977.600,148.300,18.030,2.665,140.400,24.290,4.553,1.030,314.200,56.320,11.010,2.361,hard
1221.000,218.400,31.970,4.630,980.200,148.600,18.060,2.646,146.400,23.470,4.546,1.029,315.000,56.520,11.270,2.371,hard
1223.000,219.000,32.320,4.596,973.300,147.500,17.990,2.641,140.200,23.850,4.504,1.027,314.400,56.830,11.090,2.433,hard
1230.000,219.200,32.380,4.695,977.700,148.400,17.840,2.656,143.000,23.920,4.519,1.033,316.900,57.750,11.210,2.408,hard
1236.000,220.300,32.610,4.704,977.200,149.000,17.880,2.652,142.700,23.680,4.516,1.042,320.100,57.740,11.350,2.441,hard
1241.000,221.300,32.530,4.740,987.800,149.000,18.120,2.669,141.000,23.690,4.558,1.038,322.100,58.320,11.500,2.481,hard
1248.000,224.400,32.530,4.772,985.500,150.200,18.110,2.621,143.100,24.230,4.551,1.042,324.000,58.620,11.530,2.507,hard
1260.000,226.100,33.240,4.807,987.900,150.300,18.100,2.677,146.100,24.210,4.599,1.044,328.900,59.310,11.620,2.550,hard
1262.000,224.000,32.900,4.776,989.500,149.400,18.120,2.672,142.800,24.430,4.614,1.041,319.300,57.410,11.320,2.375,hard
1231.000,219.800,32.160,4.595,978.600,148.500,17.970,2.682,142.900,24.270,4.529,1.035,315.200,56.580,11.180,2.358,hard
1222.000,220.700,31.640,4.646,977.100,148.800,17.970,2.647,144.300,23.680,4.536,1.030,314.500,56.290,11.190,2.360,hard
1223.000,219.000,31.950,4.667,977.100,148.500,17.880,2.679,140.600,23.650,4.535,1.048,313.400,56.810,11.090,2.419,hard
1224.000,219.100,32.470,4.641,983.700,149.400,17.830,2.658,143.100,23.930,4.552,1.030,313.600,57.060,11.080,2.372,hard
1223.000,219.400,32.390,4.678,972.600,148.400,17.690,2.673,141.800,23.700,4.590,1.032,314.500,56.960,11.190,2.406,hard
1227.000,219.800,31.930,4.703,983.400,147.900,17.940,2.659,140.800,23.670,4.534,1.037,319.000,57.100,11.270,2.422,hard
1235.000,220.500,32.940,4.628,990.300,148.300,17.880,2.653,144.600,23.840,4.536,1.047,319.500,58.050,11.400,2.464,hard
1240.000,221.200,32.850,4.709,984.500,149.300,17.910,2.657,143.500,23.940,4.533,1.042,324.800,58.030,11.370,2.462,hard
1246.000,221.500,33.070,4.745,985.400,148.400,17.750,2.651,144.400,24.110,4.602,1.051,324.600,58.580,11.460,2.513,hard
1253.000,224.300,33.090,4.763,985.400,149.700,18.140,2.667,144.900,23.640,4.631,1.045,327.500,58.660,11.650,2.517,hard
1259.000,224.300,32.870,4.809,989.500,149.700,18.150,2.675,144.000,24.470,4.625,1.043,321.700,57.600,11.300,2.403,hard
1234.000,221.400,32.230,4.679,986.200,148.300,17.920,2.678,141.400,23.800,4.578,1.043,313.500,56.860,11.130,2.376,hard
1225.000,218.800,32.460,4.653,982.100,149.200,18.130,2.633,143.200,23.650,4.548,1.024,313.900,56.780,11.080,2.375,hard
1227.000,218.200,32.310,4.664,982.700,149.300,17.970,2.690,140.300,23.830,4.451,1.023,318.700,57.170,11.150,2.422,hard
1226.000,217.700,32.330,4.637,984.600,148.900,17.950,2.705,143.700,23.530,4.507,1.029,317.700,57.390,11.260,2.413,hard
1225.000,218.100,32.690,4.635,983.100,148.200,17.860,2.634,141.600,24.200,4.566,1.018,317.900,57.170,11.240,2.432,hard
1229.000,220.900,32.030,4.626,985.100,148.500,17.950,2.667,141.600,23.890,4.557,1.022,319.700,57.370,11.250,2.411,hard
1236.000,221.500,32.560,4.694,980.000,149.400,17.860,2.648,144.400,24.440,4.596,1.031,321.800,58.330,11.390,2.471,hard
1241.000,221.500,32.850,4.740,988.500,148.700,17.940,2.667,144.200,24.020,4.572,1.034,323.600,58.750,11.500,2.502,hard
1227.000,219.800,32.310,4.631,985.700,148.800,17.910,2.665,143.700,24.120,4.553,1.034,317.500,57.560,11.260,2.385,bogus
1234.000,222.000,32.580,4.705,983.500,149.200,18.110,2.687,141.400,24.130,4.618,1.042,319.500,57.860,11.270,2.434,bogus
1240.000,221.400,32.740,4.713,987.400,148.700,18.000,2.671,142.700,24.060,4.603,1.038,322.800,58.180,11.490,2.478,bogus
1246.000,222.900,32.250,4.762,988.200,147.800,17.960,2.667,146.500,24.700,4.617,1.049,326.700,58.510,11.580,2.493,bogus
1253.000,223.600,32.740,4.741,993.500,149.600,18.240,2.676,146.100,24.480,4.586,1.051,329.300,59.020,11.650,2.524,bogus
1217.000,216.900,31.960,4.585,973.700,148.100,17.930,2.611,142.400,24.240,4.628,1.052,324.000,58.570,11.290,2.423,hard
1219.000,217.700,31.990,4.589,974.800,147.400,17.830,2.650,145.300,24.990,4.759,1.042,324.300,58.460,11.390,2.441,hard
1218.000,218.100,31.990,4.555,969.400,147.000,17.850,2.607,146.900,24.820,4.733,1.065,323.600,58.400,11.310,2.405,hard
1220.000,216.600,32.150,4.607,963.600,148.900,17.890,2.599,143.400,24.750,4.701,1.049,325.100,58.650,11.440,2.439,hard
1224.000,219.800,32.440,4.631,964.900,147.300,17.860,2.588,143.000,24.480,4.710,1.061,327.200,59.250,11.660,2.480,hard
1232.000,221.700,32.990,4.679,970.700,147.200,17.890,2.590,145.500,24.620,4.741,1.088,331.200,59.510,11.720,2.492,hard
1238.000,219.700,32.440,4.679,974.600,147.800,18.080,2.617,146.600,24.880,4.714,1.083,334.200,60.030,11.770,2.548,hard
1244.000,223.000,33.090,4.704,978.100,148.600,17.990,2.621,145.900,24.990,4.682,1.077,337.100,60.370,11.960,2.547,hard
1254.000,225.500,32.960,4.771,978.000,149.200,17.950,2.635,152.800,24.940,4.762,1.091,338.800,60.940,11.880,2.557,hard
1239.000,219.200,32.450,4.641,964.900,147.300,17.940,2.599,146.300,24.980,4.658,1.064,322.600,58.270,11.410,2.423,hard
1218.000,219.800,32.300,4.632,970.300,147.600,17.930,2.593,144.200,24.880,4.624,1.053,320.300,57.580,11.280,2.374,hard
1214.000,218.800,32.270,4.552,965.300,147.200,17.970,2.607,145.800,24.640,4.643,1.040,321.800,58.250,11.400,2.446,hard
1217.000,217.700,32.630,4.587,968.300,147.400,17.740,2.648,145.100,24.090,4.706,1.053,322.000,58.030,11.480,2.392,hard
1216.000,219.100,32.330,4.622,966.400,147.300,17.630,2.628,143.500,24.670,4.627,1.053,321.700,58.190,11.310,2.422,hard
1218.000,221.600,32.330,4.589,970.300,147.800,17.800,2.612,146.200,24.000,4.645,1.042,323.000,58.090,11.340,2.440,hard
1224.000,221.100,32.500,4.631,974.000,147.600,17.840,2.599,146.100,24.540,4.667,1.066,325.200,58.190,11.480,2.474,hard
1228.000,222.600,32.490,4.622,970.400,147.400,17.960,2.629,149.000,24.820,4.652,1.082,327.000,59.250,11.530,2.461,hard
1235.000,222.100,32.100,4.728,976.300,148.800,17.820,2.623,144.800,24.420,4.674,1.071,329.900,59.260,11.760,2.501,hard
1242.000,222.800,32.670,4.716,979.200,147.000,18.250,2.616,145.500,24.160,4.703,1.062,333.400,59.530,11.590,2.509,hard
1248.000,223.200,32.450,4.740,980.100,147.900,17.860,2.613,148.500,24.130,4.707,1.064,326.100,59.010,11.430,2.397,hard
1220.000,220.200,32.050,4.593,966.700,148.000,17.890,2.625,145.100,23.850,4.664,1.058,318.100,57.460,11.200,2.354,hard
1215.000,219.500,31.710,4.606,965.800,146.800,17.860,2.618,145.000,23.900,4.603,1.056,318.400,57.520,11.270,2.415,hard
1216.000,218.200,32.230,4.610,971.700,147.700,17.890,2.615,142.000,23.980,4.546,1.066,319.800,57.740,11.350,2.406,hard
1217.000,219.100,32.360,4.565,968.600,146.700,17.660,2.628,143.200,24.150,4.570,1.054,321.700,57.280,11.230,2.392,hard
1216.000,217.900,32.660,4.634,971.400,147.200,17.810,2.626,143.300,23.790,4.616,1.063,320.200,57.690,11.300,2.448,hard
1221.000,220.700,32.650,4.662,964.700,147.600,17.900,2.597,143.600,23.880,4.659,1.052,322.700,58.010,11.350,2.442,hard
1227.000,219.800,32.560,4.674,972.600,147.800,17.860,2.614,143.700,24.140,4.611,1.072,326.200,58.930,11.500,2.468,hard
1234.000,222.200,32.380,4.698,970.400,148.300,17.940,2.561,143.800,24.350,4.682,1.065,328.100,59.690,11.680,2.471,hard
1239.000,221.700,32.620,4.753,973.400,148.100,17.820,2.620,143.600,24.670,4.696,1.074,331.100,59.840,11.680,2.547,hard
1248.000,225.400,32.790,4.825,979.900,147.600,17.980,2.601,144.000,24.430,4.638,1.075,333.900,60.000,11.820,2.513,hard
1239.000,221.300,32.550,4.627,974.700,148.000,17.880,2.574,144.000,24.700,4.673,1.053,320.600,57.720,11.270,2.357,hard
1214.000,220.100,31.900,4.585,963.900,146.300,17.800,2.602,144.100,23.830,4.590,1.055,315.900,56.930,11.140,2.353,hard
1210.000,218.200,31.590,4.579,966.400,147.100,17.850,2.567,141.900,23.240,4.543,1.047,317.800,57.380,11.200,2.354,hard
1212.000,217.900,31.870,4.648,962.800,147.100,17.610,2.609,143.900,23.880,4.559,1.032,318.800,57.450,11.250,2.383,hard
1209.000,216.600,31.810,4.582,962.900,146.900,17.540,2.612,141.500,24.070,4.568,1.037,319.000,57.070,11.150,2.354,hard
1209.000,218.700,31.570,4.581,964.700,146.900,17.630,2.600,141.100,23.760,4.580,1.059,319.300,58.100,11.360,2.424,hard
1214.000,218.700,31.930,4.598,956.700,145.900,17.760,2.614,143.300,23.840,4.596,1.064,322.600,57.850,11.330,2.428,hard
1222.000,219.400,32.130,4.604,970.500,147.300,17.730,2.608,142.500,23.920,4.594,1.049,325.100,58.310,11.520,2.416,hard
1227.000,217.000,32.020,4.627,967.700,146.900,17.940,2.607,144.000,24.310,4.628,1.063,328.100,58.390,11.500,2.462,hard
1233.000,219.800,32.780,4.699,965.900,147.400,17.740,2.611,141.700,24.210,4.628,1.061,327.800,59.130,11.640,2.469,hard
1240.000,224.200,32.820,4.729,969.900,146.500,17.780,2.627,144.200,24.130,4.625,1.055,331.800,59.540,11.650,2.509,hard
1243.000,222.200,32.570,4.638,966.400,146.500,17.870,2.606,141.300,24.110,4.612,1.051,322.100,57.910,11.340,2.386,hard
1212.000,218.100,31.810,4.598,962.800,146.400,17.660,2.613,143.400,23.840,4.546,1.049,315.000,56.460,11.180,2.336,hard
1203.000,217.000,31.750,4.573,958.500,145.400,17.600,2.572,141.900,23.890,4.456,1.029,313.700,56.700,11.080,2.346,hard
1203.000,217.500,32.080,4.555,958.300,146.500,17.690,2.603,140.700,23.270,4.554,1.039,316.200,57.170,11.150,2.313,hard
1203.000,218.100,31.520,4.549,959.200,146.400,17.470,2.571,141.900,23.640,4.470,1.035,314.700,57.010,11.170,2.335,hard
1200.000,216.600,31.750,4.522,957.600,144.800,17.570,2.591,139.100,23.460,4.525,1.043,315.900,56.760,11.130,2.374,hard
1205.000,214.800,31.670,4.547,956.400,144.900,17.580,2.569,143.700,23.640,4.576,1.049,318.100,57.080,11.250,2.377,hard
1212.000,217.400,31.600,4.604,965.200,145.700,17.570,2.550,139.900,23.490,4.584,1.059,321.200,57.700,11.380,2.417,hard
1218.000,217.800,32.540,4.596,966.400,145.700,17.550,2.568,140.200,23.800,4.514,1.061,325.200,58.350,11.410,2.429,hard
1225.000,218.400,32.330,4.605,964.800,145.300,17.590,2.599,143.900,23.660,4.558,1.055,326.600,58.710,11.460,2.468,hard
1234.000,221.100,32.270,4.670,968.300,146.300,17.830,2.569,140.100,23.570,4.574,1.060,330.000,58.750,11.760,2.499,hard
1242.000,221.900,32.770,4.705,966.700,146.000,17.710,2.563,142.900,23.960,4.611,1.058,328.400,58.280,11.400,2.407,hard
1217.000,218.900,31.970,4.561,955.800,145.600,17.700,2.597,144.900,23.690,4.534,1.049,315.000,56.600,11.000,2.329,hard
1201.000,215.600,31.820,4.511,954.600,144.900,17.540,2.559,140.200,23.470,4.494,1.039,314.200,56.450,10.970,2.315,hard
1200.000,216.400,31.670,4.506,955.700,145.000,17.320,2.581,141.600,23.410,4.479,1.025,315.000,56.770,11.090,2.364,hard
1203.000,213.600,31.490,4.476,960.600,144.200,17.490,2.576,140.300,22.960,4.504,1.036,315.700,56.310,11.020,2.339,hard
1199.000,214.700,31.800,4.552,958.300,146.200,17.490,2.553,140.500,23.160,4.503,1.045,316.400,56.580,11.120,2.330,hard
1203.000,218.000,31.390,4.499,958.100,145.000,17.480,2.555,140.700,23.400,4.427,1.038,317.500,56.870,11.130,2.347,hard
1209.000,214.700,31.760,4.629,958.800,145.500,17.400,2.562,140.600,23.320,4.519,1.041,320.100,57.450,11.260,2.416,hard
1214.000,217.900,32.010,4.605,952.700,145.300,17.520,2.548,143.200,23.380,4.526,1.035,321.900,57.590,11.350,2.410,hard
1220.000,218.100,32.240,4.590,962.500,145.500,17.560,2.579,144.500,23.560,4.531,1.054,324.100,57.880,11.470,2.420,hard
1227.000,220.100,32.500,4.707,962.500,146.500,17.580,2.615,141.900,23.470,4.506,1.059,325.100,58.010,11.490,2.468,hard
1236.000,222.300,32.610,4.696,968.100,146.700,17.770,2.590,141.200,23.810,4.566,1.049,326.800,58.230,11.410,2.409,hard
1218.000,218.500,32.010,4.597,962.000,146.200,17.650,2.581,143.500,23.160,4.437,1.017,315.800,56.530,11.030,2.298,hard
1203.000,216.200,31.480,4.485,963.600,145.400,17.580,2.570,139.900,23.120,4.463,1.039,315.000,56.260,11.060,2.313,hard
1202.000,216.500,31.690,4.480,957.700,145.600,17.560,2.559,137.000,23.150,4.444,1.020,313.800,56.290,10.980,2.344,hard
1205.000,216.000,31.760,4.600,957.300,145.300,17.310,2.569,139.100,23.370,4.499,1.035,315.800,56.770,11.010,2.382,hard
1203.000,215.400,31.410,4.584,957.500,145.800,17.490,2.605,137.100,23.120,4.479,1.047,315.400,56.370,11.080,2.361,hard
1207.000,215.400,32.170,4.577,955.500,144.600,17.460,2.616,140.300,22.850,4.481,1.037,317.700,56.540,11.300,2.407,hard
1214.000,217.000,31.870,4.587,958.700,145.200,17.500,2.563,138.200,23.370,4.493,1.055,320.900,56.990,11.350,2.412,hard
1221.000,219.300,32.590,4.607,963.500,146.100,17.420,2.567,142.100,23.150,4.450,1.049,322.900,57.400,11.390,2.430,hard
1229.000,220.900,32.360,4.685,965.900,145.900,17.580,2.557,141.000,23.110,4.557,1.047,324.200,58.030,11.570,2.479,hard
1234.000,220.200,32.760,4.730,969.200,146.800,17.740,2.575,139.900,23.530,4.528,1.047,326.600,58.450,11.530,2.482,hard
1245.000,223.400,32.900,4.710,975.000,147.500,17.870,2.554,139.700,23.680,4.576,1.052,330.000,58.810,11.610,2.484,hard
1232.000,219.500,31.700,4.650,961.100,145.700,17.640,2.559,141.900,23.430,4.471,1.020,316.200,57.140,11.140,2.356,hard
1207.000,220.300,31.650,4.576,958.200,145.200,17.610,2.574,139.800,23.180,4.438,1.029,314.200,56.020,11.060,2.353,hard
1203.000,216.100,31.660,4.582,955.900,145.100,17.720,2.580,137.700,23.190,4.424,1.030,313.700,56.320,11.150,2.348,hard
1205.000,214.900,31.900,4.561,961.000,145.000,17.570,2.599,139.800,22.870,4.467,1.016,316.000,56.340,11.050,2.342,hard
1206.000,214.000,31.660,4.580,963.500,146.100,17.510,2.583,139.800,23.020,4.421,1.020,315.800,56.220,11.070,2.348,hard
1207.000,215.400,32.350,4.561,952.700,144.400,17.550,2.554,138.000,23.220,4.445,1.024,315.000,56.290,11.060,2.393,hard
1212.000,217.900,31.720,4.637,959.000,145.500,17.570,2.596,137.200,23.040,4.463,1.022,318.300,56.780,11.200,2.396,hard
1221.000,219.100,32.440,4.617,966.700,146.400,17.480,2.584,138.800,23.050,4.475,1.029,319.900,57.460,11.320,2.404,hard
1227.000,219.600,32.330,4.666,969.800,146.200,17.830,2.547,137.900,23.000,4.495,1.040,323.000,57.590,11.330,2.452,hard
1233.000,221.300,32.300,4.724,968.800,146.300,17.670,2.568,139.700,23.470,4.497,1.038,323.600,58.020,11.570,2.454,hard
1244.000,223.000,32.400,4.751,973.400,147.500,17.810,2.561,143.700,23.200,4.491,1.030,327.900,58.700,11.550,2.477,hard
1253.000,224.400,32.550,4.765,970.800,146.400,17.730,2.582,142.700,22.980,4.571,1.039,329.300,58.060,11.260,2.412,hard
1227.000,219.200,32.080,4.578,964.000,146.200,17.540,2.607,139.800,23.440,4.395,1.010,315.400,56.260,10.940,2.341,hard
1209.000,217.600,31.700,4.578,959.700,146.100,17.700,2.588,139.200,22.990,4.401,1.010,313.000,55.890,10.970,2.313,hard
1207.000,218.200,32.000,4.577,958.000,145.700,17.510,2.562,138.500,22.700,4.425,1.009,314.000,55.980,11.070,2.353,hard
1211.000,218.500,32.030,4.594,965.400,146.700,17.580,2.622,139.100,22.870,4.381,1.012,315.300,56.350,11.000,2.359,hard
1211.000,218.600,31.710,4.551,966.100,145.700,17.600,2.574,140.300,23.100,4.384,1.012,315.200,56.500,10.980,2.371,hard
1213.000,218.100,31.800,4.614,971.700,145.700,17.500,2.594,139.000,22.690,4.396,1.009,315.000,56.380,11.060,2.397,hard
1223.000,219.100,32.380,4.709,964.100,146.900,17.780,2.585,138.200,23.100,4.407,1.019,319.300,57.200,11.260,2.409,hard
1232.000,222.100,32.400,4.658,973.000,146.600,17.680,2.622,137.400,22.820,4.435,1.035,321.800,57.440,11.350,2.461,hard
1238.000,221.700,32.420,4.737,976.800,147.000,17.710,2.557,139.300,23.280,4.469,1.020,325.300,57.810,11.460,2.483,hard
1245.000,222.800,33.410,4.682,973.000,147.300,17.830,2.592,140.500,23.060,4.471,1.043,328.200,58.410,11.530,2.525,hard
1254.000,226.900,32.850,4.812,978.000,149.000,17.880,2.612,137.900,23.120,4.491,1.037,331.100,58.810,11.590,2.542,hard
1257.000,225.300,32.630,4.749,973.600,147.700,17.750,2.633,141.000,23.400,4.502,1.029,323.000,57.180,11.270,2.379,hard
1224.000,220.000,32.230,4.569,972.200,146.100,17.590,2.581,136.600,22.940,4.370,1.021,315.200,56.210,11.170,2.349,hard
1217.000,217.800,32.080,4.625,972.400,146.300,17.670,2.583,138.000,22.640,4.426,1.011,315.000,56.550,11.060,2.379,hard
1219.000,217.700,32.240,4.633,968.300,147.200,17.820,2.597,140.900,22.860,4.385,1.018,318.100,56.990,11.220,2.377,hard
1217.000,216.900,31.960,4.614,966.700,146.500,17.520,2.595,141.500,23.330,4.406,1.006,317.800,56.500,11.040,2.372,hard
1217.000,219.400,32.200,4.643,971.200,146.700,17.630,2.590,141.500,23.240,4.399,1.012,316.200,56.950,11.190,2.378,hard
1222.000,218.200,32.140,4.628,963.000,146.700,17.640,2.580,137.600,23.010,4.431,1.014,320.400,57.260,11.290,2.429,hard
1228.000,220.200,32.600,4.668,976.700,147.200,17.710,2.603,139.600,23.000,4.451,1.025,322.900,57.730,11.330,2.468,hard
1234.000,221.800,32.500,4.668,971.300,147.300,17.670,2.612,142.000,23.010,4.395,1.039,326.400,58.090,11.560,2.491,hard
1240.000,221.300,32.730,4.757,977.700,147.100,17.830,2.634,141.900,22.770,4.484,1.041,327.300,58.440,11.530,2.495,hard
1251.000,224.700,33.470,4.751,971.600,147.300,17.740,2.590,142.000,23.360,4.405,1.047,330.000,59.000,11.550,2.434,hard
1234.000,219.900,32.330,4.655,972.000,146.500,17.590,2.608,141.900,22.720,4.490,1.018,316.400,56.410,11.080,2.374,hard
1216.000,218.100,32.160,4.674,968.700,145.500,17.920,2.621,139.000,22.910,4.415,1.015,314.900,56.430,11.040,2.384,hard
1214.000,217.400,31.500,4.620,967.800,146.100,17.960,2.593,137.000,22.890,4.344,1.018,316.200,56.490,11.080,2.398,hard
1219.000,217.200,31.820,4.550,969.300,146.300,17.650,2.596,140.300,22.820,4.424,1.029,317.100,56.840,11.160,2.397,hard
1217.000,218.400,31.600,4.607,965.600,146.300,17.520,2.560,141.200,22.870,4.419,0.997,318.400,56.760,11.320,2.410,hard
1219.000,219.700,32.180,4.675,964.200,146.600,17.650,2.578,138.600,23.010,4.446,1.014,319.200,56.890,11.260,2.418,hard
1227.000,220.200,32.250,4.648,966.000,146.000,17.540,2.622,140.100,23.100,4.396,1.009,321.800,57.560,11.430,2.467,hard
1233.000,222.100,32.490,4.698,972.900,147.200,17.500,2.561,138.200,22.520,4.407,1.023,325.200,57.820,11.580,2.488,hard
1239.000,222.900,32.520,4.696,967.000,147.200,17.690,2.582,139.200,23.090,4.394,1.017,327.900,58.840,11.610,2.509,hard
1246.000,225.000,33.020,4.790,978.100,147.300,17.820,2.602,140.900,23.470,4.519,1.044,329.900,58.770,11.710,2.527,hard
1256.000,224.700,33.100,4.774,979.200,147.600,17.840,2.561,145.100,23.300,4.499,1.049,331.700,58.780,11.470,2.480,hard
1230.000,220.500,32.370,4.633,974.200,146.900,17.740,2.578,139.800,23.150,4.436,1.020,315.800,56.530,10.980,2.366,hard
1215.000,218.300,32.280,4.621,967.700,146.800,17.690,2.585,140.000,22.990,4.383,1.005,313.500,56.350,11.080,2.392,hard
1212.000,217.700,32.100,4.610,964.500,144.900,17.580,2.591,139.600,23.030,4.401,1.007,315.700,56.580,11.160,2.390,hard
1216.000,217.900,31.960,4.662,964.600,146.900,17.750,2.555,136.800,22.970,4.446,1.014,316.400,56.520,11.090,2.407,hard
1214.000,216.100,32.140,4.584,965.700,147.100,17.650,2.600,139.200,22.770,4.381,1.024,316.200,56.670,11.230,2.388,hard
1215.000,220.400,32.010,4.653,963.000,146.100,17.740,2.613,140.000,23.140,4.408,1.012,318.100,56.880,11.180,2.420,hard
1221.000,215.800,32.390,4.671,972.500,146.800,17.560,2.607,138.200,22.810,4.461,1.027,320.800,57.530,11.220,2.446,hard
1229.000,220.900,32.310,4.700,972.400,147.400,17.660,2.593,140.600,23.050,4.486,1.026,324.400,57.400,11.400,2.487,hard
1233.000,220.300,32.750,4.725,973.300,148.000,17.830,2.623,141.500,23.160,4.470,1.020,325.100,58.270,11.470,2.495,hard
1238.000,222.500,32.780,4.759,978.800,147.500,17.710,2.604,142.000,23.010,4.448,1.028,329.100,58.490,11.500,2.512,hard
1248.000,222.400,32.460,4.749,973.000,147.200,18.000,2.617,142.300,23.420,4.528,1.036,326.700,57.770,11.450,2.420,hard
1222.000,219.300,31.740,4.588,966.000,147.100,17.750,2.566,143.000,23.350,4.378,0.995,315.400,55.950,11.050,2.362,hard
1207.000,215.600,32.220,4.535,965.700,147.000,17.610,2.588,142.300,22.990,4.393,0.993,313.800,55.970,11.020,2.339,hard
1205.000,215.500,31.380,4.629,966.300,147.600,17.740,2.596,139.900,22.910,4.407,1.000,313.800,56.040,11.050,2.391,hard
1209.000,217.500,31.830,4.620,965.200,147.300,17.670,2.579,137.600,22.810,4.408,1.011,315.800,56.460,11.110,2.390,hard
1208.000,215.900,31.990,4.583,965.100,146.200,17.680,2.572,137.500,23.040,4.391,1.016,316.300,56.650,11.090,2.362,hard
1210.000,217.500,32.190,4.649,960.600,146.700,17.620,2.608,139.200,23.050,4.444,1.006,316.600,57.000,11.090,2.438,hard
1216.000,217.100,32.250,4.591,967.900,145.900,17.610,2.574,140.200,22.880,4.425,1.011,320.500,57.260,11.330,2.459,hard
1223.000,218.300,32.160,4.636,965.100,147.100,17.640,2.599,142.600,23.030,4.452,1.021,323.400,57.430,11.390,2.472,hard
1227.000,220.300,32.390,4.638,966.700,147.300,17.510,2.596,140.200,22.870,4.487,1.022,324.800,58.160,11.450,2.482,hard
1236.000,220.800,32.230,4.705,972.600,146.600,17.760,2.601,141.400,23.360,4.483,1.016,328.700,58.670,11.720,2.519,hard
1239.000,221.900,32.190,4.725,978.200,147.500,17.780,2.596,140.700,23.680,4.440,1.017,317.200,56.990,11.080,2.374,hard
1211.000,216.500,31.210,4.591,961.100,147.000,17.740,2.588,140.000,23.140,4.416,1.009,313.700,56.170,11.010,2.340,hard
1205.000,215.800,31.840,4.594,965.800,145.600,17.620,2.587,138.800,22.910,4.382,1.016,313.900,56.210,11.010,2.361,hard
1205.000,216.900,31.910,4.661,964.700,146.700,17.620,2.612,140.200,22.500,4.377,1.008,316.700,56.520,11.140,2.392,hard
1208.000,217.600,31.220,4.585,964.600,145.900,17.660,2.590,140.500,23.220,4.419,1.007,313.900,56.620,11.030,2.373,hard
1206.000,216.500,31.700,4.541,965.000,146.000,17.750,2.588,139.800,23.200,4.416,0.999,315.400,56.550,11.120,2.403,hard
1210.000,216.800,32.010,4.606,968.600,147.100,17.750,2.573,141.500,23.270,4.463,1.018,318.100,57.260,11.240,2.417,hard
1216.000,219.400,32.200,4.596,973.600,147.300,17.700,2.622,141.000,23.080,4.472,1.025,319.900,57.600,11.320,2.433,hard
1223.000,220.500,31.890,4.579,964.200,147.700,17.870,2.584,138.600,23.290,4.465,1.026,323.500,57.690,11.380,2.471,hard
1226.000,220.000,32.160,4.729,970.600,147.200,17.870,2.611,140.900,23.380,4.533,1.028,324.200,58.150,11.630,2.484,hard
1234.000,221.400,32.730,4.702,981.100,147.400,17.890,2.604,141.200,23.560,4.460,1.028,327.000,58.390,11.400,2.453,hard
1223.000,218.100,31.890,4.562,969.400,146.700,17.690,2.603,139.700,23.640,4.438,1.010,314.500,56.620,11.000,2.350,hard
1204.000,215.200,31.680,4.557,969.500,147.700,17.580,2.592,136.100,22.960,4.376,1.008,312.400,56.390,10.970,2.340,hard
1203.000,216.900,31.370,4.542,970.000,146.100,17.840,2.582,139.800,22.710,4.400,1.001,313.800,56.340,11.210,2.400,hard
1206.000,217.100,31.690,4.583,966.600,146.900,17.720,2.593,140.700,23.390,4.423,1.012,315.300,56.380,11.110,2.377,hard
1204.000,215.800,31.600,4.505,964.800,146.100,17.870,2.622,138.000,23.110,4.424,1.012,315.900,56.460,11.150,2.378,hard
1206.000,219.700,31.820,4.553,968.800,148.000,17.730,2.637,139.500,22.990,4.394,1.019,316.700,57.180,11.280,2.442,hard
1210.000,218.000,31.770,4.626,970.800,147.100,17.770,2.630,139.200,23.050,4.437,1.024,319.200,57.440,11.320,2.437,hard
1217.000,218.900,32.070,4.595,968.500,148.400,17.630,2.634,142.300,23.510,4.442,1.015,321.400,57.650,11.340,2.453,hard
1223.000,218.700,32.320,4.665,969.600,147.000,17.840,2.621,140.000,23.290,4.470,1.039,323.700,57.950,11.490,2.463,hard
1230.000,219.500,32.750,4.734,972.300,147.600,17.820,2.619,136.300,23.270,4.468,1.032,326.400,58.670,11.570,2.486,hard
1230.000,220.400,32.300,4.637,970.000,147.800,17.790,2.653,136.500,23.390,4.493,1.006,317.300,56.750,11.080,2.378,hard
1204.000,215.300,31.680,4.547,965.800,146.500,17.880,2.569,138.700,23.190,4.444,1.004,314.100,56.020,11.020,2.372,hard
1201.000,215.900,31.710,4.518,964.500,146.600,17.840,2.585,136.000,22.800,4.334,0.995,313.300,56.100,11.040,2.366,hard
1200.000,216.500,31.500,4.557,967.500,146.800,17.690,2.638,137.900,22.820,4.374,0.998,315.100,56.710,11.100,2.407,hard
1201.000,214.700,31.400,4.502,970.600,146.200,17.780,2.578,135.500,23.080,4.407,1.012,316.300,56.830,11.170,2.361,hard
1201.000,216.400,32.010,4.564,967.100,146.300,17.890,2.617,136.600,23.240,4.433,0.996,317.100,56.370,11.180,2.435,hard
1205.000,218.200,31.800,4.544,968.900,146.500,17.820,2.632,137.500,23.040,4.425,1.007,316.900,56.800,11.280,2.425,hard
1212.000,218.800,32.170,4.548,972.300,146.700,17.700,2.600,137.800,23.050,4.415,1.004,321.700,58.070,11.300,2.453,hard
1218.000,218.500,32.670,4.617,976.700,146.900,17.710,2.619,139.000,23.510,4.477,1.017,324.500,57.610,11.430,2.503,hard
1223.000,219.000,32.650,4.632,976.500,147.700,18.000,2.659,139.200,23.200,4.427,1.020,325.800,58.230,11.470,2.500,hard
1232.000,219.300,32.350,4.683,983.600,148.100,17.970,2.592,139.400,22.800,4.432,1.022,324.700,58.540,11.530,2.486,hard
1225.000,218.400,32.340,4.591,973.000,149.300,18.010,2.658,139.900,22.870,4.480,1.014,313.700,56.350,10.980,2.371,hard
1201.000,215.600,31.530,4.540,967.200,146.800,17.850,2.610,141.300,22.960,4.383,1.001,312.200,55.880,11.020,2.346,hard
1196.000,215.000,31.830,4.538,966.600,147.300,17.560,2.621,138.000,22.620,4.350,1.000,312.900,55.780,11.060,2.359,hard
1198.000,214.200,31.230,4.546,971.800,147.500,17.660,2.607,137.900,22.580,4.387,0.993,314.500,56.160,11.020,2.351,hard
1197.000,216.300,31.330,4.560,963.600,147.100,17.650,2.624,138.200,22.470,4.396,1.009,313.700,56.270,11.090,2.349,hard
1197.000,215.000,31.640,4.554,966.400,146.800,17.560,2.593,138.400,22.850,4.307,1.014,315.700,56.250,11.150,2.390,hard
1203.000,215.100,31.750,4.549,968.600,147.100,17.500,2.622,138.300,22.830,4.403,1.004,316.800,56.700,11.130,2.414,hard
1209.000,216.100,31.680,4.617,968.900,147.100,17.820,2.612,140.600,22.750,4.399,1.018,320.300,57.160,11.250,2.474,hard
1216.000,216.800,32.220,4.628,973.400,147.300,17.650,2.662,138.600,22.990,4.441,1.034,321.800,57.790,11.320,2.483,hard
1219.000,220.000,32.200,4.622,974.500,147.100,17.830,2.622,139.100,22.820,4.412,1.014,325.700,58.070,11.420,2.506,hard
1229.000,220.300,32.620,4.721,979.700,149.100,17.930,2.623,139.000,22.820,4.466,1.032,328.100,58.640,11.490,2.500,hard
1239.000,222.000,32.570,4.697,976.600,148.400,17.770,2.632,140.000,23.440,4.475,1.020,326.500,57.380,11.230,2.402,hard
1210.000,216.900,31.850,4.573,971.000,146.800,17.610,2.609,136.500,22.960,4.360,1.001,312.900,56.240,11.040,2.327,hard
1199.000,214.800,31.510,4.612,972.600,147.800,17.920,2.602,137.700,22.860,4.367,1.007,312.000,56.000,10.980,2.371,hard
1197.000,213.900,31.130,4.594,966.400,147.500,17.370,2.636,136.700,22.560,4.364,0.991,313.400,56.150,10.940,2.357,hard
1199.000,216.300,31.660,4.565,973.800,147.000,17.880,2.621,140.200,22.730,4.388,0.996,312.600,55.820,10.990,2.330,hard
1198.000,215.200,31.860,4.499,961.600,147.500,17.700,2.602,135.400,22.740,4.352,0.993,312.100,55.950,11.060,2.372,hard
1202.000,216.700,31.590,4.531,967.100,146.400,17.830,2.617,138.600,22.840,4.386,1.010,315.200,56.290,11.140,2.381,hard
1206.000,216.100,31.460,4.567,973.400,147.200,18.000,2.652,136.800,22.810,4.379,1.005,317.700,56.630,11.230,2.420,hard
1213.000,218.000,31.850,4.585,974.300,147.200,17.800,2.636,140.000,22.960,4.376,1.023,319.700,57.070,11.360,2.425,hard
1218.000,218.600,31.990,4.678,969.800,148.700,17.850,2.644,138.900,23.220,4.371,1.023,320.600,57.200,11.400,2.428,hard
1225.000,219.600,32.540,4.648,978.800,148.100,17.860,2.658,136.800,22.970,4.433,1.036,323.500,57.240,11.260,2.421,hard
1215.000,217.000,31.600,4.587,975.300,147.600,17.810,2.624,139.400,22.550,4.366,1.003,310.800,55.310,10.880,2.349,hard
1198.000,213.800,31.570,4.552,968.400,147.500,17.590,2.612,135.600,22.800,4.382,0.983,309.300,55.260,10.880,2.322,hard
1195.000,214.100,31.360,4.587,967.400,147.000,17.880,2.604,138.200,22.730,4.412,0.991,310.900,55.380,10.920,2.380,hard
1199.000,216.000,31.910,4.490,969.500,147.600,17.780,2.641,137.500,22.530,4.381,1.018,313.100,55.600,10.960,2.370,hard
1199.000,215.600,31.530,4.551,969.200,147.800,17.750,2.597,139.600,23.460,4.378,1.002,313.900,56.060,10.950,2.359,hard
1200.000,216.100,31.470,4.588,974.000,146.400,17.830,2.603,137.900,22.720,4.361,1.007,313.900,55.990,11.010,2.369,hard
1207.000,215.800,31.790,4.607,970.300,146.900,17.820,2.620,135.600,22.820,4.405,1.004,317.300,56.580,11.110,2.416,hard
1214.000,217.500,32.090,4.594,971.100,148.300,17.760,2.655,136.900,22.790,4.458,1.001,320.300,56.960,11.210,2.428,hard
1219.000,219.100,31.990,4.655,974.800,147.500,17.930,2.625,137.500,22.820,4.413,1.024,322.000,57.480,11.180,2.448,hard
1225.000,219.600,32.100,4.641,981.500,148.200,17.790,2.646,138.100,23.140,4.425,1.030,323.800,57.920,11.430,2.495,hard
1235.000,220.600,32.770,4.702,984.600,148.100,18.040,2.650,139.900,23.010,4.408,1.022,324.300,57.440,11.260,2.364,hard
1209.000,216.500,32.010,4.511,973.100,148.700,17.690,2.595,139.800,22.530,4.402,1.003,311.300,55.460,10.920,2.336,hard
1197.000,214.100,31.280,4.545,969.500,147.100,17.860,2.628,140.000,22.590,4.325,1.001,309.200,55.640,10.930,2.350,hard
1196.000,213.500,31.710,4.536,971.900,147.200,17.800,2.625,135.800,22.610,4.322,1.012,311.900,55.440,10.910,2.353,hard
1198.000,214.500,31.520,4.539,969.000,146.600,17.860,2.614,137.900,22.900,4.398,0.999,313.100,55.840,10.910,2.342,hard
1197.000,214.800,31.700,4.549,973.300,146.700,17.680,2.630,139.100,23.270,4.396,0.994,312.000,55.320,10.900,2.387,hard
1200.000,215.900,31.290,4.597,977.600,147.600,17.750,2.623,139.400,22.750,4.422,1.004,314.600,55.950,11.010,2.384,hard
1206.000,216.600,31.370,4.591,977.500,146.300,18.110,2.616,140.400,23.010,4.413,1.008,317.000,56.240,11.190,2.416,hard
1212.000,218.100,31.680,4.637,974.200,147.800,17.860,2.631,136.200,22.880,4.421,1.019,320.400,57.260,11.170,2.450,hard
1218.000,219.400,32.160,4.591,978.400,147.800,17.830,2.656,137.500,23.070,4.399,1.028,322.300,57.350,11.350,2.439,hard
1224.000,219.800,32.380,4.625,982.700,148.100,17.980,2.643,139.800,23.180,4.473,1.025,325.500,58.130,11.440,2.484,hard
1236.000,218.500,32.260,4.698,978.300,149.800,17.860,2.610,140.600,23.240,4.447,1.020,329.000,58.740,11.510,2.502,hard
1225.000,219.300,32.290,4.626,976.700,147.900,17.760,2.638,139.700,23.030,4.437,1.016,314.600,56.130,11.030,2.331,hard
1200.000,215.500,31.570,4.540,968.600,147.900,17.760,2.623,137.600,22.970,4.375,1.007,312.500,55.640,10.910,2.323,hard
1197.000,216.000,31.510,4.590,971.400,147.400,17.860,2.627,137.100,22.970,4.390,0.999,311.700,55.820,10.950,2.343,hard
1198.000,215.700,31.580,4.593,967.900,148.100,17.640,2.618,137.200,22.840,4.364,0.997,313.100,55.620,10.930,2.349,hard
1199.000,216.000,31.320,4.527,972.700,148.100,17.770,2.611,138.700,23.240,4.364,0.994,313.200,55.960,10.990,2.387,hard
1200.000,215.200,31.130,4.601,964.900,146.900,17.720,2.617,136.900,22.750,4.376,1.015,313.200,56.070,11.010,2.398,hard
1205.000,215.600,31.690,4.575,978.400,147.600,18.050,2.634,139.500,23.140,4.402,1.026,315.800,56.740,11.170,2.399,hard
1212.000,217.500,31.850,4.607,969.100,148.100,17.850,2.646,138.800,23.310,4.408,1.006,317.900,57.060,11.260,2.445,hard
1219.000,219.200,31.850,4.589,976.100,147.900,18.020,2.603,139.000,22.780,4.475,1.016,320.800,57.210,11.300,2.440,hard
1224.000,220.500,32.670,4.652,977.700,148.800,17.820,2.655,138.200,23.160,4.457,1.026,322.600,57.780,11.420,2.460,hard
1233.000,222.800,32.430,4.663,983.000,148.700,18.100,2.622,138.000,23.480,4.427,1.025,324.000,57.680,11.420,2.426,hard
1218.000,217.700,31.880,4.590,976.500,149.200,17.810,2.612,138.400,22.790,4.355,1.021,312.000,55.310,11.040,2.322,hard
1203.000,215.700,31.730,4.605,971.600,147.900,17.980,2.660,136.500,22.960,4.387,0.988,311.200,55.210,10.910,2.342,hard
1199.000,214.400,31.680,4.547,963.700,147.100,17.870,2.600,138.300,23.090,4.395,0.996,311.500,55.880,10.940,2.346,hard
1202.000,217.300,31.580,4.501,968.600,147.600,17.760,2.633,138.500,22.610,4.393,0.998,311.500,56.040,11.100,2.348,hard
1199.000,215.900,31.930,4.523,965.100,148.300,18.010,2.622,138.200,22.860,4.381,1.006,312.900,55.700,11.000,2.354,hard
1203.000,216.100,31.620,4.607,970.900,148.500,17.920,2.621,135.200,22.710,4.380,1.006,314.200,56.300,11.070,2.388,hard
1208.000,216.700,31.430,4.607,974.400,148.600,17.830,2.619,137.800,22.660,4.363,1.002,316.900,56.860,11.280,2.412,hard
1214.000,218.400,31.770,4.648,979.800,147.600,17.970,2.588,141.100,23.030,4.403,1.005,320.300,57.070,11.200,2.434,hard
1221.000,218.300,32.230,4.653,978.900,148.400,17.920,2.663,143.100,23.310,4.420,1.016,321.600,57.500,11.360,2.471,hard
1226.000,218.300,32.300,4.625,987.200,148.400,18.050,2.630,141.300,22.920,4.442,1.004,322.700,57.830,11.410,2.457,hard
1217.000,216.300,31.930,4.584,974.500,148.300,17.830,2.660,136.300,22.730,4.412,1.005,312.500,55.850,11.060,2.341,hard
1198.000,215.100,31.820,4.538,971.600,147.200,18.000,2.612,138.500,22.730,4.365,0.995,308.200,55.640,10.870,2.366,hard
1196.000,214.900,31.440,4.522,972.200,147.900,17.910,2.653,136.900,22.890,4.381,0.994,311.100,55.570,10.990,2.335,hard
1197.000,215.900,31.140,4.540,975.500,147.800,17.620,2.630,140.300,22.540,4.397,1.002,312.100,56.120,11.050,2.352,hard
1197.000,213.700,31.430,4.564,970.500,147.000,17.840,2.621,138.200,22.910,4.388,0.981,311.600,56.090,11.000,2.371,hard
1198.000,216.100,31.570,4.551,969.500,147.600,17.580,2.626,136.600,22.560,4.395,0.985,312.600,56.440,11.160,2.388,hard
1202.000,215.500,31.570,4.577,975.000,147.600,17.690,2.611,141.500,22.740,4.441,1.007,316.400,56.840,11.100,2.404,hard
1210.000,217.000,31.620,4.629,964.900,148.100,17.790,2.625,139.400,23.180,4.431,1.003,319.600,57.200,11.350,2.451,hard
1214.000,218.800,31.940,4.661,973.400,147.600,17.940,2.604,139.000,23.020,4.460,1.002,320.700,57.820,11.370,2.448,hard
1220.000,218.600,32.020,4.654,979.900,149.400,17.970,2.625,139.700,23.500,4.458,1.025,322.400,58.120,11.500,2.496,hard
1230.000,220.600,32.270,4.621,982.500,148.300,17.960,2.626,139.200,23.540,4.486,1.019,324.000,58.350,11.310,2.426,hard
1213.000,217.100,31.500,4.562,967.700,148.000,17.740,2.620,135.900,23.390,4.336,0.998,312.000,55.710,10.970,2.352,hard
1194.000,212.400,31.820,4.440,969.400,146.300,17.530,2.662,139.600,23.220,4.378,0.998,311.000,55.710,10.980,2.340,hard
1190.000,213.800,31.610,4.509,966.300,146.900,17.820,2.599,136.400,23.240,4.394,0.990,312.200,55.810,11.050,2.355,hard
1193.000,215.600,31.810,4.488,966.300,147.500,17.840,2.610,142.000,22.940,4.379,1.001,311.300,55.670,11.060,2.343,hard
1191.000,214.200,31.290,4.518,963.400,147.400,17.620,2.621,137.200,22.930,4.394,1.013,312.000,56.170,10.990,2.352,hard
1194.000,215.200,31.410,4.497,971.700,147.400,17.770,2.640,139.700,23.280,4.364,1.001,314.600,56.210,11.090,2.383,hard
1198.000,215.600,31.890,4.548,966.300,147.500,17.820,2.635,138.400,22.950,4.441,1.007,316.000,56.580,11.170,2.403,hard
1206.000,217.000,31.510,4.585,973.900,147.400,17.840,2.625,138.400,23.230,4.403,1.011,320.700,57.160,11.330,2.439,hard
1211.000,216.000,31.750,4.566,969.700,147.100,17.900,2.576,140.300,23.340,4.450,1.021,322.600,57.450,11.400,2.445,hard
1216.000,219.500,32.250,4.593,979.500,147.900,17.760,2.651,138.900,23.430,4.477,1.015,323.000,57.990,11.650,2.466,hard
1225.000,219.800,32.120,4.661,979.500,148.400,17.800,2.635,140.700,23.310,4.436,1.033,324.900,57.470,11.320,2.379,hard
1206.000,214.500,31.900,4.507,967.400,147.700,17.980,2.616,137.500,22.950,4.452,0.997,312.900,56.220,11.010,2.342,hard
1193.000,214.200,31.410,4.570,970.200,147.300,17.660,2.637,138.600,22.870,4.369,1.003,312.400,55.700,10.980,2.332,hard
1189.000,213.400,31.610,4.513,967.100,147.400,17.790,2.616,139.200,22.970,4.420,1.009,311.000,56.360,11.040,2.382,hard
1193.000,214.700,31.180,4.490,966.100,148.400,17.760,2.615,138.800,22.650,4.436,1.002,312.700,56.030,11.040,2.366,hard
1192.000,212.800,31.040,4.563,967.500,147.600,17.780,2.624,137.100,22.730,4.482,1.001,312.200,56.270,11.080,2.370,hard
1195.000,214.500,31.700,4.528,966.500,148.000,17.850,2.601,136.100,23.130,4.362,1.002,316.200,56.670,11.180,2.369,hard
1200.000,215.000,31.200,4.621,964.800,148.400,17.920,2.615,137.500,23.300,4.462,1.008,319.200,56.890,11.230,2.415,hard
1206.000,214.600,31.480,4.622,976.600,147.300,17.960,2.590,138.500,23.290,4.391,1.007,319.800,57.260,11.290,2.441,hard
1212.000,216.200,31.640,4.618,975.200,147.400,17.820,2.637,139.000,22.860,4.455,0.998,322.000,57.520,11.350,2.440,hard
1219.000,218.100,31.850,4.597,975.900,148.700,18.000,2.648,137.700,23.230,4.449,1.017,324.000,58.420,11.440,2.467,hard
1210.000,216.900,31.670,4.528,975.700,147.200,17.960,2.654,139.000,23.090,4.372,1.007,313.700,56.260,10.930,2.362,hard
1192.000,212.100,31.340,4.574,966.000,147.000,17.650,2.627,135.600,23.210,4.377,1.006,313.000,55.860,10.840,2.351,hard
1188.000,214.000,31.360,4.531,971.300,146.600,17.570,2.635,140.600,23.100,4.321,1.004,313.200,56.230,11.020,2.367,hard
1191.000,214.000,31.950,4.486,967.100,146.800,17.730,2.613,138.900,22.790,4.367,1.010,314.000,56.190,11.160,2.370,hard
1191.000,212.500,31.360,4.484,968.400,147.000,17.670,2.597,136.200,22.960,4.419,1.004,313.100,56.300,10.890,2.377,hard
1192.000,212.700,31.250,4.522,966.500,147.300,17.870,2.611,137.300,22.680,4.375,1.004,314.600,56.460,11.220,2.396,hard
1198.000,213.700,31.330,4.580,968.700,146.700,17.800,2.590,138.400,22.950,4.399,1.018,316.200,56.730,11.200,2.442,hard
1204.000,216.600,32.080,4.552,970.300,147.100,17.720,2.643,137.900,23.020,4.404,1.016,320.100,57.240,11.300,2.433,hard
1209.000,215.800,31.420,4.590,974.400,147.100,17.790,2.633,138.800,23.000,4.402,1.003,321.400,57.790,11.330,2.450,hard
1216.000,220.100,31.950,4.662,976.400,148.300,17.940,2.663,140.800,23.300,4.400,1.013,323.300,57.860,11.540,2.460,hard
1225.000,219.400,32.150,4.642,978.600,147.300,18.200,2.653,137.700,23.200,4.446,1.009,323.100,57.430,11.290,2.377,hard
1203.000,216.900,31.700,4.535,968.500,147.700,17.790,2.605,139.400,23.210,4.384,0.998,310.300,55.860,10.910,2.323,hard
1190.000,213.000,30.990,4.449,969.700,147.100,17.910,2.632,137.500,23.040,4.349,0.985,311.300,55.710,11.000,2.381,hard
1186.000,211.700,31.370,4.460,967.900,146.900,17.690,2.606,135.800,22.840,4.327,0.998,311.800,56.030,11.060,2.373,hard
1189.000,214.000,30.950,4.476,970.400,147.000,17.580,2.640,139.400,22.600,4.383,1.007,312.300,55.730,10.980,2.353,hard
1187.000,212.200,30.940,4.485,959.900,147.100,17.740,2.598,136.400,23.120,4.367,0.993,311.900,55.670,11.100,2.371,hard
1188.000,213.100,31.400,4.537,965.700,147.600,17.710,2.611,134.100,22.680,4.355,0.994,314.000,56.440,11.120,2.395,hard
1194.000,215.800,31.620,4.585,966.600,147.700,17.830,2.631,134.000,22.650,4.381,0.997,317.000,56.890,11.130,2.435,hard
1200.000,215.300,31.660,4.556,968.600,146.500,17.820,2.608,138.500,22.750,4.390,0.995,319.700,56.840,11.190,2.446,hard
1205.000,215.400,31.330,4.649,973.500,147.300,17.680,2.608,139.600,23.160,4.391,1.012,321.000,57.310,11.340,2.451,hard
1212.000,217.500,31.470,4.641,975.900,146.800,17.960,2.643,133.600,23.010,4.409,1.014,323.100,57.620,11.350,2.445,hard
1222.000,218.000,31.740,4.592,976.000,148.200,17.860,2.634,141.400,23.040,4.427,1.019,326.000,58.340,11.570,2.485,hard
1220.000,215.900,31.640,4.619,977.400,148.200,17.840,2.639,141.300,23.440,4.461,1.011,314.100,56.210,11.000,2.355,hard
1192.000,215.800,31.220,4.506,970.400,146.900,17.770,2.589,138.400,22.710,4.388,0.991,313.000,55.720,10.800,2.356,hard
1185.000,213.100,31.240,4.495,965.300,146.500,17.690,2.628,134.800,22.880,4.366,0.988,312.800,55.590,11.000,2.345,hard
1186.000,211.200,31.340,4.461,966.000,146.500,17.730,2.599,135.700,22.670,4.364,1.004,313.800,55.850,11.080,2.358,hard
1187.000,211.900,30.930,4.482,964.300,146.400,17.950,2.633,139.800,23.150,4.319,0.986,312.800,56.050,11.090,2.361,hard
1188.000,214.100,31.600,4.509,968.600,146.800,17.820,2.609,136.600,22.920,4.366,0.988,313.400,56.190,11.010,2.366,hard
1192.000,213.600,31.390,4.552,971.900,148.000,17.760,2.599,136.600,23.160,4.413,0.999,314.100,56.800,11.130,2.425,hard
1199.000,215.200,31.260,4.593,971.600,147.400,17.690,2.567,136.500,22.630,4.420,1.017,317.600,57.030,11.290,2.432,hard
1203.000,216.800,31.130,4.619,974.400,147.400,17.760,2.600,140.100,23.210,4.443,1.004,321.600,57.430,11.340,2.437,hard
