A-DC1,A-DC2,A-DC3,A-DC4,A-DC5,A-DC6,A-DC7,A-DC8,B-DC1,B-DC2,B-DC3,B-DC4,B-DC5,B-DC6,B-DC7,B-DC8,condition
1269.000,298.100,76.840,16.770,1541.000,282.500,67.710,14.780,283.900,66.810,17.350,5.770,405.800,102.300,25.110,8.348,baseline
1278.000,301.300,77.760,16.860,1531.000,281.200,67.330,14.720,288.200,67.130,17.350,5.821,406.200,103.300,25.230,8.408,baseline
1270.000,297.700,76.760,16.780,1541.000,281.600,67.420,14.690,281.300,66.220,17.380,5.813,407.600,103.000,25.160,8.408,baseline
1275.000,298.000,77.730,16.830,1544.000,282.500,67.720,14.770,285.700,66.970,17.480,5.826,409.600,103.200,25.450,8.462,baseline
1293.000,303.200,78.330,17.240,1554.000,285.900,68.210,14.890,282.400,67.750,17.620,5.873,411.600,104.600,25.560,8.601,baseline
1317.000,309.300,79.820,17.340,1566.000,287.700,68.490,14.900,289.400,67.910,17.580,5.913,415.800,105.400,25.860,8.593,baseline
1314.000,306.400,77.750,16.910,1538.000,282.900,67.170,14.630,287.200,66.950,17.460,5.818,407.900,102.400,25.040,8.345,baseline
1271.000,297.700,76.240,16.680,1547.000,283.000,67.530,14.660,284.100,66.420,17.400,5.810,405.300,102.300,25.050,8.388,baseline
1297.000,304.000,77.950,17.040,1566.000,287.600,68.150,14.830,286.900,67.090,17.540,5.853,408.300,102.900,25.240,8.460,baseline
1318.000,308.700,79.020,17.130,1563.000,285.000,67.790,14.750,282.800,67.470,17.460,5.838,409.500,102.700,25.190,8.485,baseline
1312.000,308.000,79.200,17.160,1567.000,287.900,68.810,14.980,283.000,67.350,17.420,5.868,412.100,103.400,25.410,8.561,baseline
1332.000,311.200,80.270,17.460,1592.000,292.200,69.470,15.080,285.700,67.430,17.590,5.904,412.500,104.100,25.590,8.594,baseline
1362.000,318.700,82.610,17.810,1614.000,297.300,70.370,15.200,289.900,68.010,17.650,5.904,416.200,105.200,25.790,8.705,baseline
1386.000,324.700,82.810,18.080,1612.000,295.100,69.620,15.010,292.400,68.210,18.010,5.980,418.800,105.500,25.740,8.579,baseline
1341.000,309.900,79.470,17.290,1571.000,288.100,68.360,14.860,288.700,68.040,17.680,5.902,410.500,103.600,25.260,8.469,baseline
1313.000,307.800,78.890,17.200,1560.000,287.800,68.660,14.820,292.200,68.180,17.740,5.881,414.600,104.400,25.480,8.515,baseline
1316.000,307.400,79.950,17.470,1563.000,287.400,68.370,14.950,294.900,68.350,17.680,5.927,418.600,105.000,25.710,8.598,baseline
1316.000,306.600,79.010,17.320,1558.000,287.300,68.530,14.850,290.500,67.640,17.780,5.888,417.600,105.400,25.680,8.549,baseline
1311.000,308.700,79.870,17.380,1559.000,286.800,68.080,14.950,295.700,67.910,17.800,5.904,419.700,105.500,25.720,8.624,baseline
1315.000,309.100,80.300,17.420,1563.000,288.500,68.540,14.980,289.800,68.690,17.760,5.946,421.900,106.300,26.120,8.701,baseline
1324.000,312.200,80.920,17.640,1572.000,288.100,68.570,15.010,288.600,68.740,17.830,5.954,425.500,107.700,26.370,8.745,baseline
1316.000,308.900,78.730,17.120,1531.000,282.000,67.120,14.670,294.300,68.370,17.590,5.869,414.700,103.800,25.420,8.445,baseline
1274.000,297.600,77.310,16.800,1538.000,281.500,67.120,14.660,288.800,67.650,17.520,5.858,412.400,104.100,25.570,8.500,baseline
1279.000,301.600,78.150,17.130,1537.000,282.200,67.760,14.690,288.300,67.970,17.630,5.859,415.500,104.500,25.650,8.547,baseline
1287.000,301.400,78.550,17.150,1532.000,282.200,67.320,14.750,287.600,67.370,17.650,5.876,416.000,104.500,25.660,8.538,baseline
1281.000,301.200,78.450,17.230,1532.000,282.500,67.530,14.740,291.700,67.310,17.780,5.847,417.600,105.000,25.540,8.558,baseline
1289.000,303.800,78.800,17.310,1550.000,283.800,67.870,14.840,290.200,67.550,17.700,5.880,417.000,105.300,25.820,8.633,baseline
1301.000,306.000,79.800,17.550,1554.000,285.600,67.940,14.890,292.200,68.380,17.660,5.887,421.500,106.200,25.920,8.656,baseline
1302.000,304.700,77.980,17.170,1535.000,280.600,66.770,14.630,289.600,67.790,17.540,5.808,412.900,103.600,25.260,8.357,baseline
1264.000,297.800,76.900,16.710,1534.000,280.100,66.920,14.640,283.800,66.750,17.340,5.802,409.200,103.000,25.230,8.422,baseline
1266.000,296.100,77.220,16.910,1532.000,281.600,67.240,14.650,283.800,67.450,17.450,5.795,413.800,103.700,25.110,8.458,baseline
1274.000,299.600,77.360,16.850,1530.000,279.800,66.900,14.670,289.200,67.450,17.530,5.812,413.300,104.000,25.400,8.416,baseline
1268.000,298.700,77.100,16.990,1535.000,280.200,67.280,14.690,286.600,67.480,17.510,5.820,413.100,104.200,25.370,8.508,baseline
1275.000,300.900,77.710,17.210,1534.000,282.200,67.510,14.760,287.500,67.460,17.610,5.887,416.200,105.100,25.580,8.545,baseline
1286.000,302.300,78.300,17.270,1548.000,283.200,67.670,14.860,291.100,67.490,17.710,5.874,418.300,105.200,25.840,8.591,baseline
1291.000,301.700,77.700,17.070,1528.000,277.200,66.530,14.550,289.700,67.610,17.540,5.806,410.700,102.500,25.020,8.300,baseline
1243.000,290.700,75.300,16.670,1518.000,276.900,66.280,14.550,282.600,66.860,17.430,5.750,408.000,102.400,24.870,8.265,baseline
1244.000,290.800,75.770,16.710,1511.000,278.500,66.110,14.470,285.400,67.180,17.510,5.788,408.600,102.600,25.020,8.355,baseline
1250.000,292.900,75.970,16.640,1518.000,276.700,66.380,14.530,286.700,67.900,17.420,5.804,411.000,103.400,25.020,8.330,baseline
1246.000,291.900,75.220,16.710,1513.000,278.300,66.430,14.580,285.300,67.490,17.470,5.830,409.900,103.600,25.180,8.341,baseline
1252.000,295.500,76.740,16.780,1518.000,277.900,66.690,14.710,286.600,67.790,17.490,5.845,412.400,104.100,25.370,8.392,baseline
1264.000,298.000,76.690,16.950,1527.000,279.200,66.790,14.670,286.100,67.850,17.570,5.901,414.400,104.200,25.520,8.455,baseline
1274.000,298.700,77.890,17.060,1519.000,277.500,66.380,14.530,285.600,67.770,17.720,5.849,412.200,103.600,24.880,8.289,baseline
1234.000,287.900,74.480,16.380,1497.000,273.300,65.580,14.440,282.700,66.860,17.300,5.778,404.500,102.200,24.620,8.216,baseline
1226.000,286.200,74.610,16.370,1508.000,275.100,65.680,14.400,282.000,66.660,17.470,5.779,405.800,101.900,24.660,8.258,baseline
1232.000,288.800,74.580,16.410,1509.000,274.600,66.140,14.460,287.500,66.720,17.420,5.796,407.500,102.200,24.850,8.169,baseline
1231.000,287.000,74.880,16.290,1508.000,273.400,65.730,14.480,280.700,67.190,17.480,5.818,407.000,102.400,24.930,8.259,baseline
1235.000,289.800,74.970,16.590,1513.000,276.700,66.120,14.570,287.900,67.410,17.460,5.851,408.700,102.700,24.980,8.319,baseline
1246.000,292.400,76.280,16.710,1518.000,277.400,66.390,14.570,288.900,67.420,17.540,5.849,410.600,103.700,25.240,8.401,baseline
1258.000,295.500,76.380,16.900,1526.000,279.200,66.690,14.720,287.800,67.370,17.560,5.924,413.400,104.600,25.410,8.470,baseline
1269.000,298.400,76.740,16.860,1516.000,277.100,66.240,14.470,288.500,68.340,17.720,5.922,410.600,102.500,24.970,8.230,baseline
1227.000,286.800,73.600,16.290,1499.000,273.200,65.910,14.370,283.300,67.360,17.390,5.794,404.700,101.600,24.540,8.165,baseline
1222.000,284.800,73.610,16.260,1500.000,274.300,65.650,14.460,286.700,67.300,17.390,5.838,406.600,102.700,24.810,8.196,baseline
1230.000,288.200,74.330,16.400,1504.000,272.500,65.840,14.450,285.600,67.430,17.440,5.867,407.100,102.600,24.990,8.222,baseline
1227.000,286.700,74.680,16.340,1502.000,274.600,66.280,14.480,285.700,67.360,17.560,5.843,405.800,102.700,24.830,8.238,baseline
1233.000,291.300,74.320,16.520,1509.000,275.400,66.450,14.610,286.000,67.900,17.650,5.870,410.200,103.400,25.020,8.336,baseline
1246.000,293.000,76.050,16.580,1523.000,277.600,66.750,14.640,285.500,68.290,17.650,5.926,413.000,103.900,25.210,8.389,baseline
1258.000,292.800,76.130,16.850,1519.000,278.500,66.970,14.710,286.300,67.630,17.730,5.947,413.500,105.100,25.460,8.509,baseline
1268.000,297.500,77.040,16.970,1526.000,279.700,67.260,14.660,293.200,68.140,17.870,5.947,416.200,105.200,25.580,8.476,baseline
1261.000,294.500,75.400,16.430,1503.000,275.200,65.780,14.470,292.200,68.040,17.690,5.865,406.800,102.600,24.770,8.225,baseline
1224.000,286.100,73.980,16.270,1504.000,274.000,65.750,14.450,285.900,67.270,17.510,5.856,407.500,102.500,24.780,8.271,baseline
1231.000,287.000,74.310,16.410,1508.000,274.900,66.320,14.510,284.400,67.420,17.530,5.887,408.800,103.400,25.130,8.252,baseline
1234.000,289.800,75.000,16.250,1503.000,274.600,66.040,14.460,285.200,67.610,17.660,5.853,407.800,102.900,24.810,8.245,baseline
1234.000,289.400,75.080,16.590,1509.000,276.100,66.320,14.610,284.300,67.370,17.530,5.881,409.800,103.400,25.330,8.350,baseline
1244.000,291.800,75.450,16.700,1516.000,276.000,66.730,14.650,287.200,68.280,17.730,5.925,413.300,104.200,25.220,8.406,baseline
1255.000,292.800,76.840,16.710,1534.000,278.800,66.960,14.790,289.800,68.110,17.930,5.925,414.700,104.800,25.340,8.486,baseline
1266.000,297.400,77.710,16.990,1538.000,279.900,67.260,14.820,288.200,68.540,17.840,5.952,417.300,105.700,25.610,8.523,baseline
1271.000,296.800,76.070,16.600,1518.000,274.100,65.950,14.390,290.800,68.190,17.740,5.887,409.900,102.600,24.810,8.272,baseline
1225.000,286.000,74.710,16.150,1511.000,275.400,65.690,14.410,288.200,67.750,17.600,5.855,409.300,102.300,24.800,8.216,baseline
1230.000,288.200,74.360,16.300,1514.000,275.600,66.280,14.570,287.200,67.500,17.610,5.867,410.900,103.200,25.060,8.322,baseline
1237.000,291.700,74.740,16.470,1513.000,274.200,66.110,14.470,290.600,67.920,17.700,5.912,412.200,103.400,25.090,8.325,baseline
1234.000,290.500,75.170,16.330,1516.000,277.900,66.250,14.570,296.300,68.880,17.740,5.885,411.800,103.700,25.230,8.381,baseline
1244.000,291.800,75.800,16.620,1522.000,277.700,66.970,14.710,290.800,68.010,17.780,5.936,413.000,104.500,25.290,8.410,baseline
1257.000,296.800,76.570,16.870,1527.000,279.600,67.050,14.780,291.500,68.360,17.860,5.978,415.300,105.500,25.330,8.470,baseline
1269.000,299.500,77.220,16.980,1534.000,281.200,67.490,14.790,293.400,68.720,17.900,5.996,418.400,105.700,25.720,8.590,baseline
1282.000,301.900,77.680,17.010,1525.000,278.800,66.830,14.590,296.600,69.400,17.940,5.996,415.000,104.000,25.030,8.257,baseline
1232.000,286.600,74.560,16.230,1507.000,275.800,65.990,14.480,289.000,67.380,17.620,5.881,408.800,102.700,24.940,8.201,baseline
1227.000,289.000,74.420,16.310,1513.000,275.000,66.110,14.550,288.900,68.130,17.730,5.884,410.400,103.700,25.060,8.294,baseline
1233.000,289.800,75.240,16.450,1513.000,276.000,66.210,14.590,291.300,68.080,17.650,5.897,412.500,103.900,25.020,8.265,baseline
1231.000,287.100,74.730,16.500,1511.000,276.800,66.520,14.570,293.100,68.830,17.720,5.914,410.600,103.900,25.050,8.364,baseline
1237.000,289.700,75.310,16.580,1516.000,278.000,66.750,14.580,291.800,68.530,17.810,5.946,412.600,104.000,25.050,8.356,baseline
1249.000,291.900,76.840,16.790,1527.000,280.400,67.220,14.680,295.200,68.450,17.850,5.936,415.900,104.900,25.390,8.449,baseline
1260.000,296.400,77.310,16.940,1538.000,280.300,67.680,14.810,298.100,68.910,17.980,5.989,417.700,105.600,25.590,8.533,baseline
1274.000,299.400,77.840,17.110,1537.000,282.300,67.790,14.890,293.700,69.480,17.930,6.014,422.200,106.200,25.810,8.581,baseline
1287.000,306.300,78.820,17.090,1540.000,280.800,67.290,14.580,295.200,69.810,18.070,6.013,421.000,105.200,25.430,8.378,baseline
1239.000,289.300,74.260,16.370,1502.000,276.700,66.040,14.480,290.900,68.630,17.640,5.895,410.700,103.300,24.950,8.286,baseline
1228.000,287.800,74.890,16.420,1514.000,276.300,66.210,14.510,287.500,68.130,17.660,5.911,411.900,103.300,25.100,8.284,baseline
1233.000,292.600,74.570,16.560,1518.000,277.200,66.820,14.650,289.200,68.110,17.790,5.902,413.600,104.300,25.150,8.344,baseline
1232.000,289.300,74.990,16.520,1520.000,276.900,66.360,14.530,297.200,68.670,17.680,5.933,413.700,103.600,25.130,8.323,baseline
1237.000,290.900,75.340,16.530,1523.000,277.600,66.540,14.740,291.100,69.210,17.800,5.959,414.700,104.300,25.400,8.418,baseline
1249.000,296.300,76.310,16.820,1529.000,279.300,67.080,14.790,293.100,68.600,17.770,5.962,417.200,105.300,25.540,8.482,baseline
1263.000,298.900,77.850,17.110,1536.000,282.400,67.610,14.920,300.100,69.120,17.950,5.995,420.700,105.800,25.750,8.543,baseline
1278.000,300.500,78.050,17.390,1547.000,284.900,67.780,14.970,297.000,69.140,17.970,6.039,423.800,106.700,25.860,8.631,baseline
1292.000,305.600,79.080,17.530,1558.000,285.600,68.520,15.050,299.500,70.060,18.100,6.069,427.200,108.300,26.190,8.701,baseline
1300.000,306.700,78.030,16.980,1525.000,279.800,66.800,14.580,299.900,70.000,17.950,5.966,416.300,104.400,25.250,8.367,baseline
1238.000,289.800,75.270,16.540,1520.000,277.700,66.680,14.580,295.100,68.780,17.790,5.913,414.900,104.100,25.210,8.305,baseline
1241.000,290.500,75.760,16.620,1526.000,279.200,66.930,14.730,295.400,68.440,17.800,5.932,417.700,104.700,25.270,8.391,baseline
1251.000,293.400,76.670,16.730,1518.000,278.700,66.830,14.680,293.200,68.890,17.900,5.937,419.100,104.700,25.510,8.446,baseline
1245.000,292.000,76.470,16.700,1530.000,279.300,66.770,14.710,294.500,69.140,17.820,5.935,418.500,105.000,25.620,8.457,baseline
1255.000,296.300,77.220,16.880,1540.000,280.500,67.420,14.850,295.800,68.820,17.890,5.962,420.500,106.000,25.680,8.524,baseline
1270.000,300.800,77.810,17.140,1541.000,281.700,68.160,14.970,292.500,68.610,18.030,5.999,423.700,106.900,25.730,8.582,baseline
1285.000,304.600,79.180,17.310,1550.000,284.300,68.200,15.050,296.400,69.750,18.080,6.030,429.100,107.200,26.090,8.691,baseline
1299.000,305.900,79.650,17.530,1563.000,286.400,68.640,15.090,299.100,70.340,18.100,6.079,433.100,108.200,26.300,8.733,baseline
1310.000,307.700,80.210,17.300,1546.000,281.900,67.110,14.730,299.200,70.450,18.100,5.986,422.700,105.600,25.330,8.395,baseline
1248.000,293.200,76.210,16.720,1525.000,277.200,66.810,14.680,290.400,68.560,17.810,5.918,419.100,105.600,25.440,8.402,baseline
1248.000,294.100,75.940,16.800,1530.000,280.900,66.780,14.800,294.900,68.950,17.810,5.962,423.200,106.100,25.640,8.507,baseline
1263.000,297.200,77.580,17.000,1530.000,280.800,67.130,14.750,295.600,69.100,17.950,5.983,423.300,106.300,25.490,8.492,baseline
1260.000,295.400,76.550,16.930,1539.000,280.900,67.410,14.790,295.200,69.610,17.880,5.934,425.500,106.600,25.680,8.533,baseline
1269.000,298.100,77.760,17.100,1544.000,282.900,68.060,14.910,296.300,69.600,17.960,5.980,425.800,107.000,26.020,8.620,baseline
1288.000,304.500,78.970,17.390,1564.000,284.700,68.480,15.080,297.200,70.230,18.100,6.037,429.300,108.000,26.310,8.731,baseline
1303.000,308.000,79.320,17.590,1562.000,287.100,68.950,15.150,298.900,71.000,18.250,6.056,437.100,109.100,26.340,8.839,baseline
1318.000,311.200,80.910,17.900,1577.000,288.800,69.280,15.240,300.900,71.470,18.290,6.118,439.100,110.300,26.630,8.843,baseline
1321.000,309.900,79.150,17.250,1552.000,280.600,67.280,14.900,302.600,70.500,17.970,5.996,426.400,106.000,25.600,8.518,baseline
1256.000,295.200,76.410,16.820,1532.000,281.600,66.830,14.830,302.600,68.910,17.930,5.953,426.300,106.000,25.540,8.495,baseline
1259.000,295.800,76.170,16.820,1544.000,282.100,67.690,14.870,299.100,69.270,17.950,5.962,427.200,107.400,25.970,8.558,baseline
1273.000,296.600,77.210,16.940,1543.000,282.100,67.430,14.880,299.100,69.650,17.950,5.988,427.300,107.300,25.880,8.556,baseline
1265.000,295.500,76.870,16.960,1544.000,281.300,68.000,14.910,295.800,69.270,18.030,5.974,427.100,106.800,25.860,8.563,baseline
1275.000,301.700,78.100,17.250,1543.000,283.600,68.090,15.010,298.600,69.630,18.090,5.963,430.000,108.000,26.100,8.687,baseline
1290.000,300.500,79.140,17.440,1559.000,286.700,68.660,15.110,303.500,70.020,18.150,6.031,434.300,108.700,26.320,8.752,baseline
1306.000,306.200,79.000,17.600,1566.000,288.900,69.180,15.200,303.100,70.190,18.250,6.088,437.300,109.700,26.490,8.808,baseline
1321.000,311.400,80.910,17.800,1573.000,289.200,69.480,15.170,304.800,71.110,18.210,6.095,439.500,109.800,26.770,8.837,baseline
1310.000,307.200,77.660,17.110,1545.000,281.800,67.510,14.780,302.500,70.740,18.040,5.973,425.800,106.800,25.600,8.433,baseline
1255.000,291.400,75.390,16.820,1536.000,279.700,67.320,14.880,296.000,68.980,17.900,5.939,423.400,106.400,25.540,8.499,baseline
1261.000,296.700,76.680,16.940,1542.000,281.700,67.910,14.920,296.400,69.320,17.960,5.959,426.500,107.100,25.730,8.602,baseline
1273.000,298.700,77.530,16.930,1544.000,283.300,67.490,14.910,301.900,70.210,17.950,5.940,427.500,106.700,25.780,8.556,baseline
1269.000,297.200,77.570,16.990,1540.000,282.700,67.730,14.900,300.000,69.370,17.930,5.934,427.400,107.200,25.840,8.607,baseline
1280.000,301.000,78.270,17.150,1550.000,284.000,67.930,15.010,297.700,70.410,18.090,6.005,429.200,107.800,26.220,8.706,baseline
1294.000,304.400,78.650,17.420,1564.000,286.100,69.020,15.150,301.700,70.250,18.180,6.045,434.200,108.900,26.340,8.813,baseline
1310.000,309.900,79.660,17.610,1572.000,289.400,69.420,15.240,302.300,70.790,18.140,6.073,438.100,108.800,26.570,8.888,baseline
1326.000,314.000,81.160,17.840,1571.000,286.600,68.500,14.970,304.400,71.090,18.450,6.098,438.900,109.000,26.210,8.607,baseline
1281.000,298.400,77.200,16.840,1540.000,280.600,67.550,14.830,296.700,69.750,17.870,5.919,424.600,105.700,25.550,8.465,baseline
1258.000,294.700,75.890,16.790,1539.000,282.600,67.400,14.840,299.300,69.460,17.780,5.898,426.300,106.300,25.670,8.533,baseline
1270.000,298.000,77.310,16.970,1550.000,284.200,68.290,14.890,304.100,69.820,17.960,5.979,428.000,106.700,25.820,8.568,baseline
1274.000,297.900,76.790,16.970,1544.000,282.100,67.870,14.910,302.300,70.260,17.880,5.957,427.100,106.900,25.860,8.585,baseline
1273.000,301.400,78.010,17.020,1551.000,283.300,68.360,14.930,300.300,70.100,18.070,5.985,429.800,107.300,26.010,8.663,baseline
1288.000,300.300,78.360,17.310,1557.000,285.100,68.440,15.110,306.800,70.310,18.170,6.013,433.400,107.900,26.220,8.707,baseline
1305.000,306.600,79.520,17.450,1569.000,286.400,68.970,15.140,303.600,70.500,18.250,6.045,436.600,109.400,26.310,8.769,baseline
1318.000,311.100,81.360,17.680,1584.000,287.400,68.440,15.000,305.400,71.060,18.320,6.073,437.500,109.200,26.170,8.668,baseline
1284.000,299.900,76.850,16.760,1532.000,280.000,67.030,14.770,299.000,69.790,17.970,5.926,425.500,105.500,25.540,8.442,baseline
1253.000,294.000,76.000,16.780,1532.000,280.300,67.340,14.840,299.000,69.750,17.920,5.943,424.300,106.300,25.580,8.488,baseline
1266.000,297.400,77.120,16.890,1540.000,282.900,67.840,14.910,302.400,69.960,18.010,5.971,430.700,107.200,25.720,8.538,baseline
1272.000,297.600,76.990,16.960,1535.000,281.000,67.540,14.860,300.100,69.700,17.980,5.999,426.700,106.200,25.880,8.509,baseline
1269.000,297.900,77.270,16.980,1544.000,283.500,68.080,14.910,300.600,70.300,18.120,5.994,429.800,107.100,26.020,8.592,baseline
1283.000,304.000,78.500,17.200,1553.000,283.800,68.590,15.010,303.000,70.060,18.160,6.020,432.500,108.700,26.190,8.705,baseline
1298.000,306.400,79.750,17.450,1566.000,287.000,68.810,15.080,306.500,71.040,18.090,6.051,435.700,109.200,26.430,8.761,baseline
1312.000,308.200,80.540,17.650,1572.000,288.200,68.780,14.970,306.700,71.670,18.360,6.074,438.500,109.000,26.380,8.651,baseline
1283.000,298.900,76.750,16.790,1531.000,281.100,67.110,14.710,299.800,69.420,17.940,5.948,425.500,105.800,25.420,8.384,baseline
1244.000,292.100,75.470,16.710,1532.000,279.600,67.720,14.700,297.900,69.380,17.810,5.898,422.900,105.500,25.640,8.430,baseline
1253.000,293.600,75.990,16.740,1534.000,281.500,67.420,14.830,296.900,69.710,18.030,5.995,426.700,106.200,25.630,8.470,baseline
1259.000,293.400,76.630,16.690,1537.000,280.700,67.520,14.740,299.000,70.300,17.950,5.971,425.400,106.600,25.600,8.452,baseline
1254.000,294.400,76.730,16.850,1540.000,281.700,67.690,14.810,301.700,70.240,18.050,5.995,425.500,106.800,25.720,8.492,baseline
1268.000,300.200,77.830,17.040,1549.000,283.000,68.220,14.930,300.100,70.310,18.150,6.006,429.200,107.300,25.900,8.615,baseline
1280.000,301.900,78.090,17.220,1557.000,285.000,68.510,14.960,301.100,71.060,18.180,6.071,431.500,108.100,26.260,8.637,baseline
1294.000,305.900,79.460,17.360,1561.000,287.300,68.590,15.070,301.200,71.340,18.260,6.098,435.300,109.000,26.040,8.617,baseline
1284.000,300.800,76.250,16.550,1530.000,278.000,66.390,14.670,299.700,69.880,18.000,5.974,422.700,105.400,25.260,8.338,baseline
1230.000,288.600,74.460,16.310,1521.000,278.400,66.760,14.670,298.700,69.540,17.930,5.934,420.700,104.400,25.300,8.268,baseline
1236.000,289.200,74.540,16.530,1528.000,279.600,66.600,14.700,298.400,69.500,17.990,5.933,423.000,105.700,25.340,8.406,baseline
1242.000,291.300,74.570,16.420,1526.000,276.900,66.670,14.650,303.400,69.880,17.940,5.965,420.100,105.300,25.240,8.326,baseline
1234.000,287.200,74.930,16.480,1522.000,279.400,66.930,14.650,298.100,69.870,17.950,5.978,421.000,105.200,25.290,8.393,baseline
1244.000,291.700,75.830,16.580,1529.000,279.400,66.870,14.820,300.000,69.830,18.060,5.971,423.400,106.300,25.470,8.432,baseline
1258.000,294.500,76.550,16.910,1538.000,281.200,67.560,14.860,302.100,70.580,18.120,6.031,424.600,106.800,25.630,8.500,baseline
1270.000,298.700,77.380,16.970,1545.000,283.100,68.290,14.830,300.800,70.550,18.260,6.057,429.100,107.700,25.770,8.589,baseline
1284.000,302.500,78.460,17.020,1543.000,278.700,67.050,14.600,302.500,70.260,18.350,6.063,425.400,105.300,25.210,8.274,baseline
1230.000,286.700,73.550,16.170,1511.000,275.200,65.960,14.510,300.800,69.710,17.800,5.946,417.900,103.900,24.780,8.196,baseline
1221.000,285.800,73.450,16.230,1513.000,276.700,66.840,14.600,298.400,69.200,17.950,5.914,417.800,104.200,24.970,8.250,baseline
1230.000,288.000,74.700,16.350,1510.000,275.200,66.760,14.570,299.000,70.100,17.960,5.972,420.500,104.200,24.980,8.222,baseline
1227.000,286.200,73.940,16.230,1519.000,275.900,66.450,14.670,299.800,69.730,17.910,5.977,419.600,104.600,25.190,8.219,baseline
1230.000,287.300,75.280,16.410,1519.000,276.800,67.220,14.690,298.900,69.940,18.070,6.035,419.800,105.100,25.100,8.328,baseline
1243.000,292.900,75.980,16.560,1526.000,279.400,67.110,14.770,302.400,70.170,18.180,6.035,422.400,105.500,25.370,8.407,baseline
1258.000,295.100,76.150,16.830,1531.000,281.600,67.520,14.910,301.500,69.520,18.260,6.087,426.600,106.300,25.650,8.491,baseline
1271.000,297.900,77.440,17.040,1546.000,283.400,67.690,14.850,304.100,70.800,18.390,6.119,430.100,106.700,25.580,8.489,baseline
1257.000,291.400,75.030,16.280,1508.000,274.600,65.660,14.500,300.700,70.070,18.070,5.981,415.300,103.800,24.750,8.150,baseline
1213.000,284.200,73.580,16.120,1507.000,275.500,66.300,14.550,296.900,70.170,17.970,5.959,415.200,103.300,24.770,8.159,baseline
1221.000,284.300,74.040,16.290,1511.000,277.100,66.160,14.680,300.700,70.020,18.020,6.001,417.700,104.600,25.050,8.211,baseline
1227.000,287.200,74.330,16.290,1515.000,275.900,65.870,14.620,298.800,69.940,17.950,6.017,417.400,103.600,25.010,8.213,baseline
1222.000,284.100,74.460,16.250,1509.000,275.700,66.650,14.680,298.400,70.170,18.080,6.026,418.600,104.700,25.210,8.241,baseline
1236.000,287.800,75.120,16.550,1526.000,277.900,67.080,14.700,302.600,70.440,18.200,6.090,421.600,105.100,25.300,8.350,baseline
1250.000,293.000,75.350,16.700,1527.000,279.900,67.490,14.880,303.800,70.120,18.300,6.078,424.000,106.100,25.570,8.428,baseline
1263.000,298.000,76.950,16.940,1541.000,282.000,67.640,14.940,302.000,70.530,18.360,6.151,426.300,106.800,25.800,8.471,baseline
1271.000,296.000,76.160,16.570,1519.000,275.200,66.300,14.560,305.100,70.370,18.300,6.070,419.100,104.000,24.800,8.202,baseline
1212.000,282.600,73.650,16.160,1505.000,275.400,66.280,14.640,298.400,69.630,18.030,5.975,413.600,103.400,24.830,8.146,baseline
1219.000,283.000,73.890,16.360,1509.000,277.400,66.790,14.670,296.800,69.980,18.140,6.018,418.900,103.900,25.200,8.220,baseline
1232.000,287.400,74.350,16.410,1508.000,276.600,66.530,14.690,298.100,70.560,18.180,6.014,415.800,103.700,24.810,8.170,baseline
1222.000,286.000,73.910,16.240,1511.000,277.500,66.750,14.700,299.600,70.000,18.160,6.026,417.700,104.400,25.010,8.201,baseline
1232.000,287.500,75.010,16.540,1527.000,278.500,67.290,14.790,299.700,70.250,18.240,6.063,421.700,104.900,25.170,8.290,baseline
1249.000,292.200,76.120,16.630,1527.000,280.000,67.520,14.820,300.300,70.770,18.410,6.130,423.700,105.800,25.650,8.398,baseline
1261.000,293.200,76.340,16.930,1536.000,281.400,68.020,14.940,310.300,71.060,18.480,6.178,428.300,106.500,25.550,8.445,baseline
1259.000,292.000,75.200,16.320,1509.000,275.300,65.990,14.630,302.100,70.790,18.250,6.058,416.300,104.000,24.710,8.150,baseline
1211.000,283.200,74.130,16.240,1500.000,275.600,66.250,14.630,297.900,69.950,18.170,6.023,415.700,103.200,24.750,8.202,baseline
1218.000,284.400,74.020,16.230,1513.000,276.300,66.790,14.770,301.200,70.180,18.220,6.056,418.700,104.300,25.180,8.175,baseline
1231.000,285.100,74.330,16.340,1511.000,277.300,66.600,14.660,302.000,70.390,18.240,6.047,416.800,103.700,24.810,8.211,baseline
1224.000,286.400,73.680,16.340,1521.000,277.100,67.020,14.710,298.900,70.130,18.280,6.061,418.300,104.600,25.090,8.280,baseline
1236.000,287.800,75.160,16.550,1527.000,279.900,67.400,14.940,297.400,70.690,18.300,6.082,421.300,105.500,25.290,8.323,baseline
1252.000,294.900,76.020,16.820,1533.000,281.300,67.790,14.980,301.100,71.800,18.440,6.128,424.400,106.200,25.640,8.422,baseline
1266.000,295.400,77.090,17.050,1541.000,280.700,67.560,14.910,305.200,71.070,18.570,6.161,427.800,106.300,25.480,8.284,baseline
1234.000,286.100,73.780,16.150,1506.000,274.600,65.960,14.610,302.800,70.530,18.160,6.018,414.100,103.100,24.840,8.107,baseline
1208.000,279.500,73.130,16.120,1499.000,275.800,66.460,14.550,300.100,69.970,18.140,6.026,416.300,103.100,24.810,8.184,baseline
1218.000,283.300,74.110,16.200,1507.000,275.400,66.970,14.740,298.600,69.990,18.250,6.106,417.300,104.100,24.810,8.181,baseline
1222.000,284.900,73.760,16.290,1508.000,275.500,66.280,14.740,301.400,70.960,18.300,6.054,417.300,103.700,24.810,8.164,baseline
1222.000,284.300,73.470,16.390,1517.000,277.100,66.790,14.800,303.400,70.570,18.370,6.110,418.400,104.500,24.960,8.221,baseline
1236.000,289.500,74.690,16.580,1528.000,278.700,67.170,14.920,302.000,70.080,18.250,6.152,421.900,105.000,25.180,8.348,baseline
1251.000,292.600,75.810,16.750,1533.000,279.600,67.770,15.030,306.100,71.290,18.520,6.185,425.600,106.200,25.570,8.420,baseline
1264.000,297.400,76.260,16.830,1531.000,279.400,66.720,14.710,305.500,71.590,18.720,6.169,424.800,104.800,25.070,8.131,baseline
1215.000,281.200,72.370,15.920,1498.000,273.400,66.000,14.570,297.800,70.470,18.150,6.030,413.700,102.200,24.590,8.048,baseline
1201.000,276.600,73.050,15.940,1502.000,273.600,65.960,14.620,299.600,70.010,18.140,6.037,413.100,102.700,24.590,8.077,baseline
1210.000,280.800,73.000,16.130,1514.000,274.200,66.340,14.630,297.400,70.390,18.240,6.060,416.000,103.700,24.800,8.147,baseline
1210.000,281.600,72.830,16.010,1506.000,275.200,66.300,14.610,296.800,70.330,18.230,6.049,415.700,102.800,24.760,8.128,baseline
1213.000,282.200,73.130,16.100,1503.000,275.500,66.620,14.820,304.400,70.990,18.270,6.055,415.900,104.000,24.950,8.181,baseline
1228.000,287.000,74.160,16.470,1516.000,278.500,67.560,14.800,304.900,70.520,18.400,6.149,419.400,104.900,25.300,8.332,baseline
1244.000,292.500,75.470,16.510,1530.000,278.100,67.500,14.910,307.800,72.100,18.690,6.212,422.500,105.700,25.430,8.403,baseline
1256.000,294.200,77.130,16.840,1538.000,279.900,67.750,14.920,305.200,72.230,18.700,6.244,428.600,106.100,25.520,8.321,baseline
1233.000,283.700,73.560,15.880,1499.000,272.000,65.820,14.500,304.200,70.850,18.360,6.067,414.300,102.600,24.520,8.051,baseline
1190.000,277.000,71.540,15.820,1495.000,273.900,66.120,14.590,303.900,70.070,18.230,6.043,413.900,102.400,24.470,8.015,baseline
1197.000,278.200,72.690,15.840,1503.000,272.100,66.330,14.580,303.900,70.640,18.320,6.076,415.600,103.100,24.720,8.105,baseline
1204.000,280.900,71.980,15.860,1497.000,272.700,65.960,14.550,303.400,70.410,18.330,6.041,413.500,103.100,24.750,8.075,baseline
1201.000,278.100,72.920,15.970,1497.000,273.800,66.140,14.630,302.700,70.230,18.320,6.077,417.500,103.600,24.790,8.174,baseline
1214.000,283.600,73.380,16.130,1508.000,277.100,66.820,14.780,300.900,70.310,18.360,6.126,418.800,104.100,25.060,8.222,baseline
1230.000,288.500,74.810,16.320,1511.000,278.900,66.880,14.910,302.100,71.140,18.460,6.151,422.000,105.200,25.220,8.313,baseline
1246.000,291.500,75.280,16.680,1525.000,280.400,67.640,15.030,306.500,71.020,18.530,6.177,426.300,105.800,25.640,8.390,baseline
1260.000,294.800,76.250,16.820,1539.000,283.200,68.670,15.110,309.100,72.060,18.620,6.216,428.800,106.500,25.730,8.408,baseline
1265.000,294.400,75.640,16.250,1503.000,275.200,66.390,14.590,304.300,71.240,18.470,6.073,416.600,102.900,24.620,8.085,baseline
1196.000,279.000,71.770,15.720,1493.000,274.000,65.970,14.600,300.100,70.480,18.100,6.000,410.000,102.400,24.580,8.015,baseline
1199.000,279.600,71.530,15.900,1500.000,275.000,66.580,14.740,301.200,70.370,18.240,6.047,414.100,103.300,24.710,8.094,baseline
1210.000,282.500,72.800,15.900,1500.000,275.700,66.190,14.720,302.000,70.690,18.180,6.061,415.400,102.900,24.710,8.097,baseline
1206.000,281.400,73.280,15.890,1509.000,275.000,66.650,14.770,300.100,70.220,18.300,6.065,416.200,103.200,24.790,8.146,baseline
1216.000,283.900,73.660,16.030,1508.000,277.300,67.090,14.860,302.100,71.270,18.330,6.062,416.900,103.500,25.110,8.228,baseline
1232.000,287.500,74.550,16.450,1513.000,278.700,67.310,15.000,301.200,71.540,18.470,6.138,421.200,104.700,25.220,8.324,baseline
1247.000,291.900,75.970,16.640,1538.000,281.100,68.050,15.100,304.800,71.650,18.510,6.153,424.900,106.100,25.490,8.442,baseline
1263.000,296.500,77.150,16.760,1538.000,284.100,68.420,15.180,307.700,71.740,18.680,6.203,427.100,106.600,25.740,8.503,baseline
1278.000,303.500,77.690,17.090,1545.000,282.900,68.080,15.010,312.000,72.440,18.750,6.210,429.000,106.100,25.410,8.330,baseline
1238.000,287.400,73.350,16.080,1510.000,275.700,66.600,14.820,303.300,71.020,18.250,6.012,411.600,102.600,24.710,8.066,baseline
1206.000,280.600,72.190,15.880,1508.000,276.700,66.780,14.710,303.100,69.970,18.290,6.039,414.000,103.100,24.760,8.170,baseline
1217.000,282.900,73.800,16.260,1514.000,278.200,66.920,14.900,304.300,71.170,18.410,6.052,417.100,104.300,25.100,8.200,baseline
1224.000,283.800,73.260,16.140,1514.000,277.900,67.210,14.850,304.700,71.300,18.340,6.099,417.500,103.900,25.030,8.173,baseline
1223.000,286.100,74.220,16.320,1518.000,280.400,67.580,14.890,307.500,71.670,18.460,6.098,419.100,104.400,25.100,8.259,baseline
1236.000,288.300,74.460,16.510,1519.000,281.100,67.850,15.040,303.900,71.980,18.590,6.112,422.400,105.000,25.280,8.342,baseline
1254.000,292.700,76.030,16.720,1542.000,283.600,68.350,15.140,306.600,71.490,18.570,6.196,427.300,106.800,25.790,8.491,baseline
1269.000,298.700,77.610,16.970,1554.000,284.700,68.940,15.170,309.800,72.710,18.740,6.216,429.800,106.900,25.820,8.564,baseline
1285.000,300.800,77.960,17.290,1560.000,286.900,69.450,15.430,309.500,72.160,18.810,6.285,434.400,108.400,26.250,8.657,baseline
1304.000,308.400,79.570,17.460,1563.000,287.700,69.310,15.280,313.300,73.160,18.950,6.285,438.200,108.400,26.190,8.580,baseline
1275.000,297.000,75.910,16.520,1520.000,278.600,67.480,14.870,307.900,71.890,18.550,6.123,418.200,103.600,24.790,8.211,baseline
1225.000,286.300,73.930,16.190,1522.000,278.000,67.320,14.980,307.200,71.300,18.420,6.081,420.700,103.800,25.130,8.223,baseline
1236.000,290.400,74.470,16.470,1532.000,280.800,67.870,15.000,305.100,72.560,18.490,6.132,421.700,105.300,25.260,8.375,baseline
1251.000,290.800,75.560,16.490,1530.000,281.200,68.170,15.050,309.100,71.520,18.450,6.113,423.400,104.900,25.310,8.335,baseline
1244.000,291.900,75.330,16.570,1533.000,282.000,68.300,15.060,309.900,72.100,18.480,6.147,425.100,105.200,25.400,8.380,baseline
1256.000,295.200,75.720,16.690,1542.000,284.800,68.940,15.200,313.500,71.180,18.590,6.180,426.000,106.400,25.520,8.436,baseline
1274.000,299.400,77.080,17.070,1557.000,286.600,69.280,15.260,307.100,72.080,18.720,6.211,430.600,107.200,25.960,8.519,baseline
1293.000,303.000,78.270,17.350,1567.000,288.700,70.020,15.440,310.900,72.990,19.000,6.214,434.600,108.400,26.290,8.656,baseline
1311.000,309.400,79.730,17.550,1576.000,289.800,70.590,15.500,314.400,73.540,19.030,6.309,439.400,109.000,26.500,8.790,baseline
1331.000,312.200,80.700,17.740,1574.000,290.000,69.360,15.340,316.400,73.900,19.190,6.313,438.500,108.100,26.030,8.543,baseline
1277.000,295.700,76.720,16.630,1535.000,281.500,67.800,15.020,306.700,72.050,18.720,6.156,425.900,104.900,25.320,8.317,baseline
1245.000,291.000,75.230,16.530,1535.000,281.000,67.960,15.080,309.500,72.320,18.580,6.141,427.300,105.300,25.430,8.374,baseline
1263.000,294.400,76.450,16.860,1547.000,283.100,68.460,15.150,304.700,72.430,18.860,6.193,429.800,106.500,25.650,8.512,baseline
1269.000,297.100,76.740,16.770,1547.000,283.200,68.120,15.160,311.000,72.330,18.610,6.174,428.200,105.700,25.580,8.439,baseline
1265.000,296.100,76.810,16.910,1546.000,283.800,69.110,15.260,310.900,72.690,18.700,6.197,430.400,106.900,25.620,8.504,baseline
1278.000,301.800,77.880,17.220,1558.000,285.500,69.210,15.260,312.200,72.590,18.710,6.219,434.800,107.500,26.080,8.584,baseline
1294.000,304.500,78.550,17.430,1567.000,288.000,69.630,15.420,316.500,72.980,18.840,6.270,435.500,108.500,26.170,8.710,baseline
1310.000,310.300,80.250,17.540,1578.000,290.400,70.320,15.530,312.800,73.670,19.080,6.296,440.100,110.100,26.500,8.836,baseline
1325.000,312.000,80.910,17.630,1574.000,288.600,69.240,15.210,317.100,73.660,19.100,6.319,440.900,108.200,25.920,8.454,baseline
1274.000,296.000,75.550,16.650,1534.000,280.700,67.830,14.990,310.100,72.010,18.600,6.129,423.900,104.900,25.090,8.306,baseline
1244.000,290.400,75.580,16.610,1539.000,282.500,68.010,15.040,310.700,71.940,18.590,6.101,423.000,105.600,25.120,8.366,baseline
1259.000,296.700,76.400,16.980,1544.000,283.000,68.470,15.130,309.900,72.350,18.640,6.148,427.000,106.100,25.540,8.428,baseline
1266.000,298.000,76.570,16.840,1537.000,283.200,68.260,15.090,309.800,71.880,18.610,6.142,427.600,105.800,25.500,8.400,baseline
1262.000,296.700,76.560,16.910,1550.000,283.100,68.730,15.150,312.400,72.300,18.610,6.195,428.000,106.300,25.580,8.450,baseline
1275.000,299.800,77.780,17.140,1556.000,286.800,69.140,15.240,312.000,72.490,18.760,6.232,429.300,106.800,25.780,8.585,baseline
1292.000,303.900,78.480,17.330,1571.000,288.200,69.420,15.430,310.900,72.560,18.770,6.239,433.300,107.800,26.140,8.652,baseline
1306.000,308.300,79.110,17.530,1574.000,289.300,69.810,15.460,316.800,73.320,18.960,6.270,437.800,108.900,26.390,8.689,baseline
1320.000,312.500,80.370,17.660,1561.000,287.600,68.720,15.170,318.600,73.920,19.080,6.272,435.400,107.100,25.570,8.374,baseline
1264.000,292.000,75.770,16.490,1528.000,280.400,67.420,14.920,305.400,72.130,18.530,6.133,421.700,104.000,25.030,8.225,baseline
1240.000,290.000,74.300,16.450,1528.000,281.300,67.980,14.950,302.500,71.670,18.550,6.124,421.600,104.400,25.100,8.289,baseline
1251.000,292.800,75.490,16.560,1538.000,281.100,68.110,15.020,310.300,71.890,18.550,6.154,423.000,104.700,25.240,8.272,baseline
1250.000,292.300,75.300,16.590,1531.000,281.200,67.590,15.010,311.000,71.780,18.490,6.156,419.300,104.100,25.080,8.301,baseline
1250.000,291.100,74.860,16.710,1534.000,282.200,68.140,15.100,306.100,71.730,18.560,6.144,422.100,104.700,25.300,8.340,baseline
1263.000,294.400,76.720,16.800,1549.000,284.200,68.610,15.100,307.700,71.540,18.600,6.161,425.800,105.900,25.440,8.386,baseline
1275.000,298.800,77.380,17.020,1550.000,285.100,68.840,15.300,312.300,72.570,18.760,6.213,428.300,106.400,25.750,8.498,baseline
1287.000,301.900,78.260,17.230,1558.000,287.200,69.320,15.370,312.500,72.360,18.850,6.251,431.100,107.100,25.990,8.539,baseline
1301.000,305.600,78.520,17.340,1557.000,283.200,68.520,14.990,309.400,72.680,18.970,6.240,427.200,105.900,25.270,8.337,baseline
1246.000,287.400,74.000,16.280,1515.000,277.200,67.030,14.790,303.800,70.770,18.410,6.094,413.500,102.200,24.520,8.112,baseline
1221.000,285.900,73.490,16.200,1519.000,279.500,67.120,14.830,300.900,70.790,18.270,6.073,415.100,102.800,24.620,8.157,baseline
1233.000,287.500,74.570,16.280,1525.000,278.900,67.080,14.870,302.700,71.510,18.420,6.103,413.800,103.200,24.790,8.146,baseline
1230.000,284.400,73.760,16.120,1517.000,277.300,66.910,14.900,301.000,71.950,18.420,6.101,413.400,102.400,24.500,8.130,baseline
1228.000,286.500,74.070,16.210,1521.000,277.800,67.460,14.920,306.900,71.040,18.510,6.073,413.400,102.800,24.640,8.164,baseline
1240.000,289.800,74.790,16.460,1531.000,279.400,67.560,15.050,303.400,71.190,18.560,6.117,416.000,103.700,24.920,8.240,baseline
1253.000,292.900,75.380,16.650,1533.000,282.300,68.110,15.120,304.100,70.700,18.570,6.160,418.300,104.100,25.110,8.350,baseline
1264.000,294.400,76.180,16.710,1540.000,283.700,68.580,15.170,307.300,71.340,18.690,6.184,419.300,104.800,25.230,8.357,baseline
1277.000,298.800,77.330,16.990,1546.000,285.300,68.320,15.020,306.100,72.430,18.780,6.204,423.400,105.000,25.260,8.238,baseline
1247.000,287.400,73.540,16.020,1511.000,275.600,66.710,14.670,304.600,70.840,18.350,6.066,407.000,101.000,24.070,7.953,baseline
1204.000,281.100,71.910,15.910,1508.000,276.100,66.520,14.720,298.500,70.330,18.120,6.036,405.700,100.800,24.180,7.964,baseline
1212.000,280.900,72.530,15.940,1505.000,276.700,66.520,14.660,298.900,70.960,18.220,6.047,406.100,101.000,24.350,7.954,baseline
1213.000,279.000,72.760,15.730,1502.000,274.600,66.500,14.730,301.000,70.660,18.280,6.055,405.200,100.600,24.260,7.964,baseline
1209.000,281.300,72.210,15.960,1513.000,274.800,66.570,14.780,300.500,70.360,18.280,6.042,403.900,101.000,24.200,7.984,baseline
1220.000,284.600,72.910,16.140,1518.000,278.400,67.150,14.840,299.100,71.000,18.330,6.112,406.100,101.300,24.310,8.070,baseline
1231.000,286.800,73.620,16.200,1528.000,280.100,67.770,14.960,299.500,71.500,18.460,6.087,407.800,102.200,24.430,8.107,baseline
1244.000,290.100,74.890,16.320,1527.000,280.000,67.930,14.930,304.200,71.360,18.610,6.154,411.800,103.000,24.660,8.218,baseline
1255.000,291.500,75.900,16.600,1537.000,280.800,68.380,15.010,302.700,71.880,18.530,6.181,413.000,103.800,24.990,8.233,baseline
1260.000,291.200,74.260,16.190,1512.000,276.100,66.250,14.670,303.600,70.950,18.380,6.108,403.500,100.100,24.190,7.875,baseline
1196.000,277.600,71.450,15.620,1498.000,272.500,66.100,14.550,296.900,70.030,18.090,5.986,396.000,98.960,23.830,7.816,baseline
1196.000,276.800,71.200,15.630,1496.000,274.900,66.610,14.650,296.400,70.290,18.130,5.997,397.900,99.630,23.950,7.902,baseline
1203.000,279.100,71.470,15.650,1494.000,272.600,66.160,14.640,297.200,69.940,18.310,6.025,399.900,98.940,23.860,7.875,baseline
1194.000,275.600,71.000,15.540,1498.000,273.300,66.190,14.630,294.400,69.650,18.310,6.020,397.700,99.440,23.820,7.864,baseline
1202.000,278.300,71.380,15.770,1507.000,275.600,66.640,14.750,297.100,69.680,18.200,6.023,398.000,99.290,23.950,7.935,baseline
1214.000,281.800,72.520,15.890,1511.000,275.200,66.970,14.850,299.700,70.010,18.170,6.075,400.200,100.400,24.100,8.013,baseline
1224.000,286.100,72.720,15.970,1521.000,278.300,67.580,14.890,296.700,70.440,18.390,6.125,403.100,101.300,24.300,8.077,baseline
1236.000,286.900,74.060,16.190,1525.000,279.600,67.730,15.070,300.900,70.990,18.440,6.158,406.000,101.800,24.680,8.175,baseline
1248.000,290.100,74.800,16.280,1526.000,280.600,67.480,14.790,302.500,71.190,18.470,6.131,407.300,101.300,24.180,7.939,baseline
1206.000,276.400,70.680,15.270,1485.000,271.900,65.730,14.560,297.500,70.500,18.120,5.992,393.000,98.210,23.530,7.715,baseline
1178.000,270.700,70.170,15.310,1486.000,271.400,66.050,14.550,294.000,68.970,17.980,5.963,393.600,98.180,23.610,7.759,baseline
1185.000,274.700,70.690,15.420,1491.000,272.700,66.450,14.600,297.900,70.070,18.050,5.966,394.200,98.300,23.700,7.799,baseline
1184.000,273.700,70.010,15.330,1480.000,271.600,66.070,14.550,296.700,69.300,17.980,6.017,391.200,98.300,23.720,7.806,baseline
1182.000,274.800,70.410,15.330,1485.000,272.600,66.070,14.650,294.400,70.160,18.050,6.004,392.100,98.530,23.620,7.811,baseline
1192.000,275.600,70.780,15.530,1492.000,273.500,66.720,14.730,297.200,69.470,18.160,6.018,394.100,98.690,23.770,7.888,baseline
1204.000,280.700,71.750,15.670,1498.000,275.800,66.980,14.820,298.400,69.330,18.320,6.040,398.800,99.480,24.050,7.941,baseline
1215.000,280.900,72.870,15.870,1506.000,275.900,67.500,14.970,297.500,70.230,18.370,6.060,400.000,100.600,24.220,8.040,baseline
1227.000,285.100,73.920,15.950,1522.000,277.800,67.820,15.070,298.500,70.750,18.340,6.129,401.500,101.100,24.330,8.074,baseline
1237.000,287.500,73.150,15.820,1505.000,274.100,66.360,14.600,294.500,70.620,18.370,6.033,396.800,98.720,23.460,7.738,baseline
1174.000,270.300,69.590,15.080,1471.000,269.200,65.410,14.530,289.600,68.920,17.870,5.945,387.900,97.560,23.270,7.654,baseline
1166.000,267.400,68.900,15.160,1478.000,270.500,65.790,14.580,300.100,68.820,17.930,5.913,387.000,97.690,23.410,7.745,baseline
1170.000,271.400,69.690,15.180,1472.000,270.600,65.770,14.490,295.200,69.020,17.870,5.960,388.000,97.100,23.360,7.681,baseline
1165.000,269.900,68.420,15.030,1472.000,270.700,65.710,14.610,290.000,68.690,17.900,5.917,386.600,97.640,23.320,7.712,baseline
1169.000,270.100,69.520,15.160,1481.000,271.900,66.450,14.600,293.600,69.690,17.910,5.934,389.600,97.340,23.260,7.726,baseline
1179.000,274.000,70.420,15.320,1485.000,272.900,66.390,14.720,292.000,69.280,17.990,5.952,392.200,98.290,23.550,7.768,baseline
1190.000,276.800,71.160,15.470,1491.000,272.700,67.050,14.760,298.500,70.000,18.030,6.001,393.900,98.890,23.780,7.848,baseline
1201.000,276.400,72.500,15.610,1498.000,274.200,67.160,14.920,297.700,69.220,18.240,6.048,395.900,99.350,23.880,7.953,baseline
1212.000,281.100,72.420,15.820,1508.000,276.700,67.480,14.970,296.200,70.340,18.140,6.016,397.800,99.840,24.110,7.970,baseline
1222.000,282.800,72.440,15.630,1492.000,271.800,66.180,14.620,295.500,69.560,18.270,6.023,393.900,98.100,23.240,7.685,baseline
1161.000,268.300,68.670,14.910,1470.000,268.400,65.520,14.540,292.400,69.300,17.840,5.878,385.200,96.510,22.910,7.600,baseline
1154.000,265.800,68.530,14.980,1472.000,268.200,65.790,14.520,289.100,68.940,17.790,5.865,385.000,96.510,23.110,7.654,baseline
1160.000,266.300,68.770,14.910,1466.000,268.300,65.390,14.560,288.300,68.830,17.860,5.898,385.000,96.930,23.150,7.598,baseline
1155.000,265.300,68.520,14.950,1467.000,267.900,65.200,14.550,293.800,68.830,17.820,5.886,384.300,96.680,23.030,7.624,baseline
1157.000,265.700,68.950,15.010,1472.000,268.000,65.900,14.570,289.400,68.100,17.720,5.883,385.800,97.840,23.170,7.700,baseline
1167.000,269.100,69.620,15.200,1472.000,271.000,65.980,14.730,290.800,68.070,17.910,5.931,388.800,97.370,23.450,7.751,baseline
1178.000,274.000,70.390,15.380,1482.000,271.400,66.400,14.850,297.300,69.140,18.000,5.970,391.200,98.380,23.550,7.816,baseline
1186.000,275.700,71.260,15.420,1485.000,272.600,66.950,14.860,291.800,69.430,18.110,5.993,392.100,98.990,23.690,7.871,baseline
1198.000,278.100,71.780,15.580,1495.000,274.400,67.270,15.010,295.500,69.630,18.190,6.019,395.200,99.820,23.920,7.909,baseline
1209.000,281.000,72.930,15.790,1496.000,277.100,67.360,14.880,298.000,70.160,18.190,6.052,398.900,99.260,23.840,7.892,baseline
1190.000,275.800,69.990,15.140,1464.000,268.500,65.630,14.480,295.400,68.970,17.880,5.895,385.400,96.460,23.020,7.588,baseline
1147.000,265.600,68.420,14.850,1458.000,269.100,65.590,14.660,288.100,68.560,17.690,5.863,384.900,96.280,22.960,7.583,baseline
1150.000,265.300,68.360,14.900,1462.000,267.100,65.870,14.670,288.900,69.440,17.830,5.891,384.800,96.520,23.080,7.649,baseline
1151.000,265.600,68.440,14.840,1460.000,266.200,65.240,14.540,288.100,69.010,17.810,5.839,382.400,96.600,22.870,7.615,baseline
1145.000,264.500,68.250,14.820,1456.000,266.900,65.280,14.580,292.200,67.830,17.780,5.902,384.700,96.650,23.090,7.614,baseline
1152.000,266.000,69.350,15.010,1461.000,267.900,65.930,14.600,292.000,68.730,17.860,5.907,384.600,96.450,23.200,7.633,baseline
1160.000,267.500,69.740,15.070,1463.000,267.900,65.940,14.800,292.300,68.590,17.840,5.938,386.800,97.570,23.350,7.693,baseline
1169.000,270.100,70.430,15.300,1474.000,271.300,66.310,14.770,289.800,68.940,17.980,5.968,390.800,98.240,23.630,7.766,baseline
1177.000,272.800,70.540,15.500,1475.000,272.900,66.630,14.850,291.600,69.660,18.050,5.975,391.400,98.140,23.680,7.786,baseline
1186.000,276.400,71.070,15.480,1479.000,272.000,66.430,14.790,288.000,69.670,18.090,6.027,393.500,97.950,23.490,7.728,baseline
1160.000,269.100,68.180,14.910,1457.000,265.700,64.900,14.410,289.800,68.140,17.710,5.859,381.500,95.620,22.820,7.494,baseline
1134.000,261.900,67.680,14.630,1448.000,266.300,64.840,14.470,288.400,69.080,17.680,5.853,381.500,95.820,22.650,7.484,baseline
1135.000,263.200,67.270,14.810,1453.000,266.200,65.180,14.570,288.600,68.280,17.690,5.895,382.200,95.590,22.880,7.488,baseline
1135.000,263.000,67.470,14.720,1450.000,264.000,64.860,14.530,290.300,68.140,17.780,5.876,380.500,95.950,22.820,7.446,baseline
1132.000,263.300,67.640,14.850,1449.000,266.200,65.320,14.530,286.800,68.180,17.710,5.871,381.500,95.510,22.910,7.531,baseline
1141.000,262.100,68.590,14.900,1451.000,267.500,65.500,14.640,287.800,68.610,17.740,5.898,384.300,96.840,22.920,7.577,baseline
1149.000,264.900,69.540,15.100,1461.000,268.500,65.670,14.700,292.000,69.180,17.880,5.940,387.100,97.040,23.180,7.663,baseline
1158.000,270.700,70.300,15.190,1469.000,270.500,66.210,14.780,291.600,69.570,17.940,5.993,388.300,97.870,23.390,7.738,baseline
1131.000,262.800,68.070,14.840,1446.000,264.300,64.640,14.530,288.800,68.550,17.730,5.890,382.200,96.270,22.910,7.540,easy
1133.000,262.000,67.990,14.800,1441.000,264.700,64.730,14.530,285.100,68.520,17.780,5.905,378.600,95.230,22.850,7.508,easy
1131.000,260.600,67.760,14.840,1444.000,265.100,65.030,14.520,290.600,68.170,17.870,5.906,381.300,95.710,22.790,7.515,easy
1137.000,263.800,68.750,14.880,1453.000,266.300,65.010,14.550,290.000,68.920,17.800,5.972,385.100,95.970,23.140,7.577,easy
1149.000,266.000,69.330,15.140,1462.000,266.600,65.170,14.670,289.600,68.930,17.990,5.972,385.800,97.040,23.110,7.632,easy
1160.000,267.300,70.240,15.260,1467.000,268.300,66.020,14.630,285.200,69.300,18.060,5.979,388.300,97.700,23.470,7.731,easy
1169.000,272.500,70.660,15.300,1464.000,270.700,66.540,14.690,291.600,69.400,18.080,6.002,391.700,98.390,23.560,7.751,easy
1182.000,277.300,71.510,15.700,1477.000,272.100,66.480,14.780,295.700,69.680,18.210,6.043,391.500,99.210,23.640,7.781,easy
1195.000,278.100,72.350,15.740,1487.000,273.600,66.700,14.860,296.700,70.950,18.210,6.094,397.200,99.780,24.040,7.879,easy
1210.000,281.100,72.680,15.690,1477.000,269.300,65.950,14.590,299.100,70.500,18.220,6.039,391.800,98.130,23.390,7.634,easy
1160.000,269.700,69.590,15.000,1457.000,266.500,65.020,14.630,288.900,68.930,18.000,5.970,384.900,96.480,23.240,7.588,easy
1156.000,267.300,69.360,15.060,1456.000,267.500,65.180,14.540,291.600,68.950,17.810,5.969,385.200,96.640,22.960,7.577,easy
1157.000,268.900,69.430,15.190,1458.000,267.300,65.360,14.510,292.100,68.870,18.060,5.962,387.500,97.030,23.130,7.602,easy
1157.000,267.700,69.940,15.010,1454.000,267.100,65.300,14.510,287.300,68.640,18.070,5.956,385.900,96.490,22.990,7.521,easy
1161.000,269.700,70.090,15.270,1464.000,268.800,65.560,14.630,292.600,69.140,18.000,5.988,385.900,97.600,23.360,7.661,easy
1173.000,271.600,70.380,15.380,1474.000,270.800,65.890,14.670,291.700,69.250,18.090,6.025,389.800,97.400,23.240,7.706,easy
1185.000,272.700,71.210,15.500,1479.000,271.000,66.260,14.780,292.600,69.360,18.150,6.060,392.500,98.050,23.570,7.721,easy
1195.000,280.300,72.170,15.720,1482.000,272.000,66.720,14.890,297.600,69.590,18.250,6.062,393.400,99.560,23.680,7.796,easy
1206.000,279.500,72.360,15.700,1491.000,274.500,66.980,14.950,293.200,70.070,18.300,6.112,398.000,99.500,23.930,7.908,easy
1216.000,283.700,73.060,15.930,1494.000,276.800,67.570,15.040,298.500,70.090,18.380,6.139,398.900,100.200,24.100,7.970,easy
1231.000,285.100,73.690,15.860,1491.000,272.400,66.680,14.740,300.100,70.740,18.350,6.114,395.000,98.920,23.400,7.713,easy
1185.000,273.200,70.700,15.310,1477.000,269.100,65.780,14.610,293.500,69.030,18.080,6.012,389.700,97.570,23.030,7.677,easy
1181.000,273.900,70.810,15.320,1466.000,269.900,66.170,14.650,292.400,69.410,18.030,5.983,390.500,97.930,23.310,7.669,easy
1184.000,273.700,71.080,15.360,1474.000,271.400,66.000,14.760,288.300,69.510,18.110,6.024,392.000,98.480,23.320,7.683,easy
1183.000,274.100,70.260,15.340,1469.000,271.500,66.100,14.700,292.600,70.100,18.100,5.998,390.200,97.610,23.350,7.726,easy
1186.000,276.600,71.480,15.440,1481.000,271.300,66.350,14.800,292.600,68.990,18.100,6.047,391.500,98.320,23.390,7.726,easy
1199.000,277.500,71.620,15.630,1492.000,273.900,66.500,14.890,293.400,70.360,18.400,6.051,395.600,98.870,23.650,7.809,easy
1210.000,281.300,72.270,15.650,1494.000,275.900,67.100,14.890,302.000,70.300,18.410,6.084,395.900,99.180,23.830,7.918,easy
1222.000,284.800,73.360,15.890,1499.000,275.600,67.400,15.010,300.100,70.310,18.420,6.100,398.300,100.400,24.000,7.950,easy
1233.000,285.800,74.430,16.060,1508.000,278.800,67.690,15.080,302.000,70.420,18.370,6.164,402.300,101.000,24.260,7.998,easy
1240.000,285.300,73.340,15.770,1491.000,274.000,66.470,14.810,300.800,70.780,18.420,6.102,393.500,98.300,23.520,7.703,easy
1193.000,275.000,71.150,15.320,1480.000,273.100,66.430,14.810,292.900,69.270,18.090,6.024,390.600,97.560,23.340,7.705,easy
1190.000,276.200,70.600,15.420,1480.000,273.600,66.370,14.730,290.900,69.280,18.110,6.015,390.800,97.820,23.230,7.647,easy
1193.000,277.100,71.370,15.510,1476.000,271.200,66.300,14.750,293.700,70.200,18.170,6.006,391.000,97.920,23.360,7.721,easy
1192.000,273.400,70.930,15.380,1487.000,272.400,66.410,14.770,293.200,69.630,18.170,6.005,391.000,97.820,23.510,7.681,easy
1197.000,279.100,71.850,15.520,1493.000,272.700,66.970,14.900,294.900,69.630,18.230,6.043,392.500,98.330,23.430,7.773,easy
1207.000,279.200,72.270,15.610,1496.000,276.000,67.010,14.890,294.400,69.710,18.160,6.074,394.600,98.800,23.680,7.804,easy
1217.000,281.500,72.890,15.740,1497.000,277.000,67.020,15.080,297.800,70.000,18.390,6.107,396.800,100.200,23.840,7.910,easy
1227.000,284.500,73.650,15.940,1509.000,277.900,67.530,15.060,299.600,70.180,18.420,6.103,401.000,100.100,24.170,7.950,easy
1239.000,290.200,74.350,16.070,1509.000,278.000,67.470,14.900,302.000,70.640,18.530,6.164,401.200,99.870,23.780,7.801,easy
1208.000,278.000,71.980,15.300,1481.000,272.300,66.470,14.730,294.500,69.720,18.160,5.991,388.600,97.070,23.240,7.638,easy
1188.000,274.500,70.970,15.310,1482.000,271.600,66.380,14.820,293.200,69.500,18.130,5.995,390.000,97.630,23.350,7.618,easy
1190.000,275.600,71.140,15.360,1489.000,271.700,66.620,14.840,292.600,69.940,18.040,6.015,391.300,97.900,23.260,7.675,easy
1192.000,276.800,70.680,15.430,1476.000,271.800,66.300,14.820,295.600,69.830,18.170,5.999,390.200,97.290,23.390,7.661,easy
1191.000,277.200,70.810,15.410,1492.000,272.600,66.620,14.850,297.000,69.760,18.070,6.017,390.600,97.790,23.360,7.715,easy
1200.000,278.800,71.770,15.580,1492.000,273.500,66.850,14.970,295.500,69.750,18.270,6.064,393.200,98.190,23.510,7.767,easy
1209.000,280.300,72.480,15.810,1498.000,274.800,67.290,14.990,295.700,69.870,18.300,6.069,397.600,99.440,23.850,7.783,easy
1222.000,284.800,73.180,15.810,1502.000,277.500,67.610,15.100,299.800,70.740,18.460,6.108,400.000,99.510,23.950,7.943,easy
1231.000,288.000,73.580,16.010,1508.000,278.000,67.980,15.130,301.800,70.520,18.520,6.125,401.700,100.300,24.080,7.954,easy
1242.000,289.100,74.650,16.220,1519.000,280.400,67.940,15.170,299.200,71.610,18.580,6.155,405.100,101.100,24.070,8.000,easy
1234.000,285.500,72.220,15.770,1492.000,273.600,66.380,14.850,300.100,70.200,18.310,6.046,393.500,97.830,23.450,7.675,easy
1192.000,279.500,71.780,15.440,1491.000,273.400,66.560,14.840,299.000,69.790,18.200,6.044,393.600,97.460,23.490,7.702,easy
1194.000,275.300,71.500,15.560,1480.000,273.900,66.760,14.810,298.200,69.630,18.160,6.027,392.100,97.560,23.510,7.742,easy
1196.000,276.800,71.110,15.630,1478.000,272.100,66.520,14.860,295.400,70.220,18.200,6.043,392.300,97.870,23.310,7.709,easy
1193.000,277.700,71.680,15.620,1485.000,272.300,66.540,14.820,293.300,69.570,18.310,6.041,391.400,98.250,23.420,7.716,easy
1199.000,278.300,71.950,15.640,1487.000,273.500,66.820,14.940,295.300,70.370,18.310,6.066,394.300,98.440,23.740,7.751,easy
1211.000,282.200,72.790,15.800,1498.000,274.000,67.270,14.970,299.100,69.880,18.400,6.067,396.200,99.270,23.790,7.844,easy
1219.000,284.300,73.860,15.990,1496.000,276.600,67.290,15.040,296.200,70.470,18.370,6.120,398.700,99.960,23.810,7.935,easy
1230.000,288.000,73.750,16.200,1505.000,278.700,67.960,15.090,302.600,71.220,18.510,6.158,402.000,100.600,24.140,7.961,easy
1238.000,288.200,74.580,16.280,1516.000,279.200,68.580,15.240,304.000,70.640,18.570,6.163,403.400,100.400,24.250,8.041,easy
1245.000,291.600,74.510,15.990,1494.000,274.900,66.680,14.900,299.700,71.220,18.450,6.086,397.600,99.050,23.470,7.790,easy
1195.000,276.100,71.770,15.560,1481.000,273.300,66.640,14.800,296.100,70.310,18.140,6.008,394.200,98.090,23.280,7.705,easy
1196.000,276.400,71.940,15.730,1479.000,272.500,66.660,14.810,300.400,69.920,18.160,6.021,394.600,98.710,23.530,7.791,easy
1199.000,277.800,72.680,15.670,1485.000,273.100,66.360,14.830,299.700,70.150,18.310,6.067,395.600,98.060,23.430,7.767,easy
1195.000,278.800,71.800,15.630,1485.000,271.700,66.290,14.850,295.200,69.980,18.170,6.025,394.500,98.160,23.570,7.766,easy
1196.000,279.700,72.240,15.770,1486.000,273.900,66.840,14.830,299.200,69.970,18.300,6.077,393.800,99.320,23.600,7.872,easy
1207.000,280.600,73.120,15.860,1492.000,274.500,67.050,14.970,299.300,70.580,18.290,6.083,397.100,99.170,23.720,7.899,easy
1214.000,282.900,73.350,16.050,1494.000,275.600,67.290,15.040,297.100,71.180,18.390,6.102,398.300,99.650,24.030,7.910,easy
1224.000,285.900,74.510,16.230,1499.000,278.000,67.830,15.180,300.700,71.070,18.460,6.119,402.200,100.600,24.050,7.997,easy
1236.000,291.000,75.550,16.360,1502.000,278.400,68.070,15.140,298.800,71.210,18.540,6.115,405.300,100.800,24.180,7.963,easy
1223.000,284.100,73.370,15.870,1482.000,272.800,66.840,14.810,294.800,69.920,18.360,6.026,394.100,98.150,23.490,7.756,easy
1191.000,276.400,71.390,15.630,1478.000,272.400,66.580,14.920,294.800,69.980,18.210,5.992,393.900,97.910,23.360,7.709,easy
1190.000,275.600,72.280,15.720,1482.000,272.100,66.730,14.820,300.400,69.780,18.270,6.026,393.400,98.200,23.450,7.708,easy
1192.000,278.400,72.310,15.690,1479.000,272.000,66.420,14.760,295.300,70.170,18.230,5.987,392.300,97.680,23.470,7.721,easy
1187.000,275.500,72.120,15.740,1479.000,272.600,66.420,14.840,299.100,69.560,18.120,5.991,391.300,97.780,23.420,7.722,easy
1196.000,276.900,71.860,15.830,1487.000,272.500,66.870,14.900,295.700,69.490,18.230,6.002,393.500,98.480,23.570,7.838,easy
1205.000,281.500,72.950,16.040,1490.000,274.900,67.060,14.960,297.100,70.480,18.350,6.070,396.500,99.150,23.860,7.863,easy
1215.000,284.800,73.160,16.070,1493.000,275.700,67.360,15.030,297.900,70.240,18.380,6.070,398.200,99.640,23.910,7.945,easy
1224.000,286.000,73.950,16.220,1498.000,277.200,67.610,15.140,298.900,70.480,18.380,6.130,401.700,100.500,24.170,7.991,easy
1232.000,289.100,74.270,16.410,1500.000,276.100,66.870,14.870,298.900,71.240,18.490,6.111,400.400,99.940,23.630,7.819,easy
1200.000,276.100,71.790,15.600,1477.000,271.400,66.310,14.750,295.700,69.870,18.100,6.013,391.000,97.850,23.240,7.712,easy
1182.000,275.700,70.790,15.560,1473.000,270.500,66.300,14.730,291.300,69.640,18.030,5.934,391.700,97.900,23.290,7.707,easy
1182.000,275.200,71.090,15.640,1483.000,270.600,66.050,14.710,295.500,70.300,18.070,5.976,391.100,98.110,23.280,7.716,easy
1182.000,274.400,71.170,15.580,1475.000,270.600,66.210,14.740,294.500,69.920,18.140,5.969,391.800,97.680,23.210,7.662,easy
1182.000,274.500,71.340,15.630,1477.000,272.000,66.490,14.740,296.400,69.660,18.180,5.996,392.100,98.140,23.310,7.705,easy
1189.000,277.800,72.000,15.680,1485.000,273.400,66.540,14.870,294.600,70.690,18.260,6.028,395.000,98.400,23.610,7.809,easy
1200.000,279.500,72.160,15.860,1486.000,273.600,66.750,14.900,296.300,70.580,18.240,6.024,394.400,99.600,23.700,7.849,easy
1211.000,281.700,73.100,16.020,1494.000,274.300,67.610,14.980,294.700,70.450,18.400,6.114,400.700,99.840,23.920,7.909,easy
1220.000,283.700,74.080,16.170,1507.000,276.200,67.860,15.040,302.800,70.660,18.390,6.094,400.700,100.400,24.100,7.982,easy
1231.000,289.400,74.620,16.360,1507.000,277.700,67.970,15.050,301.100,70.820,18.470,6.117,403.300,100.900,24.310,8.048,easy
1236.000,286.200,73.630,15.990,1487.000,272.900,66.340,14.770,304.300,71.140,18.250,6.044,395.800,98.010,23.500,7.711,easy
1184.000,275.300,70.900,15.510,1474.000,270.600,66.130,14.680,292.700,70.140,17.990,5.974,392.200,97.870,23.410,7.714,easy
1182.000,273.200,71.070,15.600,1467.000,271.600,65.890,14.760,298.300,68.990,18.150,6.005,392.000,97.770,23.250,7.728,easy
1185.000,273.200,71.130,15.470,1474.000,270.600,66.120,14.690,294.600,70.370,18.100,6.036,393.500,97.980,23.250,7.711,easy
1179.000,274.800,71.180,15.420,1471.000,271.400,66.190,14.670,294.500,69.730,18.160,5.995,393.400,98.120,23.370,7.692,easy
1184.000,274.800,71.440,15.540,1483.000,272.200,66.480,14.780,296.100,69.300,18.190,6.013,394.200,98.620,23.570,7.829,easy
1195.000,277.100,71.540,15.680,1486.000,273.800,66.530,14.790,295.500,70.170,18.290,6.040,397.400,98.630,23.710,7.887,easy
1203.000,280.400,72.610,15.910,1489.000,274.700,67.050,14.990,299.800,70.410,18.430,6.099,399.500,99.710,24.020,7.945,easy
1214.000,280.500,73.230,15.890,1492.000,274.900,67.140,14.970,296.900,70.810,18.480,6.090,401.800,100.000,24.000,8.013,easy
1224.000,286.200,73.270,16.180,1506.000,277.600,67.560,15.000,299.100,71.030,18.510,6.150,405.200,101.400,24.320,8.043,easy
1235.000,287.000,74.080,15.920,1496.000,273.900,66.530,14.760,302.200,71.190,18.500,6.090,401.200,98.830,23.700,7.795,easy
1185.000,273.700,70.600,15.380,1470.000,269.900,65.950,14.650,295.900,69.930,18.110,6.009,393.300,98.050,23.310,7.799,easy
1177.000,275.500,70.760,15.390,1470.000,270.800,66.240,14.590,296.500,70.170,18.130,5.967,393.100,98.080,23.600,7.741,easy
1183.000,273.900,70.880,15.420,1474.000,270.900,65.920,14.650,297.800,69.870,18.140,6.011,394.800,98.720,23.480,7.777,easy
1179.000,273.500,70.870,15.420,1477.000,271.100,65.870,14.670,294.100,69.630,18.200,6.008,394.600,97.870,23.480,7.831,easy
1181.000,272.500,71.230,15.440,1482.000,272.600,65.980,14.760,295.300,69.980,18.210,6.033,393.300,98.600,23.650,7.799,easy
1192.000,276.000,71.570,15.560,1480.000,273.200,66.580,14.810,300.500,70.730,18.410,6.072,396.700,99.150,23.840,7.873,easy
1202.000,279.900,72.210,15.740,1490.000,273.900,66.700,14.880,299.800,71.190,18.390,6.104,399.500,99.680,23.960,7.930,easy
1214.000,282.900,73.470,15.950,1493.000,275.400,67.230,14.940,297.800,71.020,18.560,6.140,402.100,100.300,23.980,7.984,easy
1223.000,284.400,73.500,16.000,1502.000,278.500,67.660,15.080,299.500,71.440,18.510,6.109,406.100,101.000,24.430,8.088,easy
1234.000,287.600,74.050,16.090,1500.000,274.800,66.590,14.790,300.700,71.390,18.610,6.123,403.000,100.100,23.890,7.842,easy
1189.000,274.600,70.840,15.220,1469.000,269.100,65.960,14.570,298.100,69.970,18.230,6.001,393.700,97.920,23.360,7.709,easy
1171.000,269.800,69.570,15.310,1475.000,269.000,65.850,14.610,297.200,69.830,18.160,5.971,392.400,98.150,23.560,7.770,easy
1170.000,271.200,69.830,15.270,1468.000,269.900,65.960,14.590,295.400,70.270,18.170,6.033,393.000,97.990,23.430,7.740,easy
1169.000,272.300,69.820,15.130,1472.000,270.400,65.710,14.620,298.700,69.500,18.200,5.997,394.600,98.380,23.400,7.729,easy
1170.000,268.500,69.900,15.250,1473.000,270.500,66.110,14.670,298.800,69.960,18.140,6.016,393.100,98.340,23.670,7.786,easy
1179.000,272.200,71.030,15.340,1478.000,272.400,66.350,14.810,297.700,70.240,18.290,6.026,396.300,98.950,23.750,7.817,easy
1191.000,276.100,71.660,15.490,1488.000,273.100,67.240,14.850,298.300,70.510,18.460,6.097,397.800,99.980,23.880,7.915,easy
1201.000,278.100,72.130,15.760,1495.000,274.700,66.970,14.830,299.400,71.070,18.520,6.108,401.800,100.800,24.090,8.001,easy
1211.000,280.800,72.810,15.670,1500.000,276.800,67.340,14.960,297.400,71.490,18.560,6.158,403.600,100.600,24.390,8.064,easy
1222.000,285.600,74.570,15.940,1505.000,275.600,66.750,14.790,294.700,72.120,18.670,6.159,404.600,100.500,24.010,7.932,easy
1187.000,274.500,69.890,15.130,1467.000,270.400,65.860,14.580,296.300,70.250,18.090,6.024,392.800,97.700,23.450,7.745,easy
1160.000,269.200,68.740,15.020,1466.000,269.700,65.610,14.600,293.400,70.560,18.240,5.972,392.000,97.880,23.360,7.718,easy
1163.000,268.600,69.460,15.070,1468.000,269.500,65.710,14.650,298.400,69.380,18.340,6.029,393.600,97.910,23.440,7.762,easy
1163.000,268.000,69.240,14.940,1466.000,267.500,65.600,14.570,293.700,70.470,18.240,5.995,392.500,97.910,23.390,7.726,easy
1162.000,268.400,69.260,15.040,1467.000,269.800,65.690,14.580,297.200,70.640,18.220,6.016,394.500,98.090,23.680,7.761,easy
1171.000,271.500,70.370,15.160,1479.000,272.100,66.200,14.780,298.300,70.730,18.330,6.061,393.700,98.360,23.630,7.822,easy
1181.000,273.700,70.620,15.380,1477.000,273.200,66.840,14.760,295.300,70.750,18.380,6.106,397.900,99.420,23.860,7.919,easy
1192.000,278.100,71.590,15.590,1490.000,274.400,66.920,14.950,301.500,70.730,18.520,6.136,399.100,100.500,24.170,7.932,easy
1204.000,278.800,72.340,15.750,1487.000,275.400,67.170,14.940,303.400,71.600,18.500,6.131,402.800,100.400,24.070,8.025,easy
1215.000,282.200,73.000,15.860,1499.000,277.300,67.380,14.950,300.600,71.960,18.700,6.174,404.900,100.800,24.370,8.031,easy
1205.000,279.800,70.500,15.200,1462.000,269.100,65.890,14.510,302.700,70.950,18.340,6.064,393.400,97.410,23.370,7.751,easy
1156.000,269.000,68.750,14.990,1466.000,269.800,65.820,14.550,295.200,69.580,18.140,6.014,391.400,97.520,23.430,7.714,easy
1158.000,268.200,69.380,14.970,1460.000,269.600,65.690,14.610,293.700,70.380,18.240,6.048,394.200,98.090,23.600,7.750,easy
1160.000,269.100,68.970,14.940,1456.000,268.100,65.440,14.620,296.400,70.190,18.270,6.019,392.900,97.960,23.400,7.711,easy
1154.000,267.800,68.960,15.000,1465.000,268.100,65.560,14.580,299.200,70.220,18.310,6.047,392.300,97.880,23.380,7.742,easy
1162.000,268.300,69.510,15.060,1474.000,270.200,66.090,14.680,298.500,70.120,18.370,6.060,393.600,97.880,23.590,7.796,easy
1171.000,271.700,70.510,15.210,1475.000,271.600,66.170,14.690,297.400,71.060,18.420,6.069,395.700,99.180,23.620,7.876,easy
1180.000,275.400,70.830,15.310,1474.000,272.100,66.840,14.780,300.200,71.240,18.520,6.114,397.200,99.490,23.990,7.893,easy
1190.000,277.100,71.340,15.590,1485.000,275.400,66.980,14.880,303.800,71.290,18.610,6.131,400.600,100.100,24.100,7.922,easy
1186.000,272.500,70.240,15.170,1461.000,268.900,65.280,14.480,292.900,71.210,18.310,6.046,391.700,97.170,23.350,7.624,easy
1136.000,260.000,67.680,14.710,1445.000,267.100,64.890,14.350,295.900,70.100,18.070,5.977,385.800,97.100,23.040,7.625,easy
1135.000,259.900,66.920,14.740,1451.000,265.600,65.230,14.440,293.300,70.110,18.170,5.981,387.600,97.030,23.250,7.605,easy
1136.000,261.500,68.090,14.730,1452.000,265.600,65.280,14.450,291.800,69.930,18.190,5.975,386.800,96.400,23.100,7.608,easy
1132.000,260.100,67.390,14.700,1449.000,266.400,65.110,14.390,291.800,70.270,18.110,6.013,387.800,96.380,23.150,7.651,easy
1136.000,264.300,67.570,14.810,1457.000,266.500,65.470,14.510,299.300,70.450,18.210,6.022,388.400,97.280,23.230,7.691,easy
1146.000,264.900,68.490,15.020,1453.000,268.500,65.580,14.590,292.700,70.440,18.310,5.987,391.700,97.780,23.320,7.709,easy
1154.000,269.500,69.170,15.080,1462.000,268.800,66.120,14.720,296.700,70.840,18.330,6.061,393.800,98.290,23.680,7.760,easy
1162.000,270.400,70.640,15.250,1471.000,271.300,66.350,14.840,295.000,71.040,18.440,6.065,393.600,98.620,23.740,7.860,easy
1172.000,272.200,70.570,15.320,1474.000,270.300,66.260,14.720,296.500,71.080,18.580,6.106,395.900,98.600,23.610,7.745,easy
1143.000,264.600,67.330,14.650,1434.000,264.000,64.180,14.400,293.800,70.260,18.170,5.939,385.300,95.670,22.720,7.526,easy
1116.000,257.800,66.560,14.520,1428.000,263.400,64.580,14.400,290.900,69.230,17.950,5.943,382.000,95.730,22.770,7.464,easy
1113.000,256.900,66.740,14.500,1433.000,264.300,64.580,14.320,295.200,69.410,18.150,5.977,383.700,95.500,22.860,7.503,easy
1114.000,256.600,66.890,14.380,1437.000,263.400,64.350,14.410,296.700,69.220,18.150,5.980,382.500,95.800,22.760,7.497,easy
1110.000,257.700,66.250,14.510,1441.000,262.400,64.560,14.390,291.600,69.650,18.200,5.968,382.700,95.660,22.870,7.557,easy
1119.000,259.000,67.310,14.590,1438.000,264.400,64.650,14.590,294.600,69.390,18.110,5.988,382.900,96.580,23.000,7.562,easy
1129.000,260.800,67.020,14.750,1443.000,265.500,65.220,14.590,293.500,69.930,18.240,6.021,387.100,97.490,23.270,7.677,easy
1137.000,263.100,68.480,14.910,1462.000,268.400,65.720,14.610,292.500,70.130,18.180,6.083,389.300,97.490,23.360,7.648,easy
1146.000,268.100,68.890,15.070,1461.000,269.000,65.640,14.850,294.300,70.960,18.400,6.059,391.400,98.070,23.540,7.768,easy
1158.000,267.300,69.650,15.140,1464.000,270.600,65.850,14.860,301.100,70.880,18.470,6.104,394.400,98.730,23.890,7.846,easy
1169.000,272.900,70.490,15.420,1468.000,269.800,65.530,14.690,303.200,70.980,18.570,6.139,395.000,98.140,23.560,7.658,easy
1138.000,261.200,67.470,14.600,1433.000,264.300,64.520,14.440,295.700,69.970,18.170,5.953,382.300,95.480,22.900,7.496,easy
1110.000,259.000,66.610,14.490,1428.000,263.100,64.140,14.400,290.600,69.420,18.090,5.946,380.300,95.740,22.770,7.478,easy
1110.000,257.200,66.600,14.480,1437.000,264.500,64.450,14.400,292.000,69.480,18.140,5.978,382.300,95.790,22.910,7.495,easy
1112.000,258.100,66.960,14.510,1435.000,263.400,64.810,14.400,294.900,69.140,18.120,5.958,381.600,95.250,22.840,7.473,easy
1108.000,256.100,66.460,14.500,1435.000,264.400,64.590,14.480,294.200,69.660,18.060,5.988,382.700,95.770,22.920,7.542,easy
1116.000,258.000,67.330,14.730,1437.000,264.100,64.920,14.510,295.400,69.800,18.150,5.989,385.000,96.360,23.160,7.575,easy
1126.000,259.600,67.400,14.700,1453.000,265.900,65.370,14.630,294.200,70.040,18.340,6.034,386.500,96.800,23.230,7.660,easy
1135.000,263.400,68.690,14.990,1458.000,267.800,65.850,14.640,292.600,69.910,18.360,6.083,388.200,97.690,23.500,7.696,easy
1144.000,265.900,68.720,15.030,1465.000,268.200,65.620,14.760,293.900,70.460,18.260,6.071,390.000,98.050,23.590,7.771,easy
1155.000,268.100,69.630,15.150,1469.000,271.100,66.030,14.780,302.200,70.590,18.380,6.110,393.600,98.100,23.580,7.817,easy
1150.000,263.500,67.810,14.730,1440.000,263.900,64.650,14.320,297.600,70.100,18.180,5.971,382.400,95.820,22.720,7.535,easy
1106.000,255.900,66.380,14.470,1434.000,263.300,64.590,14.420,292.200,69.310,18.010,5.939,380.900,95.140,22.880,7.548,easy
1108.000,256.100,66.570,14.570,1441.000,262.500,64.140,14.470,294.900,69.330,18.050,5.939,382.300,95.740,22.880,7.524,easy
1112.000,255.900,66.380,14.550,1431.000,263.700,64.490,14.500,292.600,69.660,18.100,5.965,381.800,95.360,22.770,7.529,easy
1108.000,255.800,66.550,14.510,1435.000,263.900,64.520,14.440,290.700,69.880,18.110,5.991,381.700,95.780,22.800,7.543,easy
1115.000,256.900,67.230,14.710,1444.000,265.500,64.900,14.520,291.100,69.440,18.060,5.963,384.700,96.210,23.120,7.575,easy
1126.000,260.000,67.510,14.870,1454.000,266.200,65.100,14.640,290.500,69.990,18.240,6.003,385.300,96.490,23.170,7.637,easy
1136.000,262.000,68.080,15.010,1459.000,268.300,65.660,14.670,292.600,70.130,18.270,6.065,389.600,97.040,23.290,7.735,easy
1145.000,267.300,68.940,15.060,1458.000,268.500,65.970,14.690,294.700,70.400,18.420,6.053,390.000,97.830,23.610,7.760,easy
1156.000,270.500,70.020,15.190,1467.000,268.200,65.390,14.610,295.700,70.320,18.400,6.080,392.600,97.230,23.420,7.575,easy
1123.000,257.300,66.810,14.510,1437.000,262.000,64.150,14.480,289.300,69.140,17.990,5.931,379.400,94.150,22.580,7.450,easy
1102.000,255.000,66.070,14.410,1433.000,263.300,64.160,14.380,289.900,68.530,17.900,5.933,379.700,94.510,22.470,7.474,easy
1103.000,254.900,65.780,14.340,1436.000,263.000,64.330,14.350,289.600,69.170,18.070,5.935,380.600,94.830,22.650,7.475,easy
1103.000,254.800,66.310,14.390,1433.000,262.700,64.330,14.410,292.000,68.910,17.970,5.924,378.600,94.120,22.650,7.470,easy
1102.000,254.700,65.850,14.510,1437.000,263.300,64.610,14.470,293.100,68.970,17.960,5.911,377.900,94.150,22.720,7.489,easy
1110.000,256.800,66.250,14.520,1442.000,265.900,64.780,14.450,291.600,69.160,18.080,5.970,380.800,95.430,22.820,7.504,easy
1118.000,258.700,67.250,14.680,1453.000,266.300,65.030,14.470,290.800,69.400,18.120,5.960,381.800,95.270,22.890,7.559,easy
1126.000,261.400,67.720,14.830,1455.000,266.800,65.590,14.620,290.800,69.510,18.210,5.991,385.000,96.360,23.080,7.638,easy
1133.000,262.100,68.540,14.880,1457.000,268.200,65.730,14.680,293.100,69.920,18.200,6.001,386.600,96.340,23.330,7.702,easy
1144.000,266.200,69.000,14.920,1454.000,266.600,65.130,14.510,293.500,70.610,18.280,6.016,382.600,95.170,22.730,7.465,easy
1105.000,252.800,65.820,14.290,1433.000,261.800,64.550,14.410,288.000,69.480,17.850,5.875,376.800,93.730,22.370,7.369,easy
1094.000,252.800,65.420,14.290,1434.000,262.100,64.320,14.330,286.800,68.730,17.970,5.888,374.500,93.620,22.230,7.321,easy
1093.000,254.200,65.810,14.270,1433.000,262.300,64.060,14.310,294.200,68.870,17.890,5.920,374.500,93.800,22.250,7.388,easy
1094.000,251.900,65.280,14.300,1431.000,262.500,64.580,14.470,286.300,68.710,17.940,5.897,373.900,93.680,22.340,7.384,easy
1095.000,254.200,65.680,14.300,1438.000,263.500,64.480,14.360,286.200,69.220,18.030,5.913,376.100,94.280,22.480,7.368,easy
1104.000,256.500,66.070,14.520,1443.000,264.400,64.770,14.460,290.600,69.880,17.930,5.937,377.700,94.390,22.690,7.439,easy
1114.000,258.300,66.790,14.620,1435.000,265.400,65.170,14.620,288.800,69.750,18.190,5.997,380.500,95.060,22.790,7.551,easy
1123.000,260.100,67.810,14.760,1449.000,266.300,65.450,14.710,293.700,69.690,18.300,6.047,383.600,95.690,22.900,7.574,easy
1131.000,261.800,68.000,14.830,1456.000,269.400,65.840,14.650,294.400,70.610,18.230,6.071,385.700,96.100,23.130,7.605,easy
1142.000,266.000,68.630,15.020,1469.000,268.900,66.480,14.840,296.400,70.000,18.350,6.089,386.700,96.770,23.340,7.668,easy
1148.000,264.500,68.590,14.740,1447.000,265.700,64.920,14.440,295.800,70.190,18.360,6.022,380.600,94.370,22.490,7.364,easy
1105.000,254.600,66.100,14.450,1435.000,263.900,65.140,14.520,290.300,69.150,18.030,5.941,376.300,93.890,22.440,7.373,easy
1105.000,256.400,65.940,14.460,1438.000,263.600,64.690,14.500,288.900,68.820,18.030,5.976,376.100,94.560,22.460,7.359,easy
1106.000,256.500,66.080,14.450,1441.000,265.600,64.790,14.490,289.800,69.350,18.090,5.971,377.900,94.550,22.440,7.392,easy
1104.000,256.500,66.660,14.440,1440.000,263.900,65.030,14.540,288.200,69.580,18.100,5.992,377.200,94.830,22.640,7.430,easy
1110.000,257.900,67.310,14.540,1450.000,265.300,65.170,14.570,290.900,69.990,18.180,6.050,380.000,95.170,22.770,7.472,easy
1118.000,260.700,67.250,14.610,1450.000,266.400,65.320,14.720,291.500,70.270,18.350,6.035,382.400,95.840,22.710,7.555,easy
1128.000,262.800,68.200,14.800,1457.000,267.800,65.810,14.710,291.100,69.720,18.390,6.078,383.400,96.100,23.000,7.585,easy
1135.000,262.500,68.750,14.920,1463.000,268.800,66.140,14.800,294.000,70.590,18.400,6.068,385.700,96.830,23.310,7.631,easy
1146.000,267.100,69.340,15.090,1471.000,270.600,65.920,14.770,296.100,70.590,18.460,6.128,387.000,97.000,23.020,7.605,easy
1129.000,260.900,67.060,14.610,1441.000,265.600,65.250,14.570,293.000,70.350,18.290,6.009,380.300,94.450,22.520,7.383,easy
1109.000,256.400,66.460,14.620,1443.000,266.500,65.060,14.540,295.700,69.890,18.290,6.008,376.600,94.720,22.550,7.348,easy
1110.000,257.400,66.930,14.570,1444.000,265.500,65.130,14.580,294.400,69.930,18.190,6.026,381.500,94.690,22.620,7.429,easy
1113.000,258.300,66.920,14.540,1447.000,265.300,65.170,14.600,294.000,69.610,18.180,6.017,379.000,94.700,22.470,7.402,easy
1112.000,259.000,66.870,14.680,1446.000,266.500,65.030,14.660,296.400,70.060,18.250,6.045,380.500,95.400,22.580,7.431,easy
1120.000,260.100,67.590,14.710,1456.000,268.100,65.810,14.800,288.500,70.500,18.320,6.073,382.200,95.660,22.800,7.507,easy
1129.000,262.700,68.180,14.890,1460.000,267.500,66.160,14.850,293.500,70.880,18.270,6.100,385.400,96.380,23.040,7.535,easy
1137.000,260.300,68.970,14.980,1467.000,270.100,66.280,14.870,295.100,70.040,18.470,6.111,384.100,96.840,23.090,7.609,easy
1145.000,264.300,69.860,15.100,1474.000,271.600,66.660,14.890,295.200,70.630,18.440,6.164,387.900,97.720,23.390,7.646,easy
1156.000,268.600,69.910,15.250,1473.000,271.500,66.980,15.010,296.900,70.300,18.600,6.162,391.200,97.880,23.420,7.728,easy
1165.000,270.800,70.810,15.310,1470.000,270.700,66.280,14.740,301.700,71.730,18.570,6.139,389.400,96.770,22.950,7.484,easy
1123.000,259.200,67.320,14.760,1446.000,266.900,65.360,14.700,292.100,69.970,18.160,6.037,381.400,94.510,22.590,7.394,easy
1114.000,260.000,67.100,14.680,1454.000,266.300,65.600,14.660,293.300,69.540,18.170,6.033,381.200,94.730,22.430,7.375,easy
1111.000,256.200,67.000,14.640,1453.000,267.700,65.480,14.650,291.100,69.780,18.250,6.055,381.600,94.900,22.680,7.409,easy
1113.000,258.200,66.820,14.570,1447.000,266.000,65.260,14.650,294.400,69.740,18.250,6.079,380.700,94.630,22.680,7.432,easy
1111.000,257.100,67.230,14.660,1455.000,266.600,65.790,14.790,291.500,70.460,18.320,6.085,381.600,95.470,22.680,7.457,easy
1122.000,260.000,68.140,14.730,1464.000,269.400,65.890,14.800,295.500,70.810,18.270,6.106,383.500,95.380,22.780,7.526,easy
1129.000,262.100,68.190,14.920,1469.000,270.000,66.410,14.840,296.600,70.760,18.470,6.152,386.200,96.440,22.900,7.561,easy
1137.000,262.400,68.810,15.070,1471.000,270.300,66.400,14.850,294.400,70.620,18.630,6.168,388.000,96.860,23.140,7.604,easy
1146.000,267.500,69.000,15.090,1482.000,272.400,66.840,15.000,296.800,71.240,18.670,6.167,390.100,97.240,23.290,7.633,easy
1157.000,269.000,69.790,15.460,1481.000,273.900,67.250,15.160,296.500,71.190,18.730,6.198,392.600,98.570,23.580,7.723,easy
1167.000,269.300,70.320,15.480,1492.000,275.600,67.540,15.110,296.700,71.500,18.870,6.242,395.100,98.450,23.560,7.713,easy
1158.000,265.600,68.120,14.970,1463.000,269.600,65.980,14.720,298.000,71.070,18.510,6.149,385.700,96.030,22.710,7.495,easy
1118.000,259.900,66.760,14.560,1462.000,268.500,65.510,14.730,295.700,70.860,18.400,6.119,383.100,95.620,22.650,7.435,easy
1118.000,257.700,67.090,14.640,1453.000,268.600,66.140,14.750,293.400,70.640,18.330,6.098,383.900,95.450,22.790,7.470,easy
1119.000,258.900,67.380,14.660,1459.000,268.600,65.640,14.800,295.400,70.780,18.400,6.134,384.100,95.530,22.730,7.433,easy
1119.000,257.800,67.270,14.710,1456.000,269.400,66.190,14.830,299.700,70.220,18.460,6.117,385.300,95.070,22.750,7.500,easy
1124.000,261.400,67.150,14.810,1465.000,270.300,66.310,14.920,298.600,71.140,18.430,6.141,385.200,96.380,22.880,7.571,easy
1136.000,264.700,68.190,15.000,1476.000,271.500,66.860,14.930,295.000,71.370,18.630,6.199,388.400,96.350,23.170,7.646,easy
1147.000,266.700,68.900,15.000,1485.000,273.800,67.150,15.080,296.700,71.220,18.630,6.234,390.600,97.620,23.070,7.699,easy
1158.000,269.600,69.340,15.170,1490.000,275.000,67.710,15.110,294.900,71.950,18.750,6.231,392.500,97.560,23.600,7.730,easy
1169.000,272.400,70.070,15.260,1501.000,277.000,67.620,15.250,299.800,71.930,18.890,6.268,396.200,99.030,23.570,7.816,easy
1182.000,277.500,71.980,15.620,1509.000,279.700,68.470,15.370,304.400,72.700,18.980,6.309,399.500,100.000,23.890,7.965,easy
1195.000,279.500,71.850,15.800,1508.000,278.400,67.810,15.140,302.300,72.680,19.160,6.339,400.900,99.470,23.500,7.728,easy
1158.000,266.100,68.640,14.950,1475.000,271.600,66.670,14.950,300.200,71.420,18.720,6.183,391.200,97.020,23.240,7.637,easy
1137.000,265.600,67.910,14.980,1484.000,271.700,67.390,14.980,302.200,71.420,18.600,6.216,390.100,97.060,23.130,7.682,easy
1144.000,265.300,68.900,14.890,1483.000,272.900,67.010,15.000,299.800,71.590,18.770,6.212,392.300,97.450,23.330,7.698,easy
1146.000,265.800,68.710,14.880,1476.000,271.900,66.680,14.980,298.000,71.950,18.780,6.211,391.500,97.430,23.150,7.629,easy
1145.000,264.700,68.870,15.060,1484.000,273.300,67.010,14.970,302.800,71.610,18.790,6.244,393.400,97.720,23.360,7.720,easy
1156.000,269.600,69.600,15.060,1489.000,276.100,67.530,15.120,299.700,71.890,18.860,6.263,394.200,98.500,23.380,7.825,easy
1170.000,271.500,70.960,15.270,1505.000,277.900,68.240,15.150,297.800,72.190,18.870,6.262,398.900,98.440,23.840,7.914,easy
1181.000,275.600,71.350,15.490,1514.000,279.500,68.630,15.360,304.800,72.740,18.910,6.298,402.000,99.790,24.030,7.920,easy
1194.000,279.500,72.130,15.600,1517.000,280.700,68.660,15.470,305.100,72.780,19.000,6.347,403.200,100.600,24.090,8.011,easy
1209.000,282.700,73.020,15.800,1504.000,278.500,67.870,15.110,306.600,72.880,19.190,6.343,400.000,98.780,23.700,7.800,easy
1159.000,267.300,68.900,14.930,1482.000,273.100,67.220,14.910,302.000,71.420,18.620,6.202,394.000,97.440,23.170,7.694,easy
1148.000,268.900,69.070,14.910,1481.000,274.500,67.480,15.070,302.900,71.760,18.660,6.178,393.800,97.470,23.340,7.698,easy
1157.000,269.300,69.260,15.010,1486.000,274.600,67.440,15.010,299.300,71.400,18.780,6.221,395.600,98.210,23.380,7.744,easy
1158.000,267.500,68.900,15.070,1488.000,274.100,67.610,15.040,301.100,71.130,18.780,6.193,393.900,98.000,23.370,7.762,easy
1159.000,267.900,69.330,15.080,1495.000,276.900,67.800,15.170,300.500,72.150,18.790,6.205,396.100,98.620,23.500,7.786,easy
1171.000,273.900,70.260,15.330,1496.000,278.800,68.120,15.210,303.900,71.850,18.700,6.259,398.100,99.020,23.840,7.854,easy
1185.000,276.700,71.110,15.400,1510.000,280.300,68.340,15.360,305.300,72.490,18.920,6.308,401.300,99.770,24.020,7.948,easy
1197.000,279.700,72.340,15.610,1518.000,281.300,69.090,15.470,303.200,72.470,19.070,6.326,402.900,100.900,24.240,8.042,easy
1210.000,281.300,73.310,15.840,1529.000,283.800,69.810,15.520,301.900,73.420,19.150,6.332,406.500,101.100,24.310,8.092,easy
1221.000,287.400,73.780,15.950,1527.000,282.000,68.670,15.240,309.400,73.680,19.200,6.357,406.000,100.500,23.990,7.880,easy
1177.000,273.400,69.730,15.050,1480.000,275.600,67.410,15.070,300.200,71.710,18.690,6.198,394.700,98.020,23.370,7.778,easy
1157.000,269.600,69.680,15.010,1491.000,276.100,67.510,15.060,300.700,72.070,18.640,6.182,393.600,98.060,23.420,7.736,easy
1161.000,268.000,69.430,15.100,1492.000,275.900,67.930,15.070,301.400,72.300,18.810,6.196,396.700,98.480,23.560,7.787,easy
1162.000,273.500,69.030,15.110,1495.000,277.100,67.280,15.050,297.800,71.570,18.780,6.182,395.100,97.530,23.490,7.744,easy
1161.000,269.600,69.870,15.080,1493.000,275.900,67.940,15.140,302.300,71.730,18.800,6.207,397.100,98.650,23.510,7.797,easy
1171.000,273.600,70.430,15.290,1504.000,277.200,68.310,15.190,298.200,71.800,18.800,6.232,398.100,99.010,23.790,7.892,easy
1182.000,275.400,70.830,15.410,1511.000,280.200,68.710,15.380,305.600,72.820,18.890,6.282,401.600,99.420,24.000,7.916,easy
1193.000,280.400,72.380,15.660,1519.000,282.200,69.220,15.430,303.800,72.360,19.040,6.287,404.300,99.970,23.990,8.005,easy
1205.000,282.600,72.630,15.680,1527.000,282.200,69.340,15.490,303.600,72.450,19.050,6.309,406.100,100.600,24.290,8.000,easy
1212.000,282.800,72.420,15.530,1504.000,278.700,68.090,15.120,305.300,72.900,18.930,6.217,400.600,98.980,23.590,7.780,easy
1158.000,265.700,69.260,14.950,1493.000,275.200,67.680,14.960,305.800,71.970,18.730,6.149,392.400,97.530,23.260,7.660,easy
1155.000,268.700,69.290,15.000,1497.000,276.000,67.310,15.120,303.100,71.880,18.590,6.172,393.500,98.040,23.380,7.744,easy
1157.000,268.100,69.790,14.980,1494.000,275.200,68.040,15.080,304.100,71.480,18.570,6.183,395.300,98.300,23.480,7.753,easy
1155.000,267.800,69.260,15.060,1489.000,275.800,67.710,15.140,299.600,71.330,18.640,6.155,393.000,98.220,23.480,7.700,easy
1159.000,269.800,69.910,15.110,1493.000,276.400,68.330,15.210,301.300,71.630,18.700,6.186,397.000,98.530,23.670,7.746,easy
1171.000,274.800,70.430,15.350,1495.000,279.100,68.560,15.310,303.600,72.330,18.730,6.231,397.900,99.450,23.700,7.866,easy
1181.000,275.900,71.120,15.400,1507.000,280.400,68.550,15.370,304.600,72.390,18.880,6.277,400.900,99.530,24.020,7.910,easy
1194.000,279.300,71.850,15.640,1520.000,282.000,69.200,15.470,306.500,72.610,19.060,6.286,402.600,100.100,24.060,7.979,easy
1205.000,282.600,73.200,15.810,1525.000,284.400,69.680,15.580,302.900,72.540,19.070,6.297,405.100,100.800,24.390,8.041,easy
1212.000,283.500,72.350,15.570,1505.000,276.800,68.160,15.140,302.100,73.430,18.970,6.224,398.800,99.030,23.660,7.741,easy
1158.000,270.100,69.230,15.110,1493.000,276.300,67.600,15.110,298.200,71.440,18.550,6.169,394.800,97.530,23.380,7.717,easy
1157.000,267.900,69.300,15.190,1494.000,276.200,68.080,15.160,301.400,70.680,18.710,6.160,394.300,98.230,23.550,7.735,easy
1163.000,272.000,70.080,15.240,1491.000,277.000,67.620,15.210,300.900,71.870,18.590,6.198,396.300,98.480,23.470,7.783,easy
1160.000,269.000,69.820,15.160,1489.000,276.900,68.120,15.200,302.800,71.360,18.740,6.163,396.100,98.520,23.650,7.757,easy
1166.000,271.200,70.350,15.400,1507.000,279.700,68.210,15.260,305.700,71.870,18.690,6.188,396.200,99.410,23.780,7.840,easy
1179.000,276.900,71.600,15.510,1509.000,278.800,68.860,15.350,304.000,71.830,18.840,6.228,398.600,99.930,24.090,7.919,easy
1190.000,276.800,71.870,15.700,1518.000,280.700,69.070,15.470,301.600,72.860,18.930,6.285,400.600,100.200,24.160,7.976,easy
1200.000,283.200,72.140,15.850,1520.000,282.600,69.630,15.520,307.900,72.320,19.000,6.278,405.700,100.100,24.300,8.000,easy
1212.000,282.800,73.770,16.000,1525.000,281.800,69.270,15.370,307.100,73.050,19.090,6.310,406.400,100.700,23.980,7.875,easy
1178.000,273.700,70.190,15.240,1490.000,276.100,67.960,15.200,300.900,71.680,18.650,6.173,395.900,98.210,23.380,7.759,easy
1157.000,268.900,69.900,15.230,1496.000,275.500,68.100,15.300,300.900,71.710,18.680,6.128,394.800,98.300,23.530,7.708,easy
1163.000,271.700,70.580,15.260,1504.000,277.600,68.070,15.270,304.600,72.020,18.650,6.179,397.600,99.130,23.630,7.769,easy
1164.000,271.800,70.010,15.260,1496.000,276.200,68.020,15.250,302.200,70.860,18.730,6.188,396.200,98.440,23.580,7.757,easy
1164.000,272.800,70.860,15.360,1505.000,277.400,68.420,15.310,301.200,72.120,18.690,6.169,397.400,98.860,23.760,7.816,easy
1175.000,273.300,71.470,15.630,1507.000,278.800,68.820,15.440,298.000,71.870,18.770,6.209,398.300,99.920,23.930,7.873,easy
1186.000,276.500,72.200,15.680,1507.000,281.700,69.100,15.580,303.300,72.940,18.790,6.263,403.200,100.200,23.980,7.955,easy
1197.000,281.800,72.740,15.860,1520.000,282.100,69.140,15.630,298.400,73.280,19.090,6.269,404.700,100.700,24.230,8.025,easy
1208.000,282.900,73.310,16.120,1523.000,283.700,69.180,15.430,306.000,73.050,19.000,6.282,405.100,100.900,24.030,7.959,easy
1182.000,273.200,70.940,15.290,1499.000,276.200,68.320,15.140,301.700,71.220,18.620,6.139,395.000,98.370,23.330,7.741,easy
1152.000,268.300,69.600,15.230,1493.000,276.800,68.070,15.130,300.800,71.870,18.720,6.151,393.800,97.560,23.330,7.724,easy
1155.000,269.600,70.230,15.260,1493.000,275.800,67.930,15.170,301.900,71.150,18.660,6.158,395.000,98.090,23.500,7.745,easy
1156.000,268.700,69.600,15.300,1497.000,276.100,67.790,15.240,302.600,70.680,18.530,6.144,395.000,97.750,23.370,7.703,easy
1154.000,268.600,70.180,15.260,1495.000,276.000,68.020,15.300,300.000,70.890,18.700,6.163,393.700,98.520,23.460,7.737,easy
1161.000,271.700,70.830,15.430,1494.000,277.200,68.250,15.220,301.500,72.320,18.590,6.195,396.900,98.850,23.790,7.785,easy
1172.000,272.100,71.270,15.610,1501.000,279.600,68.310,15.460,298.300,71.630,18.830,6.204,399.600,99.290,23.930,7.849,easy
1183.000,277.100,71.470,15.710,1509.000,280.700,68.710,15.410,300.600,71.890,18.940,6.234,401.900,100.000,23.970,7.897,easy
1192.000,280.100,72.760,15.930,1515.000,281.300,69.210,15.490,303.600,72.250,19.030,6.249,401.200,100.500,24.200,8.040,easy
1201.000,281.000,72.950,15.880,1505.000,278.900,68.490,15.240,301.800,73.320,18.960,6.244,399.900,99.530,23.600,7.772,easy
1155.000,267.500,68.990,15.110,1488.000,274.300,67.510,15.030,298.200,71.040,18.600,6.113,390.800,97.000,23.210,7.661,easy
1144.000,265.000,68.550,15.120,1491.000,274.400,67.840,15.080,298.000,71.450,18.590,6.109,390.100,97.580,23.160,7.641,easy
1145.000,267.700,69.330,15.160,1493.000,274.700,67.730,15.030,297.600,71.420,18.640,6.126,391.300,97.600,23.260,7.696,easy
1143.000,265.800,69.110,15.160,1481.000,274.200,67.630,15.020,299.000,70.790,18.620,6.160,391.200,96.950,23.410,7.738,easy
1144.000,266.600,69.260,15.240,1485.000,274.100,67.410,15.090,299.500,71.030,18.540,6.126,391.700,97.500,23.390,7.703,easy
1153.000,269.400,69.950,15.270,1491.000,277.300,68.100,15.110,296.400,71.140,18.610,6.183,393.200,98.090,23.500,7.767,easy
1162.000,271.700,70.290,15.420,1509.000,277.900,67.990,15.310,300.500,71.650,18.760,6.186,396.000,98.570,23.690,7.816,easy
1173.000,273.300,71.120,15.580,1502.000,278.700,68.430,15.330,298.400,72.210,18.820,6.226,399.000,99.070,23.780,7.874,easy
1182.000,275.200,71.760,15.740,1514.000,281.000,68.840,15.350,301.200,72.440,18.960,6.249,399.800,99.510,24.010,7.996,easy
1192.000,279.900,72.540,15.830,1521.000,282.100,69.120,15.370,306.800,72.470,19.040,6.262,400.800,100.700,24.300,8.010,easy
1197.000,277.000,71.650,15.520,1491.000,275.800,67.780,14.940,306.600,72.620,18.760,6.215,394.300,97.730,23.290,7.671,easy
1143.000,267.200,68.990,15.050,1484.000,274.400,67.590,14.970,303.900,71.370,18.440,6.114,391.800,97.180,23.070,7.668,easy
1142.000,267.500,68.910,14.970,1485.000,273.500,67.160,15.030,301.800,71.400,18.600,6.131,392.100,96.800,23.190,7.658,easy
1144.000,267.400,69.110,15.010,1483.000,273.400,67.480,15.010,296.600,71.600,18.480,6.158,390.800,97.290,23.260,7.665,easy
1141.000,266.400,68.790,14.960,1491.000,274.100,67.190,14.990,299.400,71.780,18.580,6.105,390.900,97.390,23.270,7.686,easy
1147.000,268.700,69.250,15.190,1490.000,275.700,67.700,15.180,301.400,72.570,18.710,6.114,391.700,97.910,23.410,7.717,easy
1159.000,270.500,70.260,15.300,1500.000,277.500,67.910,15.120,303.300,72.360,18.780,6.205,394.700,98.210,23.670,7.778,easy
1170.000,272.900,70.740,15.560,1511.000,279.300,68.270,15.250,301.200,72.440,18.820,6.225,397.600,99.660,23.760,7.873,easy
1182.000,276.400,72.050,15.640,1515.000,280.600,69.010,15.280,304.800,72.310,18.840,6.232,399.200,99.890,24.080,7.943,easy
1193.000,278.500,72.320,15.840,1522.000,281.200,68.820,15.330,305.300,72.200,18.980,6.261,404.300,100.600,24.350,8.070,easy
1205.000,283.800,73.300,15.940,1525.000,284.000,69.500,15.510,305.800,73.200,18.970,6.306,406.400,101.500,24.430,8.110,easy
1218.000,285.700,73.290,15.870,1515.000,280.600,67.980,15.160,311.300,73.210,19.050,6.255,401.000,99.330,23.630,7.826,easy
1162.000,269.900,69.610,15.250,1489.000,275.100,67.840,15.070,299.100,71.700,18.680,6.148,395.300,98.370,23.570,7.771,easy
1185.000,275.500,72.000,15.810,1517.000,282.000,68.710,15.450,302.000,72.230,18.930,6.209,402.600,100.500,24.040,7.999,bogus
1197.000,281.800,72.690,15.830,1516.000,282.600,69.390,15.400,302.600,73.070,18.900,6.268,404.000,101.100,24.210,8.031,bogus
1208.000,282.800,73.480,16.110,1526.000,283.600,69.190,15.510,300.800,73.070,19.010,6.281,407.000,101.800,24.350,8.097,bogus
1219.000,284.200,73.230,15.800,1511.000,279.100,68.350,15.120,306.200,72.890,19.010,6.242,400.700,99.350,23.700,7.826,bogus
1164.000,269.500,70.220,15.200,1495.000,276.700,67.840,15.040,300.100,71.630,18.710,6.152,395.100,98.550,23.510,7.769,bogus
1231.000,287.900,75.260,16.180,1560.000,290.200,71.580,15.910,304.400,72.480,18.990,6.270,405.200,100.700,24.280,8.002,hard
1243.000,292.200,75.890,16.340,1557.000,291.300,71.760,16.030,311.100,72.630,19.110,6.317,406.800,101.200,24.360,8.108,hard
1249.000,292.800,74.940,15.970,1543.000,286.300,69.640,15.540,304.500,72.300,18.990,6.206,397.700,98.480,23.510,7.739,hard
1184.000,275.300,71.010,15.360,1517.000,283.300,69.330,15.460,301.300,71.380,18.630,6.133,391.400,97.400,23.290,7.633,hard
1183.000,274.200,71.000,15.450,1525.000,284.200,69.860,15.620,299.100,71.950,18.760,6.146,392.400,97.480,23.410,7.747,hard
1190.000,276.500,71.390,15.510,1516.000,283.700,69.530,15.450,300.700,72.070,18.690,6.180,393.400,97.600,23.350,7.691,hard
1182.000,277.600,70.790,15.480,1520.000,284.500,69.850,15.500,301.100,71.290,18.570,6.166,392.300,97.660,23.180,7.692,hard
1187.000,277.200,70.930,15.520,1529.000,285.000,69.570,15.550,301.400,71.120,18.850,6.201,393.000,97.920,23.410,7.694,hard
1199.000,280.600,72.600,15.580,1532.000,285.600,70.570,15.750,299.500,71.860,18.810,6.219,395.700,98.620,23.540,7.755,hard
1210.000,282.700,72.490,15.950,1550.000,287.700,71.000,15.820,299.800,72.680,18.940,6.245,396.900,99.210,23.740,7.861,hard
1221.000,286.500,73.660,15.960,1549.000,288.400,71.190,15.830,301.300,73.420,19.020,6.271,400.300,99.960,24.020,7.922,hard
1232.000,289.700,74.830,16.130,1555.000,290.000,71.810,15.980,306.100,72.850,19.030,6.298,402.300,100.700,24.250,8.006,hard
1240.000,290.700,74.280,15.880,1529.000,286.000,69.850,15.580,305.900,73.380,19.070,6.257,395.800,97.380,23.240,7.669,hard
1179.000,272.400,70.620,15.390,1517.000,281.600,69.720,15.550,302.900,71.750,18.570,6.173,390.400,96.860,23.050,7.647,hard
1177.000,276.200,70.360,15.310,1521.000,282.800,69.930,15.500,297.800,71.310,18.580,6.186,391.700,97.180,23.280,7.630,hard
1182.000,275.700,71.030,15.360,1521.000,282.500,69.210,15.510,301.700,71.230,18.700,6.179,391.100,96.670,23.190,7.586,hard
1174.000,272.600,70.480,15.340,1513.000,281.300,69.500,15.530,299.400,72.210,18.650,6.181,388.400,96.900,23.180,7.595,hard
1179.000,277.100,71.420,15.400,1522.000,284.900,70.010,15.670,299.600,70.870,18.740,6.179,391.200,97.030,23.220,7.642,hard
1190.000,280.000,72.020,15.490,1529.000,284.500,70.000,15.690,300.600,72.420,18.760,6.220,391.000,97.790,23.500,7.700,hard
1199.000,280.900,72.670,15.720,1537.000,286.200,70.610,15.740,299.500,71.820,18.880,6.238,395.000,98.590,23.590,7.752,hard
1210.000,281.300,72.920,15.820,1541.000,287.100,70.790,15.800,299.600,72.430,18.960,6.300,395.900,98.850,23.710,7.833,hard
1217.000,285.000,72.810,15.770,1528.000,284.400,69.220,15.510,304.200,72.450,18.910,6.242,390.700,97.300,23.150,7.570,hard
1167.000,271.400,69.670,15.100,1508.000,280.400,69.070,15.360,296.800,71.070,18.580,6.110,384.000,95.620,22.840,7.460,hard
1161.000,268.200,70.050,15.260,1509.000,281.000,69.250,15.440,296.200,70.980,18.580,6.114,384.600,96.510,22.940,7.470,hard
1166.000,269.900,70.280,15.160,1512.000,281.800,69.060,15.410,298.100,71.400,18.620,6.156,384.200,95.830,22.910,7.489,hard
1160.000,271.000,69.950,15.170,1507.000,279.900,69.170,15.400,292.900,70.880,18.570,6.157,384.500,95.830,22.890,7.497,hard
1163.000,273.100,70.800,15.200,1514.000,281.600,69.390,15.480,297.300,71.130,18.590,6.191,384.400,96.060,23.110,7.610,hard
1175.000,271.300,71.350,15.420,1520.000,283.400,69.870,15.490,298.000,71.710,18.660,6.181,384.700,96.370,23.190,7.633,hard
1184.000,275.000,71.020,15.520,1526.000,283.600,70.040,15.670,300.700,72.030,18.730,6.230,388.400,97.210,23.380,7.689,hard
1193.000,278.400,72.090,15.660,1528.000,285.100,70.240,15.760,297.700,72.520,18.780,6.253,390.400,97.810,23.380,7.710,hard
1202.000,280.900,72.360,15.700,1524.000,282.200,69.110,15.380,300.700,72.360,18.910,6.234,389.700,96.380,23.140,7.520,hard
1157.000,267.000,69.190,14.820,1491.000,277.200,68.440,15.260,299.100,70.830,18.500,6.105,379.300,94.640,22.360,7.351,hard
1142.000,267.000,68.880,14.900,1488.000,276.700,68.150,15.280,291.300,70.530,18.280,6.099,376.400,94.020,22.450,7.381,hard
1140.000,266.800,68.860,14.860,1485.000,276.900,68.390,15.240,292.600,69.150,18.520,6.083,377.200,94.390,22.530,7.341,hard
1138.000,263.700,67.940,14.820,1484.000,276.400,68.420,15.210,294.900,70.150,18.390,6.045,374.700,93.770,22.470,7.354,hard
1137.000,264.400,68.640,14.880,1492.000,277.800,68.150,15.230,290.900,70.030,18.420,6.092,375.000,94.110,22.430,7.395,hard
1144.000,265.400,68.940,15.110,1497.000,277.600,68.690,15.340,292.200,70.740,18.490,6.091,377.200,94.870,22.530,7.435,hard
1150.000,267.200,69.450,15.100,1501.000,278.900,69.050,15.410,291.400,70.700,18.540,6.114,378.400,95.260,22.730,7.481,hard
1157.000,268.000,69.750,15.170,1507.000,280.300,69.110,15.480,291.500,71.440,18.520,6.161,381.600,95.230,22.910,7.522,hard
1165.000,270.600,70.470,15.330,1511.000,280.800,68.520,15.250,295.400,71.230,18.520,6.154,381.000,95.290,22.740,7.443,hard
1141.000,264.800,67.850,14.640,1473.000,274.700,67.530,15.020,291.100,69.650,18.270,6.044,371.200,92.720,22.210,7.220,hard
1116.000,259.700,66.560,14.650,1468.000,272.400,66.930,15.030,287.700,69.700,18.090,5.987,368.200,92.360,21.970,7.210,hard
1111.000,257.700,67.120,14.590,1471.000,272.600,67.250,15.050,286.600,69.390,18.230,6.007,369.600,92.190,21.940,7.223,hard
1112.000,256.300,66.830,14.490,1467.000,272.100,67.140,15.060,291.700,69.300,18.150,5.960,368.100,92.390,21.880,7.162,hard
1109.000,257.700,66.650,14.510,1469.000,272.500,67.220,15.120,288.800,68.700,18.140,5.989,368.000,92.670,22.040,7.217,hard
1115.000,259.800,67.390,14.690,1474.000,273.700,67.600,15.120,290.300,69.490,18.160,6.027,369.000,92.470,22.180,7.222,hard
1122.000,261.100,67.580,14.780,1476.000,275.400,67.890,15.230,288.700,69.640,18.330,6.062,370.900,93.210,22.210,7.323,hard
1130.000,263.000,68.360,14.930,1483.000,274.500,67.890,15.220,285.500,69.570,18.350,6.060,370.400,93.390,22.430,7.354,hard
1136.000,263.500,69.060,14.990,1490.000,275.700,68.380,15.210,290.700,70.100,18.390,6.088,375.500,94.450,22.510,7.400,hard
1140.000,264.200,68.140,14.790,1466.000,273.200,67.080,14.930,289.200,69.650,18.310,6.010,368.100,91.920,21.930,7.168,hard
1100.000,253.900,66.530,14.460,1454.000,270.400,67.210,14.940,283.000,68.920,18.090,5.941,365.000,91.160,21.720,7.120,hard
1098.000,253.900,66.740,14.420,1458.000,269.200,66.600,14.970,285.100,69.210,18.050,5.957,365.100,91.320,21.740,7.158,hard
1099.000,254.200,66.810,14.570,1466.000,270.500,66.870,14.860,287.100,69.000,18.060,5.922,365.200,91.670,21.800,7.108,hard
1096.000,253.700,66.840,14.490,1456.000,270.600,67.230,14.970,288.100,68.830,17.980,5.944,365.300,91.670,21.840,7.167,hard
1101.000,256.300,66.550,14.530,1453.000,271.600,67.320,15.090,282.400,69.010,18.130,5.955,367.300,92.110,21.970,7.177,hard
1109.000,259.800,66.890,14.660,1470.000,273.000,67.570,15.090,283.700,68.940,18.100,5.984,369.300,92.150,22.220,7.293,hard
1117.000,258.300,67.870,14.790,1473.000,273.100,67.440,15.160,289.100,69.930,18.150,6.009,368.000,93.220,22.110,7.281,hard
1123.000,260.800,68.280,14.920,1473.000,274.000,68.060,15.260,287.300,68.930,18.260,6.032,371.100,93.140,22.300,7.331,hard
1133.000,262.500,68.690,14.950,1472.000,274.000,67.720,15.040,289.000,69.960,18.230,6.056,370.500,92.700,22.220,7.276,hard
1107.000,254.800,67.040,14.520,1463.000,271.100,66.650,14.950,287.000,68.810,17.970,5.958,364.500,91.320,21.820,7.134,hard
1097.000,254.900,66.310,14.480,1458.000,271.000,67.170,15.020,286.700,68.930,18.070,5.922,365.100,91.430,21.840,7.161,hard
1099.000,255.200,66.720,14.540,1464.000,271.100,67.090,15.010,289.100,69.390,18.030,5.971,367.000,91.870,21.890,7.170,hard
1100.000,253.400,66.590,14.510,1458.000,270.500,67.050,15.040,286.900,69.750,18.070,5.933,365.600,91.890,21.840,7.206,hard
1103.000,257.900,66.380,14.510,1459.000,272.500,67.560,15.020,284.200,69.340,18.000,5.956,366.400,92.770,22.060,7.242,hard
1111.000,257.900,67.780,14.730,1469.000,274.400,67.620,15.140,288.500,69.020,18.170,6.003,368.800,92.890,22.160,7.288,hard
1119.000,260.400,68.000,14.880,1479.000,273.500,68.360,15.200,288.300,69.840,18.250,6.000,372.800,93.690,22.390,7.327,hard
1128.000,262.800,68.410,15.010,1484.000,275.000,68.190,15.290,293.300,70.200,18.210,6.047,373.800,93.910,22.520,7.405,hard
1137.000,264.100,69.190,15.110,1491.000,276.200,68.650,15.330,286.300,69.550,18.430,6.067,377.500,94.520,22.630,7.439,hard
1133.000,263.200,67.810,14.750,1474.000,273.000,67.010,15.060,289.900,69.820,18.100,5.988,369.600,92.850,22.050,7.206,hard
1105.000,258.800,66.910,14.520,1458.000,271.600,67.360,15.050,290.700,68.910,18.190,5.958,369.300,92.510,22.050,7.189,hard
1104.000,257.000,66.740,14.540,1463.000,272.000,67.190,15.110,289.700,69.650,18.120,5.974,369.800,92.390,22.260,7.245,hard
1107.000,257.500,66.670,14.600,1468.000,272.300,67.000,15.030,293.900,69.450,18.090,5.934,370.400,92.560,22.000,7.210,hard
1107.000,258.000,67.010,14.610,1469.000,273.300,67.420,15.140,287.400,69.620,18.040,5.981,371.600,93.140,22.090,7.269,hard
1114.000,258.800,67.710,14.710,1476.000,273.400,67.700,15.180,289.100,69.240,18.070,5.995,372.900,93.920,22.360,7.364,hard
1124.000,260.600,67.560,14.920,1485.000,274.900,67.930,15.350,287.800,69.610,18.300,6.047,375.700,94.200,22.450,7.425,hard
1133.000,263.600,68.600,14.940,1493.000,277.200,68.520,15.310,288.200,70.470,18.450,6.060,377.400,94.980,22.750,7.427,hard
1144.000,268.500,69.140,15.120,1496.000,278.000,68.640,15.390,295.400,69.890,18.480,6.108,379.900,95.340,22.910,7.542,hard
1153.000,269.600,69.500,15.350,1501.000,281.100,69.330,15.540,292.500,70.570,18.500,6.113,381.800,96.130,23.040,7.629,hard
1163.000,271.500,69.540,15.150,1494.000,276.700,68.200,15.220,294.800,71.500,18.500,6.083,379.100,94.930,22.500,7.388,hard
1124.000,263.300,67.810,14.660,1480.000,275.000,67.940,15.230,292.700,69.930,18.290,6.036,376.600,93.810,22.570,7.366,hard
1122.000,261.900,67.420,14.710,1486.000,274.400,68.020,15.250,294.300,69.380,18.280,6.039,376.800,93.900,22.390,7.355,hard
1123.000,264.000,67.960,14.690,1483.000,276.300,68.060,15.230,292.600,70.360,18.390,6.021,377.100,94.320,22.520,7.343,hard
1125.000,261.200,67.750,14.670,1490.000,275.700,68.240,15.350,293.500,70.050,18.260,6.055,376.700,94.460,22.490,7.395,hard
1130.000,263.600,68.190,14.790,1492.000,277.500,68.340,15.330,291.300,70.080,18.360,6.076,378.100,95.030,22.620,7.438,hard
1140.000,267.700,69.000,14.960,1487.000,278.900,68.790,15.470,296.300,71.060,18.530,6.077,382.800,95.740,22.920,7.520,hard
1151.000,267.000,69.330,15.190,1501.000,281.100,69.690,15.550,293.000,71.710,18.590,6.147,382.600,96.540,23.040,7.603,hard
1162.000,270.300,70.050,15.310,1514.000,282.000,69.880,15.580,299.900,71.550,18.680,6.144,386.600,97.070,23.280,7.624,hard
1173.000,272.900,70.790,15.530,1521.000,284.100,70.230,15.690,297.600,71.480,18.810,6.200,390.500,98.260,23.390,7.698,hard
1185.000,276.700,71.410,15.540,1532.000,284.000,69.980,15.650,299.000,72.020,18.880,6.214,392.400,97.920,23.320,7.657,hard
1162.000,268.700,69.170,14.960,1504.000,279.100,69.050,15.390,294.900,71.540,18.610,6.100,383.900,95.860,22.860,7.499,hard
1146.000,266.200,68.740,14.980,1495.000,278.900,68.920,15.500,296.200,71.390,18.500,6.109,384.800,96.020,22.950,7.546,hard
1146.000,268.900,69.440,15.080,1499.000,279.100,69.280,15.470,297.100,71.210,18.680,6.069,383.800,96.830,22.950,7.571,hard
1149.000,269.000,69.110,15.040,1502.000,279.200,69.070,15.510,300.000,71.050,18.570,6.131,384.700,95.870,23.030,7.597,hard
1150.000,269.200,69.010,14.970,1504.000,280.300,69.400,15.670,297.600,71.190,18.660,6.142,385.900,96.580,23.140,7.620,hard
1159.000,269.300,70.590,15.230,1514.000,282.200,69.720,15.770,297.600,72.620,18.730,6.195,387.100,96.820,23.220,7.634,hard
1171.000,274.100,70.930,15.340,1525.000,284.000,70.100,15.830,299.000,71.560,18.890,6.195,389.700,97.780,23.560,7.718,hard
1181.000,275.100,71.790,15.430,1533.000,283.800,70.650,15.870,303.000,72.450,18.870,6.201,392.300,98.040,23.640,7.780,hard
1192.000,277.900,72.300,15.620,1539.000,286.900,70.990,15.960,304.100,72.850,18.830,6.266,395.700,99.170,23.800,7.814,hard
1197.000,277.800,71.450,15.340,1519.000,282.100,69.870,15.620,304.500,72.230,18.790,6.182,388.200,97.050,23.190,7.613,hard
1159.000,270.500,69.650,15.120,1507.000,281.600,69.640,15.590,297.800,70.880,18.570,6.113,386.400,96.500,23.150,7.627,hard
1161.000,273.000,70.140,15.140,1517.000,281.700,69.720,15.650,300.200,71.850,18.670,6.152,388.600,97.050,23.300,7.684,hard
1166.000,271.100,69.840,15.070,1522.000,282.400,69.860,15.600,297.700,71.920,18.690,6.152,388.200,97.160,23.290,7.661,hard
1165.000,269.200,69.290,15.170,1516.000,282.700,70.040,15.670,299.200,71.650,18.720,6.154,387.700,96.840,23.160,7.692,hard
1173.000,275.200,70.760,15.250,1526.000,283.300,70.100,15.780,301.000,71.560,18.720,6.204,390.900,97.750,23.510,7.742,hard
1186.000,275.100,71.720,15.420,1531.000,286.000,70.730,15.900,299.000,72.270,18.820,6.194,393.900,98.690,23.490,7.788,hard
1198.000,279.700,72.060,15.600,1534.000,287.500,70.840,16.030,302.900,72.320,18.930,6.224,396.600,99.180,23.760,7.898,hard
1209.000,282.600,73.240,15.830,1548.000,288.000,71.930,16.060,309.900,72.580,19.060,6.261,398.400,99.610,24.130,7.961,hard
1222.000,285.200,73.540,15.990,1556.000,291.500,71.720,16.080,307.000,72.660,18.970,6.283,403.000,100.500,24.090,7.960,hard
1212.000,279.900,72.160,15.470,1533.000,283.200,70.320,15.710,306.200,72.050,18.950,6.185,392.300,97.270,23.260,7.730,hard
1177.000,273.700,70.300,15.270,1522.000,284.000,70.320,15.710,301.600,71.810,18.700,6.127,389.700,97.390,23.300,7.684,hard
1177.000,274.200,70.500,15.320,1529.000,285.200,70.680,15.720,304.300,72.100,18.800,6.184,391.000,97.650,23.660,7.747,hard
1182.000,275.600,71.230,15.310,1528.000,283.800,70.220,15.750,302.100,71.890,18.710,6.144,393.300,97.400,23.430,7.738,hard
1179.000,273.700,70.610,15.300,1532.000,285.200,70.890,15.790,300.800,72.110,18.720,6.177,393.100,97.800,23.470,7.779,hard
1187.000,277.500,71.340,15.490,1539.000,285.800,71.020,15.960,303.300,72.300,18.860,6.179,394.000,98.360,23.610,7.790,hard
1198.000,280.900,72.070,15.670,1540.000,288.000,71.410,15.970,308.300,72.740,18.840,6.183,396.300,99.220,23.730,7.907,hard
1211.000,284.000,73.120,15.850,1555.000,289.200,71.720,16.150,306.400,73.130,18.910,6.228,397.900,99.920,24.030,8.001,hard
1222.000,288.100,73.570,15.950,1561.000,292.200,72.100,16.180,310.000,72.910,19.070,6.259,401.500,100.100,24.130,8.021,hard
1233.000,291.000,75.030,16.160,1563.000,291.800,72.610,16.250,308.600,73.740,19.170,6.300,404.200,100.800,24.440,8.070,hard
1246.000,291.800,75.980,16.320,1563.000,291.100,71.710,16.060,311.700,73.390,19.160,6.297,404.300,100.300,24.010,7.936,hard
1207.000,280.400,72.280,15.560,1531.000,286.800,70.920,15.920,306.500,72.630,18.790,6.157,394.700,98.470,23.630,7.783,hard
1190.000,277.400,71.750,15.620,1534.000,286.400,70.760,15.920,305.400,71.240,18.740,6.169,395.100,98.440,23.460,7.775,hard
1192.000,277.000,71.710,15.630,1541.000,287.200,70.930,15.980,305.100,72.690,18.810,6.138,396.800,98.740,23.780,7.779,hard
1194.000,279.200,72.770,15.660,1533.000,286.700,71.100,15.940,301.200,72.130,18.770,6.190,395.400,98.190,23.600,7.795,hard
1195.000,280.900,72.240,15.590,1536.000,287.700,71.120,16.030,304.800,72.580,18.880,6.194,397.200,98.850,23.880,7.824,hard
1206.000,283.700,72.660,15.830,1542.000,288.400,71.730,16.050,304.400,72.650,18.980,6.198,400.200,99.680,23.870,7.877,hard
1216.000,286.500,73.520,15.940,1553.000,291.500,72.160,16.220,309.500,73.690,19.000,6.225,403.000,99.990,24.080,7.966,hard
1228.000,288.600,74.440,16.210,1560.000,292.700,72.230,16.310,308.400,73.420,19.010,6.241,404.300,100.600,24.200,8.017,hard
1239.000,290.000,75.440,16.270,1567.000,295.400,72.870,16.520,313.400,73.200,19.140,6.252,407.100,101.500,24.390,8.081,hard
1251.000,293.900,75.590,16.240,1561.000,290.400,71.570,16.050,311.200,74.180,19.060,6.250,403.100,99.910,23.750,7.817,hard
1202.000,281.100,72.350,15.730,1539.000,287.700,71.040,16.050,301.600,72.220,18.860,6.131,397.200,99.020,23.710,7.820,hard
1198.000,281.500,72.550,15.730,1543.000,287.800,71.440,16.020,301.700,73.160,18.860,6.152,398.100,99.380,23.580,7.823,hard
1205.000,284.000,73.290,15.860,1540.000,289.100,71.380,16.070,307.100,72.570,18.900,6.200,398.600,99.590,23.640,7.832,hard
1202.000,281.600,72.790,15.790,1545.000,287.200,71.410,16.030,304.200,73.040,18.830,6.167,397.300,98.950,23.810,7.857,hard
1204.000,280.200,73.260,15.930,1546.000,290.100,71.870,16.060,307.100,72.920,18.900,6.227,398.900,99.480,23.950,7.898,hard
1217.000,286.100,74.250,16.140,1558.000,291.500,72.220,16.170,307.800,72.820,18.990,6.250,403.600,100.500,24.070,7.948,hard
1228.000,288.400,74.180,16.340,1559.000,292.500,72.560,16.320,311.500,73.610,19.010,6.276,404.500,100.700,24.410,8.048,hard
1239.000,293.000,75.850,16.350,1567.000,295.000,73.060,16.350,308.300,73.870,19.200,6.272,405.800,101.300,24.420,8.071,hard
1247.000,293.800,74.840,16.170,1551.000,289.700,71.540,16.090,309.700,73.740,19.050,6.233,401.300,99.220,23.720,7.844,hard
1199.000,282.000,72.360,15.780,1539.000,287.300,71.240,16.020,306.400,72.450,18.860,6.175,396.900,98.730,23.680,7.777,hard
1196.000,282.400,72.920,15.740,1542.000,289.600,71.180,16.070,304.300,72.680,18.770,6.145,397.900,98.920,23.680,7.801,hard
1202.000,281.500,72.910,15.870,1540.000,288.300,71.040,16.070,307.100,73.260,18.980,6.193,398.900,98.660,23.630,7.818,hard
1199.000,283.100,72.730,15.850,1533.000,289.200,71.410,16.130,304.600,72.640,18.770,6.184,397.800,99.060,23.510,7.799,hard
1203.000,280.900,72.960,16.020,1546.000,288.900,71.800,16.110,305.700,72.960,18.870,6.192,399.400,99.340,23.740,7.862,hard
1212.000,286.200,73.330,16.160,1546.000,291.000,72.340,16.240,309.600,72.990,19.100,6.250,401.300,99.800,23.820,7.911,hard
1223.000,286.600,74.160,16.300,1554.000,291.100,72.360,16.350,311.000,73.560,19.110,6.269,404.600,100.400,24.230,7.981,hard
1232.000,290.300,74.910,16.370,1565.000,294.000,72.710,16.320,307.700,73.610,19.120,6.304,407.000,101.500,24.290,8.038,hard
1239.000,291.100,74.430,16.170,1554.000,289.500,71.420,15.990,309.900,73.720,19.110,6.244,400.800,98.470,23.590,7.723,hard
1190.000,276.600,72.330,15.640,1538.000,286.300,71.140,15.980,309.900,72.060,18.710,6.136,394.700,98.120,23.500,7.665,hard
1187.000,276.900,71.710,15.620,1528.000,286.300,70.610,16.020,307.000,72.310,18.800,6.167,394.900,98.160,23.370,7.637,hard
1188.000,277.600,71.890,15.730,1527.000,285.900,71.090,15.990,305.900,72.480,18.860,6.158,395.700,97.710,23.320,7.740,hard
1185.000,277.300,72.360,15.720,1527.000,286.000,70.980,16.030,304.400,72.060,18.770,6.135,395.600,97.900,23.490,7.686,hard
1188.000,279.100,72.170,15.690,1538.000,288.500,71.050,16.080,302.800,72.930,18.840,6.179,397.200,98.390,23.550,7.716,hard
1197.000,281.900,72.620,15.890,1540.000,289.600,71.370,16.110,301.100,72.900,18.820,6.234,399.700,98.330,23.810,7.798,hard
1208.000,281.700,73.670,16.110,1548.000,291.500,72.030,16.280,308.000,72.880,18.990,6.260,398.900,99.610,23.850,7.836,hard
1217.000,285.500,74.150,16.100,1561.000,290.800,72.500,16.250,303.700,73.300,19.160,6.268,402.000,100.100,24.020,7.913,hard
1224.000,284.100,72.980,15.910,1536.000,285.600,71.090,15.930,313.200,73.620,19.070,6.224,396.400,97.580,23.150,7.603,hard
1177.000,273.500,70.890,15.430,1526.000,283.800,70.530,15.820,302.100,72.650,18.870,6.149,390.700,97.070,22.920,7.617,hard
1175.000,274.000,71.340,15.510,1526.000,284.900,70.470,15.890,304.100,72.240,18.780,6.168,390.900,96.910,23.030,7.617,hard
1178.000,274.600,71.120,15.510,1526.000,285.400,70.690,15.840,306.300,72.600,18.830,6.189,392.200,96.840,22.960,7.576,hard
1174.000,272.400,70.280,15.420,1525.000,285.000,70.950,15.870,304.600,72.110,18.650,6.171,391.100,96.960,23.080,7.600,hard
1178.000,274.900,71.410,15.510,1533.000,285.700,70.740,15.980,300.400,73.210,18.970,6.201,392.600,97.450,23.240,7.625,hard
1188.000,277.600,72.320,15.790,1544.000,286.700,71.340,16.040,303.500,72.980,18.780,6.202,394.500,98.250,23.380,7.727,hard
1198.000,279.900,72.900,15.880,1543.000,289.300,71.560,16.110,304.100,72.890,18.970,6.295,397.100,98.500,23.500,7.791,hard
1206.000,281.800,73.350,15.910,1550.000,289.500,71.690,16.140,306.000,73.050,19.040,6.266,398.400,99.070,23.690,7.833,hard
1215.000,285.000,73.880,16.010,1551.000,289.400,71.330,15.930,306.900,73.790,19.080,6.317,396.200,97.880,23.340,7.641,hard
1180.000,274.000,70.170,15.320,1523.000,285.000,70.380,15.820,305.600,72.530,18.800,6.166,389.000,96.040,22.950,7.499,hard
1169.000,273.200,70.510,15.370,1522.000,284.800,70.580,15.860,302.500,71.840,18.760,6.177,386.600,96.060,22.890,7.533,hard
1172.000,273.500,70.590,15.430,1524.000,284.000,70.240,15.820,301.300,72.320,18.770,6.199,388.400,96.700,22.960,7.518,hard
1172.000,271.300,70.370,15.400,1521.000,284.600,70.260,15.820,302.100,72.190,18.810,6.187,388.900,96.470,22.880,7.534,hard
1172.000,272.800,70.700,15.430,1532.000,284.400,70.720,15.950,299.200,72.350,18.830,6.213,389.400,96.690,23.150,7.578,hard
1181.000,277.500,70.980,15.580,1536.000,286.100,71.070,15.940,301.500,72.410,18.980,6.226,391.400,97.420,23.220,7.662,hard
1191.000,277.100,72.010,15.730,1540.000,286.900,71.560,16.130,307.800,72.410,18.940,6.297,392.500,97.820,23.320,7.738,hard
1201.000,281.400,72.880,15.790,1543.000,289.200,71.610,16.210,299.600,72.950,19.130,6.272,395.300,98.390,23.420,7.737,hard
1211.000,283.800,73.500,15.850,1544.000,287.500,71.290,16.010,300.900,72.670,19.150,6.308,396.800,97.610,23.270,7.594,hard
1178.000,272.900,70.710,15.180,1519.000,284.300,70.350,15.800,301.600,71.760,18.830,6.162,386.100,95.700,22.630,7.447,hard
1163.000,269.400,69.520,15.160,1516.000,283.200,70.440,15.740,301.300,71.790,18.780,6.177,384.300,95.390,22.730,7.463,hard
1163.000,270.700,70.170,15.260,1519.000,283.200,70.430,15.730,302.000,72.130,18.770,6.151,385.800,95.330,22.670,7.467,hard
1164.000,270.100,70.020,15.090,1521.000,283.500,70.590,15.850,303.500,72.320,18.780,6.209,385.700,95.880,22.750,7.446,hard
1165.000,270.000,69.910,15.320,1520.000,283.400,70.660,15.940,300.900,71.150,18.780,6.219,386.100,96.100,22.850,7.475,hard
1173.000,272.700,70.410,15.390,1524.000,285.400,70.860,15.940,300.400,71.950,18.850,6.217,388.700,96.240,23.040,7.551,hard
1183.000,276.000,71.500,15.580,1537.000,286.900,71.580,16.090,301.700,72.460,18.900,6.254,390.100,97.030,23.120,7.629,hard
1193.000,279.500,72.770,15.690,1541.000,287.700,71.690,16.160,302.800,73.420,19.070,6.289,391.800,97.330,23.290,7.718,hard
1201.000,282.500,73.140,15.750,1544.000,290.900,72.090,16.170,300.600,73.690,19.090,6.304,394.800,98.210,23.450,7.726,hard
1213.000,282.700,73.220,15.720,1541.000,286.600,70.950,15.920,303.300,73.100,19.050,6.288,390.700,96.280,22.860,7.429,hard
1166.000,270.600,69.910,15.070,1523.000,283.500,70.510,15.810,297.000,72.030,18.710,6.146,384.900,94.870,22.600,7.399,hard
1158.000,269.800,69.860,15.100,1526.000,283.500,70.430,15.840,301.700,71.730,18.630,6.145,383.700,94.960,22.460,7.464,hard
1159.000,268.400,69.850,15.160,1511.000,282.800,69.880,15.820,302.700,72.480,18.750,6.168,383.600,95.110,22.730,7.417,hard
1158.000,271.800,69.560,15.120,1516.000,283.500,70.470,15.870,302.700,72.310,18.710,6.202,383.300,95.080,22.630,7.422,hard
1162.000,269.600,70.420,15.300,1515.000,284.100,70.510,15.910,302.100,72.130,18.850,6.212,385.800,95.730,22.900,7.502,hard
1171.000,273.700,70.530,15.350,1534.000,285.900,71.180,15.970,300.200,72.340,18.870,6.229,387.400,95.570,22.910,7.555,hard
1182.000,275.200,71.370,15.480,1532.000,287.200,71.280,16.140,301.500,72.650,18.920,6.273,388.900,96.840,22.980,7.584,hard
1193.000,279.100,72.670,15.630,1541.000,288.300,71.820,16.170,303.300,73.390,19.040,6.282,391.800,97.130,23.220,7.653,hard
1203.000,282.700,73.500,15.830,1546.000,290.800,72.570,16.220,300.300,73.150,19.060,6.310,394.000,97.830,23.340,7.746,hard
1213.000,284.900,72.670,15.740,1541.000,286.500,70.930,15.920,303.300,73.470,19.000,6.274,389.300,96.170,22.790,7.477,hard
1163.000,271.300,69.790,15.020,1514.000,284.100,70.510,15.810,299.700,72.060,18.760,6.183,384.000,94.970,22.530,7.383,hard
1159.000,270.100,70.390,15.080,1519.000,282.000,70.580,15.880,303.900,71.910,18.630,6.187,382.700,95.200,22.590,7.426,hard
1161.000,271.600,69.790,15.200,1529.000,284.600,70.510,15.910,299.600,72.110,18.740,6.209,384.600,94.880,22.580,7.415,hard
1158.000,268.900,70.120,15.190,1525.000,284.600,70.440,15.900,304.400,72.190,18.650,6.176,382.700,94.800,22.490,7.416,hard
1162.000,271.800,70.560,15.390,1524.000,284.400,71.190,15.970,299.600,72.320,18.740,6.191,384.400,95.600,22.820,7.472,hard
1173.000,273.200,71.910,15.330,1523.000,287.600,70.750,16.010,302.600,72.420,18.860,6.238,386.500,96.240,22.960,7.531,hard
1186.000,275.900,71.630,15.670,1537.000,288.300,71.550,16.090,302.100,72.740,19.010,6.296,388.100,96.440,23.040,7.605,hard
1194.000,278.300,72.340,15.810,1547.000,290.000,72.010,16.180,302.500,73.090,19.070,6.292,390.400,97.400,23.220,7.672,hard
1205.000,280.900,73.110,15.870,1535.000,286.800,71.640,15.980,304.800,72.710,19.040,6.290,388.900,96.300,22.880,7.469,hard
1163.000,272.100,69.590,15.080,1514.000,283.600,70.470,15.810,300.500,71.940,18.640,6.126,381.500,94.350,22.400,7.373,hard
1149.000,269.000,69.650,15.170,1514.000,283.400,70.430,15.800,297.700,71.230,18.580,6.147,380.900,94.680,22.410,7.379,hard
1152.000,267.300,69.460,15.140,1514.000,283.400,70.470,15.860,303.600,71.950,18.630,6.164,382.500,94.480,22.510,7.397,hard
1153.000,268.300,69.410,15.120,1514.000,281.800,70.320,15.830,300.200,71.780,18.780,6.141,379.700,94.180,22.580,7.325,hard
1154.000,272.300,69.820,15.240,1525.000,284.800,70.690,15.990,299.500,72.280,18.710,6.188,382.100,94.940,22.520,7.389,hard
1166.000,272.000,70.850,15.330,1530.000,285.400,71.350,16.030,297.400,72.260,18.810,6.186,384.000,95.470,22.750,7.518,hard
1177.000,274.200,71.550,15.600,1537.000,288.800,71.570,16.100,305.900,71.600,18.860,6.235,387.400,96.520,22.780,7.568,hard
1188.000,278.900,72.560,15.710,1539.000,289.600,72.080,16.150,302.800,72.410,19.010,6.256,388.500,96.900,23.050,7.582,hard
1200.000,280.600,73.320,15.950,1552.000,291.300,72.120,16.270,304.400,72.990,18.980,6.285,391.300,97.240,23.250,7.655,hard
1187.000,274.800,70.330,15.270,1510.000,282.400,69.960,15.760,305.800,72.010,18.720,6.162,381.500,94.000,22.260,7.331,hard
1143.000,266.100,68.920,15.020,1510.000,283.000,70.000,15.870,299.200,71.490,18.620,6.142,378.300,93.000,22.300,7.259,hard
1144.000,266.600,69.500,14.990,1512.000,282.900,70.080,15.780,299.800,71.430,18.610,6.152,378.500,94.010,22.350,7.312,hard
1149.000,266.700,69.360,15.080,1509.000,283.500,70.170,15.830,299.900,71.220,18.650,6.146,378.900,93.760,22.350,7.316,hard
1146.000,267.800,69.740,15.140,1508.000,283.700,70.240,15.870,299.200,70.920,18.740,6.177,381.100,93.770,22.470,7.349,hard
1154.000,268.900,69.930,15.300,1522.000,284.200,70.740,16.010,300.200,72.120,18.730,6.196,381.800,94.340,22.750,7.445,hard
1168.000,274.100,71.150,15.460,1528.000,287.200,71.680,16.110,301.200,72.170,18.820,6.187,385.500,95.720,22.840,7.532,hard
1181.000,274.700,71.950,15.640,1538.000,288.900,71.640,16.140,301.400,72.380,18.990,6.283,388.400,96.200,23.000,7.566,hard
1194.000,277.600,72.540,15.710,1550.000,291.300,72.330,16.260,308.200,72.570,19.080,6.290,390.000,96.800,23.180,7.669,hard
1205.000,285.100,72.770,15.720,1541.000,288.300,70.850,15.920,308.100,72.170,18.990,6.287,388.000,95.480,22.500,7.371,hard
1152.000,265.800,68.980,14.950,1510.000,282.900,69.780,15.840,298.100,71.770,18.690,6.154,379.000,94.170,22.250,7.347,hard
1144.000,265.700,68.890,15.080,1510.000,282.500,70.220,15.820,299.300,70.710,18.680,6.158,379.600,93.570,22.530,7.328,hard
1150.000,267.500,69.420,15.250,1520.000,282.900,70.540,15.910,297.600,72.000,18.770,6.182,380.700,94.660,22.440,7.372,hard
1147.000,268.200,69.340,15.010,1516.000,283.900,70.210,15.890,299.800,71.620,18.740,6.139,378.700,93.950,22.360,7.364,hard
1151.000,268.700,69.780,15.180,1515.000,284.100,70.850,15.930,296.700,71.780,18.880,6.203,380.400,94.370,22.440,7.404,hard
1162.000,271.100,70.250,15.320,1523.000,286.300,71.270,16.000,302.800,72.160,18.770,6.240,383.800,95.330,22.500,7.536,hard
1174.000,272.900,70.320,15.560,1536.000,288.300,71.690,16.150,303.100,72.100,18.900,6.265,385.800,96.040,22.980,7.551,hard
1188.000,277.900,72.100,15.640,1541.000,289.900,72.110,16.190,305.900,72.170,19.070,6.315,388.900,96.500,23.280,7.610,hard
1200.000,280.500,72.010,15.760,1527.000,286.200,70.660,15.910,304.500,73.470,19.040,6.267,384.500,95.090,22.560,7.393,hard
1144.000,267.200,68.340,14.910,1506.000,282.500,70.030,15.800,296.400,71.030,18.710,6.190,377.700,93.590,22.210,7.299,hard
1137.000,265.900,68.960,15.000,1509.000,282.000,69.930,15.810,294.100,71.410,18.720,6.165,378.300,93.390,22.360,7.385,hard
1144.000,267.600,69.310,15.090,1509.000,281.300,70.040,15.850,299.900,71.310,18.810,6.200,378.600,94.480,22.400,7.353,hard
1141.000,264.700,68.830,15.100,1511.000,281.300,70.140,15.870,297.400,71.570,18.770,6.173,378.100,93.580,22.210,7.328,hard
1146.000,266.600,69.280,15.230,1512.000,283.500,70.360,15.900,299.100,71.520,18.800,6.222,379.800,94.660,22.550,7.386,hard
1159.000,271.100,70.070,15.420,1526.000,285.900,71.040,15.960,300.000,72.280,18.870,6.235,383.400,94.320,22.650,7.498,hard
1170.000,274.700,71.040,15.500,1534.000,287.800,71.460,16.070,305.600,71.890,18.910,6.251,385.400,95.700,22.940,7.578,hard
1184.000,277.200,71.300,15.640,1542.000,288.500,72.120,16.160,303.300,72.410,19.060,6.287,388.600,96.430,22.970,7.666,hard
1192.000,279.100,71.530,15.410,1521.000,283.200,69.990,15.810,307.400,72.740,18.960,6.212,381.500,94.030,22.280,7.347,hard
1134.000,261.400,67.980,14.790,1496.000,279.600,69.400,15.630,302.000,72.200,18.550,6.110,375.300,92.640,22.220,7.256,hard
1128.000,261.300,67.890,14.790,1500.000,280.500,69.710,15.730,296.900,71.630,18.740,6.128,376.700,93.440,22.170,7.283,hard
1133.000,263.500,67.870,14.880,1502.000,280.400,69.580,15.760,293.800,71.700,18.640,6.150,377.500,93.270,22.010,7.271,hard
1129.000,262.400,68.140,14.770,1499.000,281.000,70.000,15.670,300.700,71.520,18.610,6.160,375.900,92.720,22.110,7.318,hard
1133.000,265.500,68.160,14.930,1506.000,282.200,70.040,15.740,305.300,71.670,18.640,6.178,376.900,93.390,22.300,7.365,hard
1144.000,267.600,69.010,15.100,1520.000,283.400,70.580,15.860,298.900,71.760,18.780,6.194,378.800,94.450,22.510,7.415,hard
1156.000,269.400,69.650,15.210,1524.000,285.400,70.660,15.960,301.000,72.220,18.890,6.264,382.800,95.120,22.600,7.470,hard
1168.000,272.300,70.910,15.410,1532.000,287.300,71.690,16.080,300.300,72.610,19.010,6.253,385.000,95.380,23.000,7.527,hard
1171.000,270.600,69.540,15.040,1504.000,282.200,69.610,15.590,303.800,71.780,18.850,6.189,375.800,92.610,22.180,7.192,hard
1119.000,258.300,66.970,14.680,1496.000,279.200,69.160,15.650,298.500,70.960,18.510,6.117,372.800,92.020,21.870,7.182,hard
1118.000,259.700,67.100,14.480,1493.000,279.400,69.740,15.620,297.800,70.660,18.470,6.114,373.400,91.920,21.930,7.194,hard
1123.000,260.200,67.150,14.700,1501.000,279.500,69.660,15.550,296.800,71.280,18.720,6.152,373.000,91.880,22.010,7.219,hard
1119.000,261.600,67.260,14.670,1495.000,280.100,69.600,15.630,295.700,71.310,18.540,6.128,372.800,92.700,21.990,7.202,hard
1126.000,261.000,68.080,14.800,1503.000,280.600,69.910,15.710,296.900,70.980,18.730,6.167,373.100,92.870,21.940,7.280,hard
1137.000,262.900,68.650,15.020,1514.000,283.300,70.580,15.800,295.400,71.520,18.770,6.174,375.900,93.190,22.290,7.348,hard
1148.000,269.100,69.400,15.080,1524.000,285.000,70.730,15.950,298.600,72.210,18.790,6.238,378.300,94.150,22.320,7.423,hard
1162.000,271.200,70.300,15.170,1523.000,286.000,70.520,15.840,298.500,72.270,18.880,6.246,380.000,94.320,22.510,7.315,hard
1142.000,263.400,67.610,14.580,1489.000,279.300,68.890,15.530,297.100,71.280,18.560,6.137,369.700,91.720,21.700,7.152,hard
1111.000,258.100,66.910,14.410,1496.000,279.700,69.170,15.540,293.200,70.750,18.450,6.111,369.400,91.200,21.700,7.130,hard
1116.000,257.900,66.850,14.620,1497.000,279.700,69.410,15.620,296.600,70.680,18.570,6.148,371.700,91.850,21.830,7.178,hard
1120.000,257.400,67.210,14.630,1489.000,279.400,69.370,15.610,299.800,71.050,18.600,6.124,368.000,91.680,21.770,7.104,hard
1117.000,259.800,67.120,14.610,1496.000,279.700,69.370,15.730,296.400,70.950,18.670,6.144,370.200,92.260,21.920,7.192,hard
1127.000,262.600,67.510,14.890,1503.000,281.300,70.040,15.750,295.100,71.170,18.660,6.197,371.400,92.210,21.970,7.280,hard
1138.000,266.100,68.600,14.970,1516.000,282.600,70.350,15.840,292.900,71.380,18.780,6.217,372.600,93.190,22.130,7.301,hard
1149.000,266.500,69.330,15.130,1515.000,284.500,70.780,15.930,297.900,72.060,18.890,6.250,376.300,93.790,22.480,7.355,hard
1160.000,270.300,69.940,14.930,1506.000,280.400,69.800,15.640,301.600,72.370,18.770,6.203,371.400,91.580,21.750,7.127,hard
