A-DC1,A-DC2,A-DC3,A-DC4,A-DC5,A-DC6,A-DC7,A-DC8,B-DC1,B-DC2,B-DC3,B-DC4,B-DC5,B-DC6,B-DC7,B-DC8,condition
1449.000,379.400,113.900,31.640,1629.000,372.200,104.200,27.620,277.500,123.800,26.300,8.662,406.100,136.400,41.230,13.980,baseline
1453.000,379.800,114.200,31.650,1631.000,372.400,104.200,27.720,278.100,124.000,26.360,8.642,407.500,136.700,41.340,14.000,baseline
1458.000,382.500,115.200,31.870,1634.000,373.800,104.400,27.720,278.100,124.000,26.320,8.665,408.600,136.700,41.340,14.010,baseline
1450.000,379.200,113.900,31.290,1625.000,371.900,103.900,27.490,277.900,123.800,26.250,8.642,405.300,135.700,40.880,13.850,baseline
1436.000,375.500,113.100,31.200,1621.000,370.500,104.200,27.520,276.800,123.500,26.280,8.634,404.200,135.400,40.920,13.850,baseline
1436.000,375.300,113.100,31.230,1621.000,371.300,103.900,27.500,276.500,123.400,26.230,8.627,404.400,135.300,40.870,13.860,baseline
1437.000,375.900,112.900,31.260,1623.000,371.800,103.900,27.530,277.000,123.700,26.270,8.629,404.200,135.400,40.820,13.810,baseline
1435.000,374.900,112.900,31.250,1626.000,371.200,104.200,27.490,278.100,123.600,26.210,8.625,404.600,135.600,40.860,13.830,baseline
1436.000,375.300,113.100,31.260,1623.000,370.800,104.100,27.540,277.000,123.600,26.220,8.623,405.200,135.500,40.940,13.870,baseline
1438.000,375.300,113.000,31.280,1623.000,371.400,103.900,27.580,278.200,123.500,26.270,8.641,405.100,135.800,41.000,13.900,baseline
1442.000,376.800,113.300,31.420,1624.000,371.800,104.100,27.600,278.400,123.500,26.250,8.648,406.000,136.100,41.130,13.920,baseline
1443.000,377.100,113.900,31.510,1626.000,371.500,104.000,27.600,278.500,123.700,26.290,8.649,406.700,136.300,41.190,13.980,baseline
1446.000,380.200,114.200,31.560,1623.000,371.300,104.400,27.720,277.400,123.700,26.310,8.667,407.700,136.500,41.230,13.980,baseline
1449.000,378.900,114.400,31.730,1629.000,371.700,104.200,27.730,278.500,124.100,26.320,8.659,407.700,136.700,41.360,14.040,baseline
1452.000,379.500,114.800,31.680,1629.000,372.100,104.200,27.630,278.100,123.900,26.380,8.656,405.800,136.100,41.130,13.920,baseline
1436.000,375.800,113.700,31.270,1623.000,370.500,103.800,27.550,276.900,123.800,26.200,8.628,404.100,135.600,40.870,13.840,baseline
1436.000,376.500,113.000,31.400,1623.000,370.300,103.700,27.550,275.500,123.500,26.180,8.614,403.900,135.500,40.880,13.860,baseline
1439.000,376.700,113.600,31.390,1623.000,371.400,103.600,27.600,277.800,123.300,26.150,8.610,403.800,135.400,40.890,13.850,baseline
1438.000,375.200,113.800,31.370,1622.000,370.300,103.800,27.540,277.400,123.300,26.150,8.608,402.800,135.400,40.870,13.830,baseline
1437.000,375.700,112.900,31.360,1624.000,371.400,103.700,27.520,275.400,123.000,26.100,8.612,402.900,135.400,40.830,13.840,baseline
1439.000,376.100,113.200,31.470,1621.000,371.000,103.800,27.530,276.200,122.900,26.150,8.602,404.600,135.700,40.940,13.870,baseline
1443.000,378.100,113.900,31.540,1623.000,371.300,104.200,27.630,277.000,123.300,26.130,8.615,405.100,135.900,41.030,13.910,baseline
1446.000,378.900,113.800,31.660,1626.000,371.600,104.000,27.610,275.900,123.400,26.160,8.615,405.400,136.100,41.150,13.970,baseline
1447.000,378.900,114.400,31.780,1629.000,371.000,104.400,27.720,275.800,123.400,26.210,8.640,405.900,136.300,41.190,13.990,baseline
1451.000,379.200,115.300,31.880,1627.000,372.100,104.400,27.650,277.800,123.900,26.210,8.652,407.100,136.200,41.240,14.000,baseline
1444.000,378.200,113.900,31.480,1623.000,370.600,103.600,27.540,276.400,123.700,26.180,8.625,404.200,135.500,40.870,13.850,baseline
1433.000,374.400,113.100,31.280,1621.000,369.900,103.600,27.520,276.500,123.400,26.130,8.582,402.600,135.300,40.730,13.810,baseline
1431.000,374.600,113.300,31.220,1620.000,370.600,103.700,27.460,276.900,122.900,26.120,8.590,401.600,134.800,40.640,13.790,baseline
1432.000,374.300,112.500,31.290,1621.000,370.100,103.300,27.440,276.100,123.100,26.050,8.592,402.000,135.000,40.670,13.740,baseline
1431.000,374.000,113.100,31.250,1620.000,369.700,103.400,27.420,275.800,123.100,26.070,8.588,401.700,134.900,40.690,13.760,baseline
1431.000,373.600,113.200,31.330,1619.000,369.700,103.400,27.530,275.200,123.300,26.130,8.597,401.900,134.700,40.730,13.780,baseline
1434.000,373.900,113.600,31.430,1618.000,370.100,103.700,27.490,275.400,123.200,26.090,8.615,402.400,135.000,40.670,13.830,baseline
1437.000,375.500,113.400,31.560,1621.000,370.500,103.800,27.540,275.400,123.100,26.140,8.616,402.700,135.300,40.910,13.840,baseline
1440.000,376.900,113.900,31.580,1619.000,370.700,103.700,27.550,275.000,123.200,26.180,8.625,403.300,135.500,40.920,13.880,baseline
1441.000,378.100,114.300,31.640,1625.000,371.000,104.100,27.550,275.100,123.400,26.200,8.639,404.500,135.800,40.950,13.900,baseline
1444.000,379.100,114.400,31.770,1623.000,371.100,104.200,27.590,275.900,123.500,26.160,8.634,404.600,136.100,41.050,13.960,baseline
1447.000,379.900,114.600,31.960,1627.000,371.700,104.200,27.640,276.500,123.600,26.240,8.652,405.600,136.500,41.200,13.990,baseline
1451.000,379.700,115.300,31.970,1634.000,372.700,103.800,27.630,278.100,123.800,26.260,8.652,405.900,136.500,41.140,13.950,baseline
1441.000,376.700,113.800,31.480,1625.000,370.600,103.400,27.430,276.100,123.400,26.170,8.623,403.100,135.200,40.690,13.820,baseline
1430.000,374.400,112.900,31.300,1623.000,370.100,103.500,27.400,276.000,123.200,26.130,8.603,402.300,134.700,40.640,13.760,baseline
1430.000,374.500,112.900,31.250,1621.000,370.100,103.300,27.370,276.300,123.300,26.110,8.609,401.100,134.700,40.600,13.750,baseline
1430.000,375.600,113.100,31.330,1618.000,369.400,103.300,27.400,277.200,123.500,26.120,8.604,401.000,134.600,40.540,13.750,baseline
1429.000,374.600,112.900,31.280,1623.000,369.300,103.100,27.420,274.700,123.000,26.140,8.600,400.600,134.400,40.530,13.710,baseline
1430.000,374.400,113.000,31.310,1621.000,370.600,103.200,27.450,276.500,123.100,26.100,8.614,401.200,134.700,40.620,13.760,baseline
1431.000,375.400,113.300,31.420,1621.000,369.900,103.200,27.420,276.000,123.200,26.090,8.618,401.400,134.900,40.660,13.790,baseline
1434.000,376.700,113.500,31.570,1627.000,370.300,103.300,27.450,276.100,123.500,26.230,8.639,401.900,135.200,40.740,13.820,baseline
1436.000,376.900,113.700,31.540,1619.000,370.100,103.500,27.490,277.500,123.600,26.220,8.658,402.800,135.100,40.790,13.850,baseline
1439.000,377.100,113.800,31.630,1624.000,370.500,103.600,27.510,277.800,123.400,26.180,8.651,403.000,135.500,40.870,13.900,baseline
1441.000,377.100,114.100,31.730,1624.000,370.700,103.800,27.570,275.800,123.700,26.280,8.673,403.700,135.700,40.980,13.910,baseline
1445.000,378.400,114.500,31.840,1626.000,371.400,104.000,27.620,277.000,124.000,26.310,8.686,404.600,136.000,41.030,13.980,baseline
1448.000,379.800,114.800,32.040,1629.000,372.200,104.000,27.730,277.200,124.300,26.310,8.684,405.700,136.300,41.190,14.020,baseline
1452.000,380.500,115.100,32.140,1625.000,373.200,104.400,27.750,277.200,124.500,26.420,8.728,406.700,136.800,41.250,14.030,baseline
1449.000,378.900,114.400,31.780,1630.000,371.400,104.300,27.580,279.200,123.800,26.360,8.692,404.600,135.500,40.890,13.870,baseline
1436.000,375.300,113.900,31.550,1627.000,370.800,103.700,27.560,276.900,123.600,26.320,8.679,404.200,135.500,40.810,13.870,baseline
1437.000,375.600,113.700,31.650,1623.000,371.100,103.900,27.570,277.500,124.200,26.260,8.683,403.500,135.500,40.810,13.860,baseline
1438.000,376.900,113.800,31.580,1622.000,371.400,104.000,27.610,279.700,124.100,26.290,8.678,404.600,135.600,40.810,13.840,baseline
1436.000,377.500,113.600,31.540,1627.000,370.800,103.800,27.630,279.800,124.000,26.300,8.680,404.600,135.300,40.830,13.860,baseline
1436.000,376.800,113.700,31.660,1625.000,370.800,104.000,27.640,277.100,124.200,26.350,8.689,405.000,135.800,40.940,13.860,baseline
1439.000,377.300,114.000,31.710,1630.000,371.200,104.200,27.690,276.800,124.500,26.350,8.694,404.700,135.700,40.990,13.900,baseline
1443.000,378.200,114.300,31.840,1631.000,372.600,104.100,27.720,278.600,124.500,26.380,8.712,406.200,136.400,41.100,13.950,baseline
1446.000,378.900,114.800,31.940,1629.000,373.300,104.200,27.830,279.100,124.700,26.470,8.738,406.800,136.500,41.140,13.980,baseline
1448.000,379.600,115.000,31.990,1632.000,372.700,104.500,27.860,279.400,124.900,26.520,8.731,407.300,136.900,41.220,14.050,baseline
1451.000,379.600,115.400,32.160,1633.000,373.700,104.700,27.870,280.800,124.800,26.530,8.749,408.200,137.200,41.480,14.090,baseline
1457.000,381.400,116.100,32.350,1635.000,373.700,104.700,28.000,281.200,125.400,26.550,8.783,409.400,137.700,41.560,14.150,baseline
1461.000,382.100,115.800,32.190,1634.000,373.800,104.700,27.780,280.300,125.700,26.600,8.778,408.500,137.000,41.220,13.980,baseline
1443.000,377.500,114.300,31.810,1633.000,373.100,104.400,27.780,278.300,124.900,26.490,8.734,406.000,136.300,41.080,13.950,baseline
1443.000,378.500,114.100,31.750,1636.000,372.800,104.400,27.790,280.300,124.800,26.510,8.743,406.600,136.200,40.990,13.960,baseline
1444.000,379.100,114.200,31.780,1632.000,373.000,104.500,27.730,280.200,125.200,26.540,8.755,406.300,136.500,41.180,13.980,baseline
1444.000,379.300,114.100,31.710,1637.000,372.800,104.400,27.730,279.500,125.200,26.540,8.748,405.700,136.300,41.090,13.920,baseline
1443.000,379.100,113.900,31.720,1636.000,373.300,104.500,27.790,280.300,124.900,26.570,8.738,406.600,136.400,41.120,13.940,baseline
1446.000,380.100,114.300,31.860,1634.000,373.400,104.600,27.840,279.900,125.300,26.550,8.766,406.100,136.500,41.190,13.970,baseline
1449.000,379.800,114.800,31.960,1635.000,374.000,104.600,27.900,279.900,125.400,26.610,8.766,407.700,136.700,41.250,14.020,baseline
1452.000,381.200,115.100,32.010,1636.000,374.300,105.000,27.950,280.900,125.600,26.620,8.782,408.300,137.000,41.360,14.050,baseline
1456.000,382.200,115.400,32.120,1639.000,373.700,105.000,27.950,280.500,125.200,26.640,8.785,407.800,137.400,41.420,14.110,baseline
1458.000,382.300,115.700,32.250,1638.000,375.000,105.100,28.030,279.600,125.700,26.650,8.800,409.000,137.500,41.490,14.130,baseline
1460.000,383.400,116.100,32.390,1642.000,374.300,105.300,28.040,281.200,125.900,26.740,8.818,410.000,137.600,41.670,14.180,baseline
1466.000,384.200,116.800,32.580,1645.000,376.400,105.500,28.080,281.000,125.900,26.730,8.810,410.400,138.200,41.780,14.250,baseline
1472.000,386.100,117.000,32.680,1646.000,376.600,105.500,28.180,281.400,126.300,26.790,8.847,411.000,138.500,41.960,14.290,baseline
1473.000,387.400,117.000,32.430,1640.000,375.300,105.200,27.970,281.700,126.000,26.800,8.819,410.000,137.400,41.470,14.080,baseline
1451.000,380.000,114.600,31.910,1635.000,374.000,104.600,27.910,280.100,125.600,26.620,8.793,407.600,136.800,41.270,14.000,baseline
1448.000,379.800,114.600,31.880,1638.000,373.500,104.900,27.890,279.400,125.300,26.670,8.770,407.400,136.700,41.230,13.980,baseline
1447.000,380.800,114.500,31.810,1636.000,374.100,104.600,27.910,279.900,125.500,26.620,8.754,405.900,136.500,41.220,13.990,baseline
1448.000,378.800,114.700,31.740,1640.000,374.800,104.600,27.880,279.900,125.500,26.600,8.792,406.600,136.600,41.160,13.970,baseline
1447.000,378.800,114.100,31.780,1635.000,374.000,104.700,27.930,280.800,125.500,26.610,8.766,406.400,136.300,41.120,13.970,baseline
1448.000,378.800,114.400,31.850,1638.000,374.000,104.900,27.890,279.700,125.200,26.650,8.781,406.700,136.600,41.240,14.000,baseline
1451.000,380.800,115.200,31.990,1638.000,374.900,104.800,27.990,280.800,125.500,26.620,8.794,407.800,136.600,41.250,14.050,baseline
1454.000,381.100,115.200,32.110,1639.000,375.900,105.200,27.980,279.900,125.700,26.680,8.800,407.700,136.900,41.420,14.060,baseline
1456.000,382.100,115.800,32.120,1639.000,375.500,105.300,27.990,281.900,125.400,26.670,8.791,408.500,137.400,41.490,14.100,baseline
1460.000,383.300,115.600,32.270,1645.000,375.200,105.400,28.100,281.200,125.400,26.710,8.801,408.700,137.600,41.610,14.140,baseline
1463.000,384.100,115.900,32.410,1641.000,376.100,105.500,28.150,280.300,125.700,26.710,8.819,410.100,137.900,41.650,14.200,baseline
1467.000,384.900,116.400,32.570,1644.000,376.000,105.600,28.130,281.500,125.800,26.780,8.834,409.900,138.000,41.840,14.260,baseline
1470.000,386.300,117.100,32.700,1647.000,375.900,105.600,28.220,281.400,126.000,26.800,8.844,410.300,138.000,41.940,14.270,baseline
1475.000,387.200,117.200,32.880,1650.000,377.500,105.900,28.290,281.300,126.100,26.820,8.862,411.700,138.600,42.060,14.350,baseline
1482.000,390.800,118.100,33.030,1655.000,378.000,106.000,28.270,281.800,126.100,26.830,8.873,413.000,139.100,42.090,14.340,baseline
1474.000,387.300,116.500,32.450,1645.000,376.700,105.300,28.060,281.500,126.400,26.780,8.835,410.100,137.900,41.620,14.150,baseline
1455.000,381.600,115.200,32.200,1643.000,376.000,105.200,28.020,279.900,125.800,26.730,8.809,408.700,137.400,41.410,14.100,baseline
1454.000,381.700,115.300,32.070,1642.000,374.800,105.100,28.000,280.300,125.700,26.670,8.804,408.000,137.100,41.380,14.060,baseline
1453.000,380.700,115.500,32.180,1642.000,374.700,105.200,28.050,282.100,125.400,26.750,8.795,407.500,136.900,41.350,14.060,baseline
1451.000,380.300,115.500,31.990,1643.000,375.000,105.200,27.940,280.500,125.800,26.670,8.796,407.200,136.800,41.300,14.070,baseline
1451.000,380.100,115.100,32.070,1639.000,375.300,105.200,27.980,279.300,125.600,26.620,8.791,407.000,136.900,41.410,14.040,baseline
1455.000,380.400,115.100,32.190,1643.000,375.100,105.300,28.030,278.800,125.700,26.690,8.803,407.000,136.900,41.490,14.100,baseline
1456.000,381.900,115.700,32.230,1639.000,375.900,105.200,28.030,281.400,125.200,26.670,8.802,407.900,137.300,41.480,14.140,baseline
1460.000,383.500,116.100,32.400,1643.000,375.900,105.200,28.010,280.600,125.500,26.640,8.800,407.900,137.500,41.610,14.160,baseline
1462.000,382.300,116.400,32.390,1647.000,375.500,105.400,28.070,280.800,125.600,26.660,8.823,408.600,137.400,41.720,14.140,baseline
1465.000,384.100,116.300,32.560,1644.000,375.700,105.500,28.090,281.400,125.600,26.660,8.817,408.600,137.900,41.700,14.210,baseline
1468.000,386.800,116.800,32.680,1649.000,376.700,105.700,28.140,281.200,125.600,26.680,8.818,410.400,138.000,41.760,14.260,baseline
1472.000,387.100,117.300,32.760,1650.000,377.300,105.700,28.120,280.000,125.700,26.720,8.827,410.800,138.400,41.930,14.290,baseline
1477.000,387.800,117.700,33.010,1651.000,377.500,105.900,28.230,282.100,125.700,26.750,8.839,411.700,138.800,42.080,14.370,baseline
1482.000,389.300,118.200,32.970,1650.000,377.500,106.000,28.100,279.600,126.300,26.760,8.843,410.700,138.100,41.730,14.220,baseline
1461.000,382.100,116.100,32.400,1641.000,375.500,105.200,28.030,280.800,125.700,26.610,8.781,408.300,137.200,41.570,14.120,baseline
1457.000,382.000,116.000,32.410,1646.000,375.100,105.200,27.970,281.300,125.700,26.640,8.779,407.500,137.000,41.530,14.120,baseline
1457.000,382.100,115.800,32.400,1644.000,375.300,105.400,28.040,281.200,125.200,26.620,8.781,407.800,137.500,41.530,14.130,baseline
1459.000,382.900,115.500,32.340,1641.000,375.800,104.900,27.940,278.600,125.100,26.620,8.772,407.200,137.000,41.420,14.080,baseline
1457.000,381.400,115.700,32.340,1641.000,375.300,105.100,28.000,280.400,124.900,26.600,8.772,407.400,137.000,41.450,14.090,baseline
1458.000,382.200,116.100,32.450,1640.000,374.900,105.100,27.980,280.600,125.300,26.590,8.768,407.300,137.100,41.550,14.140,baseline
1462.000,383.400,115.900,32.620,1644.000,375.400,105.200,27.990,280.600,125.100,26.620,8.785,407.800,137.400,41.660,14.190,baseline
1466.000,384.700,116.900,32.670,1646.000,375.700,105.300,28.060,278.800,125.500,26.570,8.798,409.000,137.600,41.690,14.220,baseline
1470.000,385.900,117.300,32.720,1645.000,375.900,105.200,28.040,282.200,125.400,26.660,8.789,409.900,137.900,41.740,14.270,baseline
1472.000,386.500,117.400,32.910,1650.000,375.900,105.500,28.090,279.500,125.700,26.630,8.791,410.300,138.200,41.850,14.300,baseline
1475.000,387.300,117.500,32.930,1649.000,377.200,105.400,28.090,280.600,125.600,26.640,8.800,411.100,138.400,41.950,14.340,baseline
1479.000,388.400,118.300,33.120,1652.000,377.500,105.800,28.190,281.100,125.700,26.680,8.801,411.400,138.800,42.120,14.400,baseline
1486.000,390.400,118.700,33.320,1652.000,377.500,105.700,28.140,280.900,125.900,26.710,8.814,412.400,139.100,42.160,14.400,baseline
1475.000,385.300,116.900,32.700,1643.000,375.800,104.900,27.860,279.800,125.700,26.600,8.777,409.000,137.400,41.650,14.160,baseline
1456.000,381.200,115.800,32.370,1640.000,373.800,104.700,27.840,280.000,125.000,26.540,8.749,407.600,137.300,41.440,14.140,baseline
1454.000,382.000,115.600,32.290,1638.000,374.600,104.500,27.800,279.100,125.000,26.490,8.727,406.100,136.900,41.370,14.090,baseline
1454.000,382.000,115.700,32.390,1639.000,374.400,104.700,27.770,279.600,124.900,26.430,8.727,406.600,136.900,41.360,14.070,baseline
1453.000,381.300,115.800,32.110,1639.000,373.600,104.500,27.740,279.600,124.700,26.400,8.703,405.700,136.500,41.280,14.050,baseline
1452.000,380.600,114.900,32.180,1639.000,373.600,104.500,27.750,279.200,124.600,26.370,8.707,405.900,136.500,41.320,14.060,baseline
1455.000,382.000,115.200,32.250,1638.000,373.600,104.600,27.780,278.300,124.700,26.410,8.712,406.100,136.600,41.330,14.100,baseline
1457.000,383.000,115.900,32.420,1640.000,374.300,104.600,27.780,278.600,124.900,26.410,8.692,406.600,136.600,41.440,14.130,baseline
1461.000,384.300,116.400,32.490,1642.000,374.800,104.500,27.780,280.500,124.700,26.410,8.714,406.900,137.000,41.450,14.170,baseline
1463.000,384.000,116.600,32.460,1642.000,375.300,104.500,27.790,278.400,124.800,26.440,8.700,406.900,137.200,41.520,14.180,baseline
1466.000,385.000,116.900,32.580,1642.000,374.500,104.700,27.840,278.500,124.800,26.420,8.717,407.300,137.500,41.660,14.220,baseline
1469.000,384.900,117.300,32.750,1644.000,375.400,104.900,27.890,278.700,125.100,26.460,8.720,409.200,137.800,41.730,14.260,baseline
1474.000,387.400,117.300,32.910,1644.000,375.700,105.200,27.970,279.100,125.000,26.470,8.734,409.600,138.100,41.870,14.310,baseline
1478.000,389.500,118.300,33.090,1648.000,376.800,105.400,28.010,279.800,125.000,26.480,8.756,409.900,138.500,42.030,14.380,baseline
1484.000,389.000,118.700,33.190,1653.000,376.700,105.500,27.930,281.200,125.000,26.570,8.767,411.200,138.600,42.050,14.340,baseline
1472.000,385.300,116.500,32.550,1638.000,373.900,104.600,27.710,278.900,125.000,26.430,8.712,406.800,137.000,41.470,14.130,baseline
1453.000,381.600,115.300,32.270,1641.000,372.700,104.300,27.690,280.500,124.700,26.380,8.680,406.000,136.800,41.360,14.100,baseline
1452.000,380.300,115.200,32.070,1636.000,373.400,104.400,27.680,280.400,124.500,26.330,8.689,406.000,136.600,41.300,14.060,baseline
1451.000,380.100,115.000,32.090,1636.000,373.800,104.100,27.650,279.000,124.500,26.340,8.674,405.900,136.200,41.210,14.040,baseline
1449.000,379.700,115.100,31.990,1635.000,373.000,104.400,27.650,278.400,124.500,26.340,8.669,404.500,135.900,41.170,14.010,baseline
1447.000,378.600,115.400,31.970,1634.000,372.900,104.200,27.670,279.200,124.200,26.300,8.681,404.400,136.600,41.170,14.070,baseline
1451.000,379.700,115.000,32.150,1638.000,373.300,104.100,27.660,277.800,124.500,26.310,8.664,404.800,136.500,41.280,14.060,baseline
1453.000,379.600,115.500,32.220,1639.000,373.700,104.300,27.680,276.900,124.500,26.300,8.680,405.200,136.500,41.290,14.080,baseline
1457.000,380.900,116.000,32.300,1638.000,373.500,104.400,27.730,279.200,124.200,26.320,8.682,405.700,136.900,41.400,14.130,baseline
1457.000,382.700,116.100,32.430,1635.000,374.000,104.500,27.750,279.000,124.800,26.360,8.685,406.400,136.700,41.370,14.150,baseline
1461.000,382.400,116.100,32.500,1639.000,373.900,104.500,27.750,278.500,124.400,26.320,8.698,406.600,137.200,41.560,14.190,baseline
1463.000,384.600,116.600,32.550,1640.000,373.800,104.500,27.760,278.400,125.000,26.400,8.688,407.700,137.300,41.650,14.240,baseline
1467.000,385.200,117.000,32.740,1641.000,374.000,104.900,27.840,279.300,124.900,26.410,8.714,408.700,138.000,41.760,14.310,baseline
1474.000,386.800,117.300,32.890,1643.000,374.300,104.600,27.740,279.300,124.900,26.440,8.722,409.500,137.700,41.620,14.180,baseline
1456.000,380.800,115.200,32.190,1639.000,372.500,104.000,27.640,277.900,124.400,26.330,8.683,405.900,136.800,41.230,14.070,baseline
1449.000,379.600,115.200,32.090,1634.000,372.500,103.800,27.620,279.600,124.300,26.310,8.653,404.600,136.400,41.270,14.040,baseline
1450.000,380.800,114.900,32.100,1634.000,372.800,103.800,27.570,278.400,124.500,26.350,8.662,405.700,136.900,41.250,14.070,baseline
1452.000,380.300,115.300,32.110,1637.000,372.400,104.200,27.630,279.200,124.300,26.310,8.640,405.200,136.400,41.210,14.040,baseline
1450.000,379.900,115.000,32.050,1632.000,371.900,103.900,27.600,278.300,124.200,26.250,8.626,404.900,136.100,41.140,14.020,baseline
1451.000,379.500,114.900,32.000,1633.000,372.100,103.800,27.650,277.600,124.300,26.260,8.636,404.900,136.500,41.280,14.050,baseline
1455.000,379.700,115.100,32.250,1634.000,372.800,104.100,27.650,278.300,124.200,26.260,8.651,405.600,136.800,41.300,14.110,baseline
1458.000,382.500,115.400,32.390,1637.000,372.600,104.400,27.710,279.400,124.200,26.320,8.646,406.500,137.000,41.410,14.140,baseline
1462.000,383.100,115.500,32.470,1637.000,373.200,104.400,27.700,279.900,123.900,26.280,8.669,407.700,137.100,41.480,14.130,baseline
1464.000,383.700,116.600,32.560,1639.000,373.400,104.400,27.740,278.000,124.700,26.360,8.681,407.700,137.100,41.600,14.200,baseline
1468.000,385.400,116.800,32.680,1641.000,373.700,104.500,27.770,279.000,124.700,26.310,8.674,408.300,137.700,41.670,14.230,baseline
1469.000,384.400,116.200,32.390,1637.000,373.300,104.000,27.580,279.700,124.600,26.300,8.669,406.300,136.600,41.210,14.030,baseline
1446.000,378.600,114.600,31.910,1631.000,370.700,103.700,27.450,278.000,124.300,26.220,8.648,404.000,136.000,41.000,13.980,baseline
1444.000,377.100,114.300,31.810,1631.000,371.000,103.700,27.430,277.600,124.100,26.150,8.614,403.200,135.800,40.900,13.920,baseline
1442.000,377.400,114.100,31.790,1633.000,370.500,103.300,27.450,277.100,124.200,26.130,8.616,403.500,135.600,40.980,13.910,baseline
1442.000,376.200,113.500,31.720,1630.000,370.700,103.200,27.410,278.100,124.000,26.160,8.600,402.900,135.600,40.800,13.900,baseline
1440.000,375.700,114.100,31.620,1626.000,370.400,103.300,27.470,277.300,123.300,26.140,8.585,402.900,135.400,40.720,13.880,baseline
1442.000,376.900,114.000,31.730,1626.000,370.400,103.300,27.450,278.100,123.800,26.140,8.597,402.700,135.300,40.860,13.910,baseline
1446.000,378.000,114.000,31.880,1631.000,371.700,103.600,27.460,277.600,123.700,26.110,8.605,403.200,135.800,40.960,13.940,baseline
1449.000,378.800,114.100,31.930,1632.000,371.000,103.700,27.510,277.300,123.900,26.150,8.626,404.000,135.800,40.990,13.960,baseline
1451.000,380.100,114.700,32.010,1632.000,371.500,103.900,27.510,278.300,123.700,26.180,8.627,404.600,136.100,41.100,13.990,baseline
1454.000,380.300,115.000,32.110,1633.000,371.700,103.900,27.550,278.600,124.400,26.180,8.638,404.700,136.300,41.120,14.040,baseline
1459.000,382.200,115.400,32.300,1635.000,372.400,103.900,27.610,277.000,124.300,26.290,8.661,406.000,136.700,41.270,14.080,baseline
1462.000,382.200,115.600,32.140,1634.000,371.600,103.600,27.470,281.900,124.200,26.320,8.650,405.600,136.000,40.960,13.930,baseline
1441.000,376.100,113.400,31.530,1633.000,369.900,103.100,27.350,277.700,123.500,26.160,8.608,402.400,135.000,40.640,13.810,baseline
1435.000,374.500,113.200,31.360,1626.000,369.700,103.000,27.380,277.400,123.400,26.140,8.596,400.700,134.700,40.480,13.780,baseline
1433.000,372.700,112.600,31.390,1624.000,369.800,102.900,27.260,277.600,123.700,26.120,8.599,401.600,134.600,40.440,13.750,baseline
1434.000,373.500,112.800,31.240,1624.000,369.000,102.900,27.340,277.500,123.800,26.130,8.585,400.000,134.300,40.380,13.710,baseline
1432.000,372.800,112.400,31.270,1620.000,368.800,102.900,27.330,278.500,123.500,26.060,8.585,399.900,134.100,40.400,13.710,baseline
1433.000,372.700,112.600,31.420,1623.000,369.000,103.000,27.330,276.700,123.500,26.140,8.596,400.400,134.400,40.490,13.710,baseline
1436.000,374.800,112.800,31.480,1625.000,369.300,103.200,27.350,276.400,123.300,26.140,8.608,400.300,134.200,40.480,13.780,baseline
1440.000,375.000,113.100,31.510,1623.000,369.600,103.200,27.400,275.700,123.700,26.160,8.614,401.000,134.700,40.610,13.800,baseline
1441.000,377.100,113.300,31.600,1622.000,369.600,103.300,27.440,276.500,123.800,26.210,8.629,401.600,134.800,40.730,13.850,baseline
1444.000,377.600,113.700,31.660,1627.000,369.300,103.400,27.440,279.500,123.800,26.230,8.648,403.300,135.300,40.760,13.900,baseline
1446.000,378.700,114.300,31.770,1625.000,370.500,103.400,27.550,278.100,123.900,26.270,8.655,403.700,135.700,40.880,13.920,baseline
1451.000,379.400,114.400,31.920,1628.000,370.400,103.500,27.560,276.900,124.100,26.350,8.679,404.500,135.700,41.040,13.970,baseline
1455.000,379.700,115.100,32.060,1630.000,371.900,103.700,27.630,280.100,124.500,26.320,8.688,405.200,136.300,41.200,14.020,baseline
1462.000,383.200,115.900,32.240,1633.000,372.400,104.100,27.560,278.800,124.800,26.390,8.715,406.200,136.500,41.090,13.960,baseline
1448.000,378.300,113.700,31.540,1624.000,370.000,103.300,27.330,279.700,124.500,26.310,8.659,402.900,135.300,40.730,13.790,baseline
1436.000,375.200,113.100,31.380,1623.000,369.800,103.200,27.390,277.400,123.700,26.290,8.628,401.900,134.800,40.560,13.770,baseline
1436.000,375.500,113.100,31.420,1623.000,369.600,103.300,27.340,278.600,124.200,26.240,8.646,401.700,134.800,40.590,13.780,baseline
1439.000,375.400,112.900,31.430,1628.000,369.700,103.300,27.340,277.800,124.100,26.280,8.647,401.900,134.700,40.470,13.720,baseline
1436.000,375.700,112.800,31.360,1626.000,369.300,103.200,27.390,278.400,123.900,26.210,8.632,401.800,134.600,40.560,13.720,baseline
1437.000,374.500,112.800,31.330,1626.000,369.100,103.400,27.390,277.700,124.000,26.240,8.656,401.600,134.700,40.500,13.770,baseline
1439.000,376.500,113.400,31.460,1626.000,369.700,103.100,27.420,278.700,124.300,26.280,8.668,402.400,135.100,40.630,13.830,baseline
1443.000,377.200,113.600,31.660,1626.000,369.400,103.500,27.450,279.400,124.200,26.280,8.672,403.000,135.000,40.680,13.850,baseline
1445.000,377.700,114.100,31.720,1630.000,369.700,103.500,27.550,279.500,124.400,26.360,8.664,403.000,135.400,40.750,13.880,baseline
1448.000,378.900,114.300,31.780,1630.000,371.000,103.600,27.570,278.800,124.100,26.320,8.692,404.200,135.600,40.870,13.890,baseline
1452.000,379.100,114.700,31.910,1628.000,371.000,103.700,27.620,279.100,124.400,26.380,8.691,405.000,135.800,41.000,13.950,baseline
1455.000,380.300,115.400,31.870,1632.000,370.900,103.600,27.550,280.500,124.400,26.380,8.700,404.800,135.600,40.760,13.820,baseline
1439.000,374.600,113.100,31.390,1623.000,369.900,103.200,27.370,278.600,124.300,26.290,8.656,401.800,134.700,40.490,13.740,baseline
1435.000,373.900,112.900,31.300,1628.000,369.700,103.300,27.350,278.200,124.200,26.270,8.664,401.000,134.800,40.480,13.730,baseline
1434.000,374.600,113.000,31.380,1622.000,370.000,103.300,27.390,279.300,124.300,26.310,8.674,401.200,134.500,40.500,13.720,baseline
1436.000,375.400,112.900,31.310,1623.000,368.900,103.200,27.360,278.800,124.400,26.340,8.675,401.800,134.700,40.350,13.730,baseline
1435.000,374.500,112.300,31.280,1621.000,368.800,103.200,27.340,278.500,124.700,26.320,8.652,401.700,134.800,40.440,13.690,baseline
1436.000,375.200,113.000,31.400,1624.000,369.500,103.200,27.420,279.300,124.600,26.340,8.671,401.900,134.800,40.550,13.770,baseline
1439.000,376.000,113.300,31.430,1621.000,369.200,103.500,27.470,279.400,124.500,26.380,8.696,402.400,135.100,40.590,13.760,baseline
1443.000,377.500,113.600,31.570,1627.000,370.000,103.400,27.520,277.300,124.600,26.390,8.707,402.600,135.200,40.750,13.800,baseline
1446.000,377.700,114.100,31.620,1630.000,370.100,103.700,27.580,278.800,124.400,26.410,8.719,403.300,135.400,40.790,13.850,baseline
1449.000,379.100,114.700,31.800,1629.000,371.400,103.600,27.590,278.200,124.700,26.430,8.724,404.100,135.700,40.820,13.880,baseline
1452.000,379.300,114.600,31.960,1627.000,371.600,103.800,27.720,278.700,125.100,26.510,8.742,405.200,136.300,41.030,13.970,baseline
1457.000,380.300,115.200,32.030,1634.000,372.000,104.000,27.680,281.100,125.100,26.500,8.747,405.800,136.100,41.120,13.920,baseline
1449.000,378.300,113.700,31.520,1629.000,370.100,103.300,27.450,279.600,124.600,26.470,8.698,402.700,135.100,40.560,13.730,baseline
1435.000,374.100,113.000,31.210,1626.000,369.100,103.200,27.400,279.300,124.200,26.360,8.690,401.100,134.400,40.390,13.660,baseline
1432.000,373.100,112.400,31.240,1624.000,368.800,103.200,27.400,276.900,124.700,26.400,8.694,400.900,134.300,40.360,13.690,baseline
1433.000,373.800,112.800,31.190,1625.000,369.500,103.300,27.410,279.100,124.700,26.390,8.685,400.500,134.300,40.350,13.680,baseline
1432.000,376.000,112.100,31.140,1623.000,368.400,103.200,27.420,277.000,124.300,26.390,8.678,400.400,134.000,40.280,13.660,baseline
1432.000,373.700,112.200,31.170,1623.000,369.200,103.100,27.400,278.200,124.000,26.340,8.686,400.500,134.200,40.340,13.680,baseline
1434.000,374.800,112.800,31.300,1623.000,369.000,103.300,27.450,278.600,124.400,26.410,8.711,401.300,134.300,40.420,13.700,baseline
1438.000,376.400,112.900,31.350,1624.000,369.400,103.400,27.480,278.500,124.500,26.420,8.719,401.300,134.600,40.540,13.740,baseline
1442.000,377.700,113.600,31.450,1627.000,369.500,103.400,27.510,279.400,124.900,26.430,8.710,401.800,135.000,40.600,13.780,baseline
1443.000,377.300,113.900,31.600,1628.000,369.500,103.800,27.610,279.200,124.500,26.490,8.739,402.700,135.200,40.620,13.810,baseline
1446.000,377.900,114.200,31.720,1629.000,371.000,103.600,27.570,278.100,124.800,26.520,8.758,403.300,135.900,40.700,13.880,baseline
1450.000,379.700,114.800,31.900,1629.000,371.700,103.700,27.640,277.600,125.200,26.490,8.789,403.800,135.800,40.940,13.920,baseline
1455.000,379.500,114.800,31.990,1634.000,371.400,104.000,27.720,277.300,125.100,26.620,8.792,405.000,136.300,41.150,13.990,baseline
1460.000,381.900,115.700,32.180,1635.000,372.700,104.200,27.770,280.300,125.700,26.640,8.811,405.900,136.600,41.180,14.010,baseline
1466.000,383.500,116.200,32.450,1633.000,373.200,104.800,27.820,279.800,125.600,26.670,8.824,407.200,137.200,41.360,14.090,baseline
1469.000,384.300,115.900,32.170,1633.000,371.500,104.100,27.610,280.200,125.400,26.610,8.815,405.100,136.200,40.930,13.880,baseline
1443.000,377.500,113.600,31.560,1626.000,370.400,103.700,27.550,280.300,124.800,26.510,8.755,402.900,135.200,40.740,13.790,baseline
1440.000,375.700,113.200,31.530,1626.000,370.200,103.600,27.470,279.400,124.600,26.520,8.755,401.800,134.900,40.590,13.750,baseline
1438.000,375.600,113.200,31.500,1626.000,370.000,103.600,27.520,278.600,124.600,26.460,8.735,401.500,135.000,40.610,13.770,baseline
1438.000,376.600,113.300,31.420,1627.000,369.700,103.300,27.440,278.900,124.700,26.440,8.738,400.900,134.900,40.500,13.740,baseline
1436.000,375.800,113.200,31.390,1627.000,369.100,103.400,27.460,277.900,124.800,26.420,8.736,401.500,134.700,40.560,13.730,baseline
1439.000,375.900,113.700,31.510,1629.000,370.300,103.500,27.500,277.700,124.700,26.450,8.738,401.600,135.000,40.620,13.790,baseline
1442.000,376.800,114.100,31.620,1626.000,369.700,103.700,27.480,280.300,124.300,26.470,8.728,401.500,135.200,40.780,13.830,baseline
1445.000,376.300,113.900,31.680,1628.000,369.500,103.500,27.520,278.600,124.500,26.440,8.741,402.300,135.100,40.730,13.850,baseline
1447.000,377.100,114.400,31.780,1629.000,370.600,103.500,27.520,278.800,124.700,26.540,8.740,402.600,135.600,40.870,13.880,baseline
1450.000,378.300,114.900,31.850,1630.000,370.600,103.900,27.570,279.300,124.700,26.480,8.765,403.200,135.600,40.850,13.920,baseline
1453.000,380.900,114.700,32.050,1626.000,371.200,104.000,27.620,278.900,124.600,26.550,8.750,404.000,136.000,41.020,13.980,baseline
1457.000,382.000,115.200,32.180,1637.000,371.500,104.200,27.640,278.500,124.900,26.500,8.764,404.500,136.400,41.110,13.990,baseline
1461.000,382.600,115.700,32.250,1634.000,372.200,104.300,27.700,279.900,125.000,26.520,8.776,406.100,136.700,41.250,14.060,baseline
1467.000,384.300,116.200,32.450,1640.000,372.800,104.500,27.770,280.700,125.100,26.590,8.786,406.400,137.000,41.360,14.090,baseline
1462.000,382.200,115.400,32.010,1633.000,370.800,104.000,27.590,278.800,125.200,26.450,8.755,404.500,135.700,40.900,13.890,baseline
1446.000,378.000,114.400,31.760,1630.000,370.600,103.800,27.490,278.900,124.800,26.440,8.706,403.300,135.500,40.850,13.870,baseline
1447.000,378.500,114.500,31.810,1631.000,370.000,103.600,27.500,279.500,124.500,26.430,8.705,403.100,135.600,40.850,13.890,baseline
1449.000,379.700,114.600,31.900,1630.000,371.300,103.900,27.510,277.700,124.900,26.400,8.722,403.100,135.700,40.880,13.870,baseline
1447.000,379.300,114.400,31.750,1632.000,370.600,103.600,27.520,279.400,124.400,26.390,8.707,402.800,135.400,40.830,13.880,baseline
1448.000,379.200,114.700,31.780,1630.000,371.500,103.800,27.540,279.500,124.500,26.380,8.697,403.000,135.700,40.840,13.880,baseline
1450.000,379.700,114.800,31.980,1629.000,370.900,103.700,27.560,277.800,124.300,26.370,8.709,403.500,135.900,40.970,13.930,baseline
1454.000,379.800,114.900,32.070,1633.000,371.100,103.800,27.550,278.400,124.600,26.380,8.702,404.300,136.100,41.040,13.970,baseline
1458.000,381.800,115.400,32.180,1634.000,371.400,104.200,27.600,280.200,124.600,26.420,8.709,405.100,136.500,41.130,14.020,baseline
1460.000,382.400,115.900,32.290,1636.000,371.900,104.300,27.600,279.000,124.400,26.410,8.732,405.100,136.500,41.230,14.070,baseline
1462.000,383.800,115.800,32.440,1637.000,372.000,104.200,27.660,279.300,124.600,26.380,8.725,406.500,136.900,41.370,14.100,baseline
1467.000,384.900,116.500,32.580,1639.000,372.600,104.400,27.740,279.200,124.700,26.490,8.740,407.700,137.300,41.490,14.180,baseline
1473.000,387.300,117.200,32.730,1644.000,373.200,104.500,27.700,280.300,124.700,26.460,8.730,408.200,137.400,41.410,14.110,baseline
1460.000,382.100,115.900,32.110,1634.000,371.800,103.700,27.490,279.700,124.700,26.350,8.699,404.600,136.100,41.010,13.970,baseline
1448.000,379.000,114.700,31.990,1632.000,370.800,103.600,27.510,280.000,124.400,26.310,8.664,403.500,135.700,40.880,13.930,baseline
1448.000,378.900,114.700,31.860,1633.000,371.000,103.400,27.470,278.100,123.700,26.280,8.655,402.700,135.500,40.860,13.900,baseline
1448.000,380.200,114.500,31.980,1633.000,370.300,103.800,27.450,278.200,124.100,26.260,8.659,403.800,135.600,40.850,13.880,baseline
1447.000,378.200,114.400,31.840,1631.000,370.400,103.700,27.430,278.600,123.900,26.240,8.653,402.900,135.300,40.780,13.870,baseline
1447.000,378.600,114.400,31.850,1630.000,370.700,103.900,27.440,278.100,123.700,26.220,8.644,402.700,135.400,40.880,13.920,baseline
1450.000,379.900,114.500,32.000,1630.000,371.300,103.800,27.440,278.300,123.800,26.210,8.646,403.100,135.700,40.880,13.940,baseline
1453.000,379.600,115.100,32.000,1632.000,370.800,104.100,27.520,277.000,124.100,26.200,8.625,402.900,135.800,41.010,13.980,baseline
1456.000,381.900,115.400,32.070,1636.000,370.800,103.700,27.500,277.100,123.800,26.240,8.651,403.700,136.300,41.100,14.020,baseline
1459.000,382.800,115.600,32.240,1637.000,372.100,104.200,27.620,277.100,123.800,26.310,8.663,404.200,136.400,41.160,14.030,baseline
1461.000,383.400,116.200,32.330,1636.000,372.000,104.200,27.600,278.100,124.100,26.280,8.639,405.300,136.600,41.290,14.070,baseline
1465.000,383.700,116.400,32.510,1636.000,372.000,104.000,27.650,277.900,124.100,26.280,8.665,405.800,137.100,41.400,14.140,baseline
1469.000,385.700,116.600,32.580,1636.000,373.000,104.200,27.660,277.800,124.100,26.320,8.672,406.800,137.200,41.580,14.190,baseline
1474.000,386.700,117.500,32.800,1641.000,373.800,104.700,27.680,278.900,124.300,26.370,8.679,407.700,137.700,41.670,14.250,baseline
1480.000,386.600,117.900,32.930,1642.000,373.400,104.600,27.720,278.300,124.500,26.370,8.694,408.100,137.800,41.680,14.200,baseline
1463.000,382.600,115.700,32.180,1630.000,371.500,103.700,27.490,278.700,124.300,26.280,8.640,404.500,136.200,41.070,14.000,baseline
1450.000,378.600,114.800,31.950,1630.000,371.200,103.500,27.430,278.000,123.700,26.250,8.602,403.300,135.600,40.980,13.940,baseline
1449.000,378.400,114.600,31.900,1630.000,370.800,103.800,27.490,277.700,123.500,26.190,8.600,402.500,135.600,40.960,13.910,baseline
1449.000,379.800,114.700,31.860,1629.000,370.700,103.600,27.440,278.500,123.600,26.140,8.600,402.900,135.700,40.870,13.900,baseline
1447.000,378.500,114.300,31.780,1628.000,369.600,103.700,27.440,276.600,123.500,26.090,8.598,401.900,135.300,40.830,13.890,baseline
1445.000,378.100,114.500,31.830,1630.000,369.600,103.700,27.470,277.200,123.000,26.090,8.578,401.400,135.000,40.780,13.890,baseline
1448.000,378.000,114.900,31.950,1629.000,370.500,103.600,27.500,277.200,123.200,26.070,8.580,401.800,135.400,40.910,13.920,baseline
1451.000,380.000,115.300,32.090,1631.000,370.900,103.800,27.480,276.200,123.500,26.070,8.601,402.500,135.700,40.960,13.980,baseline
1454.000,380.800,115.300,32.110,1630.000,371.700,104.000,27.510,276.600,123.300,26.140,8.593,403.400,135.900,41.050,13.960,baseline
1457.000,381.300,115.700,32.130,1637.000,371.800,104.000,27.540,275.700,123.300,26.120,8.610,403.100,136.100,41.130,14.000,baseline
1459.000,382.300,116.000,32.290,1633.000,372.100,104.000,27.550,276.300,123.300,26.130,8.596,403.500,136.300,41.150,14.050,baseline
1463.000,383.600,116.400,32.390,1634.000,372.700,104.100,27.560,278.900,123.500,26.150,8.607,404.700,136.500,41.350,14.100,baseline
1468.000,384.700,116.600,32.500,1637.000,372.900,104.400,27.630,278.100,123.600,26.220,8.621,405.800,137.000,41.390,14.150,baseline
1474.000,386.400,117.300,32.680,1638.000,374.000,104.600,27.700,277.000,124.000,26.260,8.637,407.100,137.300,41.620,14.180,baseline
1480.000,388.200,117.500,32.770,1643.000,374.100,104.400,27.660,277.900,124.200,26.230,8.640,407.100,137.500,41.430,14.110,baseline
1465.000,382.800,115.700,32.120,1637.000,371.800,103.800,27.480,276.100,123.800,26.090,8.597,403.400,135.700,41.020,13.960,baseline
1451.000,381.200,114.800,32.000,1632.000,370.900,103.600,27.480,276.300,123.700,26.050,8.549,403.000,135.600,40.880,13.900,baseline
1451.000,381.400,114.800,31.910,1630.000,371.200,103.800,27.450,275.400,123.300,25.980,8.558,402.000,135.400,40.790,13.890,baseline
1453.000,380.600,114.500,32.000,1631.000,371.200,103.800,27.520,277.700,123.100,26.000,8.569,402.600,135.300,40.790,13.860,baseline
1451.000,379.500,114.700,31.840,1630.000,370.600,103.800,27.440,276.200,123.200,25.950,8.542,402.000,135.000,40.670,13.870,baseline
1450.000,380.200,114.700,31.880,1629.000,371.100,104.000,27.520,276.200,123.300,26.000,8.538,401.500,135.300,40.750,13.870,baseline
1453.000,379.800,115.300,32.040,1630.000,372.000,104.000,27.550,276.800,123.100,25.990,8.561,401.800,135.500,40.870,13.910,baseline
1457.000,381.800,115.600,32.140,1633.000,372.200,104.000,27.550,277.200,123.000,26.040,8.558,403.100,135.700,40.950,13.930,baseline
1459.000,381.800,116.100,32.250,1635.000,372.100,104.200,27.550,276.400,123.100,26.040,8.562,403.300,136.000,41.010,13.980,baseline
1462.000,383.200,116.000,32.230,1637.000,373.000,104.400,27.640,276.900,123.100,25.990,8.544,403.800,136.000,41.070,14.020,baseline
1466.000,385.000,116.400,32.480,1636.000,372.300,104.700,27.630,278.800,123.400,26.020,8.566,404.800,136.200,41.240,14.060,baseline
1470.000,386.600,116.600,32.570,1641.000,372.700,104.800,27.670,277.100,123.300,26.060,8.559,405.300,136.700,41.310,14.060,baseline
1467.000,383.900,115.900,32.090,1637.000,371.300,104.000,27.520,276.100,123.400,26.030,8.545,402.800,135.500,40.880,13.860,baseline
1450.000,379.900,114.800,31.890,1632.000,370.100,103.800,27.470,276.300,122.500,25.930,8.516,401.100,135.000,40.800,13.830,baseline
1450.000,379.800,114.600,31.830,1633.000,370.800,103.700,27.510,275.000,122.500,25.890,8.518,401.400,135.000,40.760,13.850,baseline
1452.000,380.200,114.900,31.870,1635.000,371.200,104.000,27.530,276.700,122.800,25.950,8.508,401.600,135.100,40.710,13.840,baseline
1450.000,382.200,114.500,31.730,1629.000,370.300,103.900,27.470,276.200,122.500,25.880,8.512,401.000,134.800,40.670,13.810,baseline
1449.000,378.800,114.500,31.860,1628.000,369.800,103.500,27.540,275.900,122.900,25.880,8.510,400.700,134.900,40.640,13.820,baseline
1451.000,379.700,114.900,31.940,1633.000,371.400,103.900,27.550,275.000,122.800,25.880,8.518,401.000,135.000,40.760,13.870,baseline
1456.000,380.500,115.200,32.050,1633.000,370.800,104.000,27.550,275.800,122.600,25.910,8.530,401.900,135.400,40.910,13.910,baseline
1459.000,381.300,115.600,32.070,1630.000,371.200,103.900,27.590,276.000,122.900,25.930,8.532,402.900,135.700,40.880,13.940,baseline
1461.000,383.000,115.500,32.260,1635.000,372.300,104.000,27.610,274.400,122.800,25.930,8.555,403.200,135.700,40.960,13.960,baseline
1463.000,383.300,115.900,32.310,1637.000,371.300,104.000,27.610,274.300,122.600,25.950,8.556,404.000,135.900,41.070,14.000,baseline
1468.000,385.400,116.600,32.530,1637.000,372.000,104.100,27.650,277.300,123.500,26.030,8.554,404.700,136.200,41.170,14.060,baseline
1470.000,385.700,115.900,32.270,1638.000,372.300,103.800,27.470,275.300,122.700,25.990,8.556,402.900,135.500,40.830,13.850,baseline
1449.000,379.200,114.300,31.770,1630.000,370.400,103.300,27.450,275.100,122.800,25.870,8.514,400.500,134.700,40.530,13.770,baseline
1445.000,378.400,114.200,31.700,1625.000,370.500,103.400,27.410,276.300,122.200,25.860,8.495,400.200,134.400,40.450,13.760,baseline
1442.000,378.300,113.600,31.630,1625.000,369.500,103.400,27.430,274.900,122.600,25.870,8.501,399.600,134.300,40.420,13.720,baseline
1444.000,378.300,113.900,31.610,1630.000,369.100,103.500,27.400,275.400,122.200,25.880,8.499,399.300,134.200,40.340,13.680,baseline
1442.000,376.100,113.500,31.620,1627.000,369.700,103.300,27.370,275.100,122.300,25.810,8.493,398.700,134.200,40.320,13.710,baseline
1443.000,377.200,114.000,31.700,1629.000,369.400,103.300,27.410,275.800,122.100,25.850,8.491,398.600,134.300,40.360,13.740,baseline
1446.000,377.800,114.200,31.720,1625.000,369.700,103.200,27.440,275.400,122.600,25.890,8.495,400.000,134.500,40.470,13.760,baseline
1447.000,378.300,114.600,31.850,1627.000,370.100,103.600,27.460,276.200,122.400,25.860,8.515,400.600,134.700,40.500,13.780,baseline
1449.000,378.500,114.300,31.930,1624.000,369.500,103.500,27.460,274.500,122.500,25.870,8.531,400.800,134.900,40.630,13.830,baseline
1452.000,379.600,115.100,32.030,1628.000,369.800,103.900,27.480,274.700,122.700,25.930,8.555,401.700,134.900,40.800,13.860,baseline
1455.000,381.100,115.200,32.050,1628.000,369.700,103.700,27.490,276.700,122.700,25.980,8.565,402.900,135.400,40.920,13.950,baseline
1459.000,381.800,115.400,32.220,1631.000,370.200,103.600,27.560,276.700,122.900,26.030,8.574,403.500,135.800,41.050,13.970,baseline
1464.000,384.500,115.900,32.330,1630.000,371.300,104.100,27.620,276.100,123.200,26.080,8.573,404.300,136.400,41.150,14.030,baseline
1467.000,385.100,116.500,32.510,1631.000,371.400,104.100,27.690,277.800,123.400,26.120,8.610,405.800,136.700,41.260,14.110,baseline
1473.000,386.200,117.300,32.640,1638.000,372.300,104.300,27.690,277.600,123.600,26.200,8.632,406.100,136.900,41.260,14.060,baseline
1464.000,382.500,115.300,32.000,1629.000,370.100,103.500,27.470,276.700,123.600,26.070,8.596,402.900,135.800,40.840,13.870,baseline
1448.000,378.900,114.600,31.830,1623.000,370.500,103.300,27.400,277.500,123.200,26.010,8.568,402.600,135.200,40.720,13.820,baseline
1447.000,377.200,114.500,31.730,1626.000,369.600,103.300,27.420,277.600,123.000,26.050,8.554,402.000,135.100,40.640,13.800,baseline
1446.000,379.300,114.100,31.730,1624.000,369.500,103.400,27.370,275.500,122.900,26.010,8.573,401.700,135.100,40.630,13.780,baseline
1446.000,378.700,114.000,31.770,1625.000,369.200,103.200,27.390,275.100,122.900,26.000,8.550,401.000,134.700,40.560,13.810,baseline
1445.000,376.800,114.100,31.680,1624.000,368.600,103.200,27.400,275.700,122.500,26.020,8.571,402.100,134.900,40.720,13.810,baseline
1447.000,379.900,114.500,31.780,1624.000,369.300,103.300,27.390,274.000,122.900,26.020,8.575,402.100,135.100,40.680,13.840,baseline
1449.000,380.100,114.700,31.990,1627.000,369.100,103.600,27.460,275.100,123.000,26.050,8.565,403.100,135.400,40.840,13.880,baseline
1451.000,380.200,115.100,31.920,1632.000,370.000,103.400,27.460,278.300,123.000,26.010,8.571,402.700,135.500,40.880,13.910,baseline
1455.000,380.800,114.900,31.990,1627.000,370.400,103.600,27.480,276.300,123.500,26.070,8.580,403.300,135.900,40.930,13.960,baseline
1456.000,382.700,115.400,32.110,1628.000,370.200,103.600,27.430,277.000,123.400,26.070,8.590,404.100,135.900,41.100,13.990,baseline
1459.000,382.300,115.900,32.260,1628.000,370.500,103.700,27.520,276.600,123.400,26.160,8.594,405.100,136.300,41.200,14.030,baseline
1463.000,383.900,115.800,32.370,1632.000,371.000,103.900,27.560,278.400,123.600,26.160,8.620,405.600,136.700,41.280,14.080,baseline
1466.000,384.500,116.300,32.590,1631.000,371.300,104.300,27.640,276.500,123.400,26.140,8.616,406.200,137.200,41.410,14.130,baseline
1471.000,386.600,116.900,32.720,1635.000,372.400,104.300,27.660,278.000,123.700,26.200,8.645,407.400,137.700,41.570,14.190,baseline
1475.000,386.300,117.000,32.530,1632.000,371.700,104.100,27.510,277.600,123.400,26.190,8.634,405.800,136.800,41.200,14.040,baseline
1457.000,382.400,115.200,32.080,1628.000,370.200,103.400,27.380,275.900,123.300,26.110,8.590,405.200,136.500,41.120,13.990,baseline
1455.000,381.100,115.200,32.130,1625.000,370.100,103.700,27.480,276.300,123.300,26.010,8.596,404.900,136.100,41.080,13.970,baseline
1456.000,381.600,115.300,32.130,1629.000,369.900,103.600,27.520,275.300,123.200,26.050,8.603,404.900,136.400,41.180,14.030,baseline
1457.000,381.800,115.300,32.110,1628.000,369.800,103.700,27.480,278.800,123.400,26.060,8.591,404.400,136.200,41.170,13.990,baseline
1454.000,382.100,115.500,32.070,1628.000,370.100,103.800,27.520,274.900,123.400,26.020,8.584,405.100,136.500,41.130,14.010,baseline
1458.000,380.300,115.300,32.110,1628.000,370.200,103.500,27.560,277.800,123.300,26.090,8.595,405.300,136.900,41.240,14.040,baseline
1460.000,382.500,115.800,32.350,1630.000,371.400,103.800,27.560,277.100,123.400,26.100,8.587,406.100,136.900,41.350,14.130,baseline
1465.000,384.900,116.300,32.440,1632.000,371.600,104.100,27.640,278.300,123.900,26.130,8.594,406.900,137.200,41.460,14.130,baseline
1466.000,384.100,116.600,32.470,1632.000,371.700,104.000,27.650,277.800,123.200,26.100,8.597,407.100,137.300,41.490,14.180,baseline
1468.000,385.800,116.700,32.630,1634.000,371.800,104.000,27.640,277.700,123.100,26.070,8.613,407.400,137.600,41.580,14.190,baseline
1472.000,387.400,117.100,32.640,1636.000,372.400,104.300,27.640,277.800,123.500,26.170,8.592,408.700,138.000,41.810,14.260,baseline
1475.000,387.900,117.400,32.930,1639.000,372.500,104.400,27.660,277.000,123.400,26.180,8.607,409.500,138.100,41.790,14.230,baseline
1457.000,382.700,115.600,32.160,1633.000,370.800,103.600,27.480,276.400,122.900,25.980,8.550,405.000,136.900,41.270,14.070,easy
1456.000,381.700,115.400,32.100,1628.000,370.400,103.400,27.490,275.200,123.000,25.940,8.549,405.000,136.800,41.230,14.100,easy
1457.000,383.400,115.700,32.160,1627.000,370.700,103.500,27.460,275.500,122.700,25.950,8.533,405.400,136.700,41.330,14.110,easy
1459.000,382.900,115.900,32.240,1629.000,370.500,103.900,27.460,276.100,122.700,25.930,8.554,405.400,136.900,41.400,14.140,easy
1461.000,383.200,116.100,32.350,1627.000,370.700,103.800,27.580,275.200,122.900,25.950,8.558,406.100,137.300,41.460,14.170,easy
1465.000,384.900,116.600,32.400,1632.000,371.000,104.100,27.590,276.000,122.900,25.990,8.556,406.700,137.300,41.550,14.200,easy
1467.000,384.400,116.800,32.590,1633.000,370.600,104.000,27.570,277.000,123.100,25.970,8.554,407.200,137.700,41.620,14.240,easy
1470.000,385.900,116.900,32.650,1632.000,371.900,104.000,27.630,275.500,122.700,25.960,8.564,407.700,137.700,41.790,14.260,easy
1473.000,385.900,117.000,32.760,1635.000,371.600,104.000,27.620,276.300,123.100,25.990,8.558,408.300,138.200,41.860,14.330,easy
1476.000,387.100,117.500,32.880,1637.000,372.700,104.200,27.730,276.200,122.900,25.990,8.564,409.100,138.600,41.930,14.360,easy
1481.000,389.700,118.100,33.050,1637.000,373.100,104.300,27.770,277.300,122.900,26.030,8.586,409.400,138.800,42.070,14.400,easy
1481.000,388.800,117.500,32.780,1636.000,371.000,104.100,27.590,277.400,123.200,26.010,8.565,408.100,137.900,41.650,14.220,easy
1460.000,381.000,115.500,32.250,1627.000,370.200,103.600,27.460,275.600,122.500,25.890,8.518,406.100,137.000,41.530,14.150,easy
1456.000,382.100,115.400,32.260,1630.000,370.700,103.600,27.440,274.600,122.400,25.840,8.514,404.800,136.900,41.410,14.130,easy
1453.000,381.700,115.200,32.140,1628.000,370.000,103.200,27.450,273.600,122.100,25.770,8.505,404.200,136.500,41.360,14.090,easy
1454.000,381.000,115.500,32.130,1627.000,369.600,103.500,27.440,275.600,122.400,25.850,8.482,404.100,136.500,41.200,14.060,easy
1452.000,380.200,115.100,32.060,1623.000,369.600,103.400,27.380,274.800,122.000,25.760,8.481,403.100,136.200,41.260,14.070,easy
1454.000,380.400,115.300,32.210,1623.000,370.100,103.500,27.400,274.400,121.600,25.730,8.477,403.200,136.200,41.310,14.100,easy
1457.000,382.200,115.700,32.250,1630.000,369.800,103.500,27.470,273.900,121.900,25.770,8.479,403.600,136.900,41.330,14.130,easy
1459.000,382.200,116.100,32.270,1627.000,369.300,103.500,27.430,275.600,121.900,25.800,8.494,404.000,136.700,41.410,14.150,easy
1460.000,382.600,115.800,32.360,1630.000,369.200,103.400,27.480,272.200,121.800,25.790,8.473,404.400,137.000,41.470,14.180,easy
1462.000,383.900,116.000,32.530,1627.000,369.300,103.700,27.440,275.200,122.000,25.750,8.486,405.200,137.000,41.520,14.200,easy
1466.000,384.900,116.800,32.610,1633.000,370.500,103.900,27.500,273.300,121.800,25.800,8.492,405.800,137.400,41.600,14.240,easy
1469.000,386.000,116.800,32.720,1629.000,370.300,103.900,27.590,272.400,122.100,25.790,8.483,405.900,137.500,41.740,14.260,easy
1473.000,387.000,117.700,32.840,1632.000,371.100,104.100,27.590,272.500,122.100,25.830,8.493,406.400,137.900,41.890,14.340,easy
1477.000,387.500,117.800,32.950,1634.000,371.100,104.100,27.610,276.200,122.200,25.900,8.517,408.200,138.000,41.920,14.370,easy
1481.000,390.100,118.400,33.170,1638.000,371.800,104.200,27.690,275.000,122.300,25.900,8.525,408.800,138.400,41.990,14.390,easy
1482.000,387.300,117.400,32.790,1631.000,370.400,103.800,27.440,274.200,122.400,25.840,8.486,406.100,137.500,41.590,14.200,easy
1459.000,382.500,115.700,32.380,1629.000,370.000,103.400,27.350,274.400,121.900,25.740,8.494,404.800,136.800,41.380,14.180,easy
1456.000,381.500,115.800,32.330,1622.000,369.500,103.500,27.340,275.100,122.000,25.810,8.496,404.100,136.600,41.320,14.140,easy
1455.000,381.300,115.600,32.280,1624.000,369.800,103.300,27.370,273.800,121.800,25.740,8.476,403.100,136.600,41.280,14.120,easy
1455.000,380.700,115.300,32.170,1625.000,369.300,103.100,27.290,273.600,121.900,25.710,8.477,402.700,136.400,41.200,14.080,easy
1453.000,382.000,115.100,32.120,1625.000,368.700,103.200,27.310,273.200,121.800,25.690,8.452,402.500,135.900,41.250,14.060,easy
1455.000,381.400,115.400,32.250,1622.000,368.900,103.300,27.390,273.700,122.000,25.690,8.452,403.200,136.200,41.270,14.080,easy
1457.000,383.200,115.800,32.270,1628.000,369.000,103.400,27.360,272.900,121.600,25.670,8.453,403.100,136.400,41.280,14.110,easy
1459.000,383.400,115.900,32.350,1625.000,368.900,103.400,27.420,274.800,121.700,25.690,8.457,402.700,136.300,41.260,14.110,easy
1461.000,384.000,116.100,32.380,1626.000,369.400,103.500,27.410,272.200,121.700,25.720,8.463,402.900,136.400,41.320,14.140,easy
1463.000,384.000,116.800,32.530,1624.000,370.500,103.500,27.400,272.700,121.600,25.660,8.473,403.700,136.700,41.420,14.150,easy
1465.000,384.100,116.700,32.600,1630.000,369.400,103.500,27.430,275.200,121.400,25.740,8.471,404.300,136.900,41.440,14.210,easy
1468.000,385.000,117.000,32.680,1629.000,369.800,103.400,27.440,273.600,121.900,25.710,8.472,404.700,137.200,41.530,14.260,easy
1472.000,385.800,117.300,32.850,1628.000,370.100,104.000,27.490,274.300,121.800,25.770,8.497,405.100,137.200,41.630,14.270,easy
1470.000,384.400,116.300,32.490,1628.000,368.500,103.300,27.300,275.500,121.900,25.730,8.466,404.100,136.300,41.290,14.090,easy
1454.000,381.500,115.400,32.170,1622.000,368.600,103.100,27.290,275.000,121.400,25.610,8.437,402.200,136.000,41.120,14.030,easy
1453.000,381.000,115.400,32.200,1623.000,368.600,103.100,27.320,271.800,121.200,25.640,8.444,401.700,135.800,41.150,14.020,easy
1454.000,382.400,115.600,32.150,1625.000,367.800,103.000,27.290,273.400,121.500,25.700,8.428,402.000,135.800,41.060,13.990,easy
1452.000,380.800,115.300,32.140,1622.000,368.500,103.000,27.280,273.600,121.600,25.640,8.430,400.700,135.600,41.010,13.980,easy
1452.000,380.900,115.400,32.210,1619.000,367.300,103.100,27.280,272.200,121.400,25.660,8.423,401.800,135.600,40.980,13.990,easy
1455.000,381.400,115.200,32.200,1624.000,369.000,102.900,27.290,273.800,121.300,25.680,8.446,402.400,135.900,41.080,14.040,easy
1457.000,382.200,115.600,32.310,1621.000,368.300,103.300,27.370,273.500,121.500,25.700,8.464,402.800,136.000,41.250,14.070,easy
1461.000,384.100,116.300,32.400,1627.000,369.200,103.300,27.340,273.400,121.600,25.710,8.464,403.000,136.000,41.260,14.100,easy
1463.000,383.000,116.500,32.570,1621.000,369.400,103.400,27.340,273.600,121.700,25.770,8.477,403.800,136.300,41.360,14.130,easy
1464.000,383.800,116.500,32.660,1624.000,370.300,103.200,27.370,274.100,121.800,25.810,8.477,403.700,136.600,41.370,14.170,easy
1468.000,384.900,117.000,32.700,1623.000,369.800,103.600,27.390,273.200,122.100,25.810,8.507,405.100,137.100,41.520,14.220,easy
1472.000,386.800,117.400,32.850,1627.000,370.500,103.800,27.470,274.900,122.000,25.850,8.513,405.400,137.200,41.620,14.230,easy
1472.000,386.800,116.800,32.520,1626.000,369.200,103.200,27.300,273.900,122.200,25.830,8.495,403.700,136.300,41.250,14.050,easy
1452.000,381.300,115.200,32.210,1618.000,368.100,102.900,27.210,274.400,121.600,25.690,8.465,402.500,135.400,40.960,14.010,easy
1450.000,380.800,115.000,32.000,1619.000,367.500,102.800,27.190,273.100,121.500,25.720,8.464,401.400,135.500,40.880,13.950,easy
1448.000,379.400,115.000,31.960,1624.000,367.100,102.700,27.160,272.500,121.400,25.700,8.445,401.500,135.400,40.960,13.930,easy
1447.000,380.300,114.500,31.900,1620.000,367.100,102.800,27.220,273.300,121.500,25.680,8.455,400.900,134.900,40.800,13.910,easy
1447.000,380.900,114.700,31.950,1619.000,367.900,102.800,27.180,272.800,121.300,25.670,8.436,400.700,135.100,40.720,13.930,easy
1448.000,377.900,114.800,31.920,1622.000,367.600,102.800,27.220,271.700,121.300,25.690,8.456,400.600,135.200,40.830,13.930,easy
1452.000,380.600,114.900,32.150,1622.000,368.200,102.900,27.280,272.300,121.300,25.690,8.469,401.200,135.300,40.890,13.940,easy
1454.000,381.800,115.500,32.160,1618.000,368.100,103.100,27.290,270.900,121.600,25.760,8.478,401.500,135.600,40.960,14.020,easy
1456.000,381.300,115.300,32.200,1624.000,369.000,103.100,27.280,273.300,121.800,25.730,8.489,402.400,135.800,41.050,14.040,easy
1459.000,383.600,115.700,32.310,1621.000,368.900,103.200,27.310,274.100,121.800,25.770,8.491,402.900,136.000,41.120,14.060,easy
1460.000,384.200,116.000,32.430,1626.000,368.900,103.300,27.300,272.200,121.900,25.810,8.520,403.400,136.300,41.120,14.100,easy
1464.000,384.100,116.400,32.580,1627.000,368.800,103.600,27.420,274.900,122.200,25.850,8.518,404.100,136.500,41.370,14.130,easy
1468.000,386.000,116.700,32.660,1627.000,370.000,103.400,27.450,275.000,122.000,25.860,8.538,404.600,136.800,41.450,14.180,easy
1471.000,387.600,117.000,32.800,1627.000,369.400,103.800,27.480,275.100,122.800,25.930,8.551,405.400,137.200,41.490,14.220,easy
1473.000,385.800,117.000,32.510,1628.000,368.600,103.100,27.270,275.800,122.600,25.940,8.549,403.700,136.100,41.180,14.020,easy
1452.000,380.800,114.900,32.040,1626.000,367.800,102.900,27.240,274.300,122.000,25.830,8.497,402.100,135.800,40.990,13.970,easy
1451.000,379.800,115.100,32.010,1618.000,368.100,102.800,27.260,273.000,122.000,25.810,8.511,401.200,135.600,40.900,13.950,easy
1449.000,380.300,115.000,31.950,1622.000,368.000,102.800,27.240,275.100,122.100,25.830,8.506,401.600,135.400,40.950,13.960,easy
1450.000,380.000,114.700,31.970,1618.000,367.500,103.000,27.220,275.200,122.100,25.850,8.506,401.200,135.100,40.950,13.940,easy
1448.000,379.500,115.000,31.920,1617.000,368.000,102.900,27.190,273.200,122.100,25.810,8.526,400.800,135.400,40.830,13.950,easy
1450.000,379.400,114.800,32.030,1621.000,368.400,103.000,27.260,273.600,121.900,25.870,8.519,400.700,135.400,40.950,13.970,easy
1452.000,380.000,115.200,32.100,1618.000,367.900,103.200,27.230,275.000,122.300,25.880,8.528,401.900,135.600,41.000,13.980,easy
1456.000,381.100,115.400,32.210,1619.000,368.800,103.200,27.340,275.600,122.300,25.920,8.543,402.200,135.600,41.060,14.030,easy
1457.000,382.600,115.600,32.210,1626.000,368.100,103.200,27.330,273.100,122.500,25.880,8.552,402.300,135.900,41.110,14.030,easy
1458.000,382.500,115.800,32.260,1623.000,368.300,103.200,27.370,274.900,122.500,25.910,8.537,402.900,136.000,41.150,14.070,easy
1461.000,382.900,116.000,32.380,1626.000,369.100,103.400,27.410,276.400,122.300,25.990,8.560,403.500,136.300,41.220,14.100,easy
1465.000,385.000,116.400,32.510,1630.000,370.100,103.500,27.400,273.600,122.500,25.950,8.558,404.200,136.400,41.180,14.080,easy
1455.000,380.400,115.100,31.990,1625.000,367.500,102.900,27.240,275.000,122.500,25.900,8.522,401.000,135.200,40.900,13.920,easy
1446.000,378.900,114.600,31.840,1617.000,367.500,102.900,27.220,273.600,121.900,25.850,8.536,400.300,135.000,40.710,13.890,easy
1447.000,378.700,114.300,31.820,1618.000,368.300,103.000,27.240,274.400,122.200,25.870,8.516,400.100,135.000,40.720,13.890,easy
1448.000,378.900,114.400,31.820,1619.000,367.100,102.800,27.220,275.600,122.200,25.820,8.530,399.600,134.800,40.710,13.860,easy
1446.000,377.200,114.200,31.750,1617.000,367.600,103.000,27.190,273.800,122.200,25.890,8.530,399.900,134.800,40.670,13.850,easy
1446.000,378.500,114.500,31.890,1616.000,367.600,102.900,27.250,274.800,122.100,25.930,8.530,399.700,134.700,40.750,13.890,easy
1448.000,379.300,114.800,32.010,1622.000,367.400,102.900,27.230,274.100,121.800,25.890,8.532,400.400,134.900,40.740,13.910,easy
1452.000,379.900,115.300,32.000,1622.000,367.500,103.200,27.340,275.300,122.100,25.940,8.534,401.300,135.300,40.810,13.940,easy
1455.000,380.700,115.200,32.080,1621.000,368.100,103.200,27.350,274.300,122.300,25.980,8.550,401.500,135.400,40.880,13.980,easy
1457.000,382.700,115.800,32.210,1622.000,368.300,103.300,27.350,275.600,122.500,25.980,8.573,401.800,135.500,41.000,14.030,easy
1459.000,383.200,116.000,32.270,1622.000,369.100,103.400,27.380,274.300,122.700,25.960,8.582,402.500,136.100,41.080,14.050,easy
1462.000,384.300,116.300,32.410,1626.000,370.700,103.400,27.420,274.100,122.500,26.060,8.593,403.100,136.400,41.270,14.100,easy
1467.000,384.200,116.700,32.540,1627.000,370.100,103.700,27.540,274.500,122.900,26.040,8.595,404.500,136.200,41.310,14.090,easy
1459.000,382.300,115.400,32.080,1620.000,368.800,103.000,27.280,275.000,122.400,26.000,8.571,401.100,135.300,40.760,13.930,easy
1446.000,377.900,114.500,31.690,1620.000,368.100,103.100,27.320,273.800,122.300,25.880,8.544,399.400,134.800,40.560,13.880,easy
1443.000,377.900,113.900,31.630,1620.000,367.100,103.100,27.220,275.100,122.200,25.910,8.553,398.900,134.600,40.550,13.820,easy
1443.000,378.500,114.200,31.690,1617.000,367.500,103.000,27.240,272.300,122.100,25.880,8.532,398.400,134.500,40.480,13.800,easy
1443.000,376.700,114.100,31.690,1616.000,367.600,102.700,27.230,275.000,122.200,25.860,8.530,399.100,134.200,40.450,13.800,easy
1441.000,376.900,113.800,31.660,1619.000,367.400,103.000,27.240,273.800,121.900,25.870,8.524,399.000,134.200,40.490,13.830,easy
1443.000,378.000,114.400,31.700,1621.000,367.100,103.100,27.300,274.700,122.200,25.920,8.541,398.500,134.500,40.590,13.840,easy
1446.000,378.600,114.500,31.800,1621.000,367.800,103.200,27.320,275.100,122.600,25.910,8.542,398.700,134.400,40.620,13.870,easy
1449.000,379.800,114.700,31.890,1623.000,368.400,103.300,27.380,274.300,122.500,25.970,8.548,399.700,134.700,40.700,13.890,easy
1451.000,381.000,115.100,31.990,1619.000,367.400,103.200,27.390,275.500,122.500,25.930,8.575,400.000,134.800,40.720,13.900,easy
1454.000,380.600,115.500,32.090,1624.000,368.800,103.400,27.380,276.900,122.500,26.020,8.568,400.900,135.000,40.840,13.980,easy
1457.000,381.800,115.500,32.210,1622.000,369.500,103.500,27.530,275.200,122.700,26.010,8.585,401.500,135.400,40.950,14.010,easy
1461.000,384.400,116.000,32.380,1624.000,369.400,103.600,27.490,275.700,122.900,26.050,8.599,402.700,135.600,41.030,14.050,easy
1463.000,382.600,116.400,32.410,1624.000,370.700,103.800,27.560,276.400,123.000,26.120,8.612,403.500,136.000,41.240,14.110,easy
1468.000,385.300,117.200,32.610,1623.000,370.300,103.900,27.610,275.700,122.800,26.120,8.628,403.700,136.200,41.260,14.160,easy
1470.000,385.500,116.200,32.310,1626.000,369.300,103.600,27.420,275.000,123.100,26.120,8.617,401.800,135.500,40.870,13.950,easy
1449.000,380.400,114.400,31.930,1618.000,368.400,103.300,27.380,274.000,122.900,26.010,8.569,400.200,135.200,40.710,13.910,easy
1447.000,379.000,114.700,31.790,1622.000,368.500,103.500,27.360,274.700,122.500,25.990,8.577,399.700,134.700,40.680,13.900,easy
1448.000,380.000,115.100,31.910,1622.000,368.600,103.400,27.400,275.900,122.900,25.970,8.561,400.000,134.800,40.780,13.900,easy
1448.000,379.600,114.500,31.820,1621.000,368.400,103.400,27.400,275.800,122.500,25.970,8.569,400.100,134.600,40.680,13.860,easy
1447.000,379.900,114.300,31.840,1620.000,368.200,103.400,27.380,274.800,122.900,25.980,8.558,399.300,134.500,40.570,13.910,easy
1448.000,379.400,114.600,31.830,1621.000,369.100,103.300,27.420,274.600,122.600,25.960,8.565,399.400,135.000,40.680,13.930,easy
1452.000,380.400,115.100,32.020,1625.000,370.000,103.500,27.460,273.700,122.800,25.960,8.574,400.300,134.900,40.820,13.950,easy
1455.000,380.500,115.400,32.030,1623.000,369.700,103.500,27.540,275.200,122.400,26.060,8.573,401.200,135.200,40.820,13.980,easy
1456.000,381.800,115.500,32.110,1622.000,369.900,103.700,27.510,275.600,123.300,26.080,8.596,401.100,135.400,40.880,13.980,easy
1459.000,384.000,115.500,32.260,1625.000,369.300,103.700,27.460,275.900,123.200,26.050,8.594,401.500,135.400,41.010,14.040,easy
1463.000,383.200,116.000,32.380,1628.000,370.600,104.000,27.640,277.500,122.900,26.060,8.586,402.700,136.000,41.170,14.040,easy
1464.000,383.000,115.800,32.160,1624.000,370.000,103.700,27.420,275.600,123.100,26.030,8.589,400.900,134.900,40.810,13.940,easy
1448.000,380.400,114.400,31.820,1617.000,367.700,103.500,27.440,274.500,122.800,25.970,8.562,399.200,134.500,40.600,13.870,easy
1447.000,378.900,113.900,31.790,1619.000,368.400,103.300,27.350,275.300,122.400,25.980,8.550,399.500,134.200,40.560,13.840,easy
1447.000,380.300,114.400,31.770,1619.000,368.600,103.300,27.430,275.600,122.500,25.920,8.542,398.800,134.400,40.520,13.870,easy
1446.000,379.100,114.600,31.700,1623.000,368.000,103.400,27.400,274.800,122.600,25.940,8.551,399.100,134.100,40.430,13.810,easy
1444.000,378.300,114.400,31.650,1622.000,368.500,103.500,27.440,274.800,122.400,25.950,8.534,398.600,134.200,40.540,13.840,easy
1446.000,379.400,114.300,31.750,1620.000,368.500,103.300,27.460,274.300,122.500,25.950,8.543,398.600,134.400,40.560,13.860,easy
1450.000,380.000,114.400,31.960,1623.000,368.800,103.400,27.460,275.700,122.400,25.960,8.562,399.700,134.600,40.690,13.880,easy
1452.000,380.400,115.100,31.970,1626.000,368.500,103.600,27.500,274.800,122.800,25.980,8.567,400.200,134.800,40.700,13.910,easy
1455.000,381.700,114.900,32.070,1625.000,369.400,103.500,27.520,276.400,122.800,26.040,8.594,400.500,134.900,40.750,13.940,easy
1457.000,381.100,115.100,32.170,1625.000,370.000,103.900,27.540,275.400,123.100,26.010,8.586,400.600,135.300,40.850,13.960,easy
1460.000,382.600,115.800,32.270,1627.000,369.500,104.100,27.600,274.600,123.400,26.100,8.586,401.300,135.400,40.900,14.040,easy
1463.000,384.700,116.000,32.320,1629.000,370.600,104.200,27.700,276.600,123.100,26.080,8.607,402.600,135.800,41.060,14.060,easy
1462.000,382.700,115.100,32.020,1620.000,368.800,103.700,27.460,274.800,123.300,26.070,8.578,400.300,134.700,40.600,13.870,easy
1444.000,377.400,114.400,31.650,1620.000,367.800,103.400,27.390,275.400,122.800,25.970,8.553,399.000,134.100,40.450,13.760,easy
1441.000,377.800,113.500,31.630,1617.000,367.900,103.200,27.360,275.400,122.400,25.940,8.548,398.000,133.700,40.290,13.740,easy
1439.000,377.300,113.500,31.500,1621.000,367.700,103.200,27.430,274.300,122.300,25.980,8.546,397.400,133.800,40.270,13.730,easy
1437.000,376.100,113.500,31.430,1618.000,367.600,103.200,27.360,274.000,122.500,25.920,8.560,397.000,133.300,40.180,13.700,easy
1436.000,376.200,113.500,31.390,1619.000,367.500,103.200,27.360,275.100,122.800,25.930,8.536,396.800,133.600,40.180,13.730,easy
1439.000,376.700,113.600,31.480,1616.000,367.300,103.400,27.440,274.300,122.500,25.960,8.545,397.400,133.800,40.330,13.730,easy
1441.000,376.800,113.800,31.610,1615.000,367.700,103.300,27.380,274.300,122.500,25.980,8.552,396.900,133.800,40.340,13.730,easy
1442.000,377.100,113.900,31.650,1617.000,368.000,103.300,27.420,274.400,122.900,26.010,8.576,397.600,133.800,40.450,13.780,easy
1444.000,378.700,114.000,31.660,1616.000,368.200,103.700,27.490,275.700,122.600,25.990,8.576,397.900,133.900,40.440,13.830,easy
1446.000,378.900,114.100,31.750,1621.000,368.500,103.600,27.500,274.100,123.000,26.010,8.585,398.800,134.200,40.560,13.840,easy
1449.000,379.000,114.600,31.900,1619.000,368.400,103.900,27.530,274.200,122.700,26.050,8.606,398.700,134.500,40.590,13.880,easy
1452.000,380.400,115.100,31.940,1623.000,369.000,103.800,27.600,275.800,123.100,26.110,8.615,400.100,134.600,40.670,13.890,easy
1454.000,382.000,115.700,32.080,1623.000,370.100,104.000,27.630,276.300,123.100,26.060,8.638,401.100,135.000,40.830,13.950,easy
1458.000,382.900,115.400,32.160,1626.000,370.300,104.300,27.730,276.400,123.300,26.190,8.641,401.500,135.300,40.920,13.990,easy
1462.000,383.000,116.000,32.350,1625.000,370.700,104.400,27.770,275.900,123.500,26.170,8.650,402.400,135.700,40.930,14.030,easy
1460.000,380.700,115.200,31.940,1622.000,370.100,103.700,27.530,275.900,123.300,26.120,8.607,399.800,134.600,40.540,13.800,easy
1442.000,377.700,113.900,31.620,1618.000,368.800,103.700,27.500,276.700,122.600,26.100,8.591,398.300,133.900,40.360,13.750,easy
1440.000,376.800,113.800,31.500,1623.000,369.400,103.500,27.490,274.700,122.800,26.040,8.584,397.800,133.800,40.330,13.720,easy
1438.000,375.900,113.500,31.540,1616.000,368.500,103.700,27.510,275.900,122.900,26.050,8.587,397.500,133.700,40.330,13.700,easy
1438.000,374.900,113.100,31.420,1619.000,368.000,103.600,27.440,273.000,122.700,26.040,8.580,397.000,133.400,40.180,13.690,easy
1437.000,376.200,113.300,31.410,1618.000,368.400,103.300,27.490,275.900,122.700,26.010,8.590,396.500,133.400,40.230,13.670,easy
1439.000,377.500,113.700,31.520,1620.000,368.700,103.700,27.490,275.300,122.900,26.020,8.591,397.800,133.800,40.300,13.710,easy
1440.000,377.700,113.500,31.600,1619.000,368.000,103.800,27.530,275.400,122.600,26.060,8.601,398.100,133.800,40.320,13.730,easy
1442.000,378.000,114.000,31.580,1622.000,369.000,103.800,27.600,275.000,122.700,26.060,8.594,397.700,134.000,40.350,13.770,easy
1444.000,377.600,114.000,31.670,1622.000,368.700,103.700,27.590,276.800,123.200,26.090,8.609,398.100,134.100,40.400,13.800,easy
1446.000,378.000,114.100,31.720,1622.000,369.400,104.100,27.620,277.000,123.300,26.080,8.604,397.600,134.300,40.460,13.820,easy
1448.000,379.700,114.500,31.710,1624.000,369.800,103.900,27.640,276.200,122.900,26.100,8.627,399.500,134.500,40.590,13.840,easy
1451.000,379.500,115.200,31.960,1624.000,370.100,104.200,27.690,277.100,123.100,26.100,8.627,399.900,134.600,40.580,13.900,easy
1455.000,381.900,115.300,32.110,1622.000,371.400,104.300,27.830,275.600,123.200,26.170,8.628,400.600,135.100,40.720,13.920,easy
1455.000,381.600,114.800,31.840,1624.000,369.500,104.000,27.570,276.900,123.500,26.160,8.633,399.000,134.200,40.380,13.750,easy
1441.000,377.000,113.500,31.570,1620.000,368.900,104.000,27.630,276.800,123.100,26.150,8.606,397.600,133.800,40.280,13.770,easy
1441.000,377.800,113.400,31.510,1623.000,368.800,103.900,27.630,276.200,123.100,26.120,8.606,397.800,133.600,40.170,13.730,easy
1441.000,379.400,113.300,31.690,1620.000,369.000,103.900,27.620,275.400,123.000,26.090,8.621,397.800,133.700,40.230,13.710,easy
1440.000,376.600,113.500,31.520,1624.000,369.200,104.000,27.650,275.300,123.100,26.100,8.618,397.400,133.500,40.240,13.730,easy
1440.000,377.800,113.500,31.630,1620.000,368.300,103.900,27.650,275.900,122.800,26.110,8.627,397.500,133.700,40.220,13.720,easy
1442.000,379.200,113.600,31.630,1622.000,370.000,104.100,27.710,273.600,123.500,26.140,8.621,397.800,133.800,40.300,13.760,easy
1445.000,379.100,114.300,31.780,1623.000,370.100,104.200,27.710,277.100,123.500,26.120,8.647,398.400,134.200,40.420,13.800,easy
1448.000,378.400,114.900,31.880,1627.000,370.000,104.100,27.830,277.600,123.500,26.150,8.645,399.500,134.500,40.460,13.820,easy
1449.000,380.500,114.800,31.900,1627.000,370.500,104.200,27.780,274.500,123.400,26.150,8.659,399.400,134.500,40.560,13.860,easy
1451.000,380.800,115.400,32.070,1627.000,370.800,104.600,27.860,278.200,123.600,26.200,8.680,400.500,134.900,40.560,13.920,easy
1455.000,381.100,115.400,32.160,1628.000,370.900,104.600,27.890,277.400,123.800,26.200,8.679,400.800,135.400,40.810,13.960,easy
1459.000,383.900,115.800,32.240,1630.000,371.800,104.900,27.920,276.900,124.200,26.280,8.678,401.500,135.500,40.820,13.910,easy
1455.000,379.200,114.900,31.900,1628.000,369.600,104.300,27.700,277.000,123.900,26.240,8.664,399.300,134.300,40.400,13.760,easy
1441.000,378.700,114.100,31.660,1622.000,369.900,104.100,27.720,276.700,123.300,26.150,8.642,398.200,133.800,40.270,13.730,easy
1441.000,377.500,113.900,31.600,1624.000,369.200,104.200,27.720,275.100,123.500,26.160,8.652,397.700,133.800,40.260,13.730,easy
1440.000,378.600,113.600,31.600,1624.000,370.000,104.000,27.730,275.100,123.700,26.160,8.637,397.900,133.600,40.260,13.680,easy
1440.000,376.700,113.700,31.540,1622.000,368.700,104.100,27.690,276.000,123.400,26.170,8.637,396.800,133.600,40.240,13.710,easy
1439.000,377.700,113.800,31.560,1621.000,369.800,104.100,27.700,276.500,123.300,26.180,8.641,397.900,133.900,40.260,13.710,easy
1441.000,377.300,113.700,31.640,1625.000,369.100,104.300,27.730,275.800,123.400,26.190,8.649,397.900,133.800,40.340,13.760,easy
1444.000,378.000,114.200,31.790,1624.000,370.000,104.300,27.710,277.300,123.500,26.220,8.665,398.600,134.100,40.340,13.790,easy
1446.000,378.500,114.400,31.850,1624.000,370.500,104.400,27.850,275.900,123.500,26.230,8.662,399.000,134.300,40.410,13.780,easy
1448.000,381.000,114.600,31.860,1626.000,370.900,104.300,27.800,276.200,123.900,26.230,8.661,399.400,134.400,40.530,13.820,easy
1450.000,380.300,114.700,32.010,1629.000,370.800,104.500,27.860,276.800,123.500,26.220,8.665,400.800,134.800,40.660,13.870,easy
1453.000,381.400,115.500,32.100,1628.000,371.000,104.600,27.870,277.300,123.700,26.270,8.686,400.800,134.900,40.650,13.910,easy
1457.000,382.800,115.400,32.210,1628.000,371.000,104.600,27.900,276.700,123.900,26.310,8.698,401.800,135.500,40.840,13.960,easy
1461.000,382.600,115.900,32.280,1628.000,371.700,105.100,27.960,277.200,123.900,26.360,8.710,402.200,135.600,40.930,14.000,easy
1464.000,384.300,116.200,32.490,1631.000,372.000,104.900,28.020,278.500,124.100,26.350,8.717,402.800,135.700,41.010,14.040,easy
1468.000,386.600,117.100,32.650,1634.000,372.700,105.200,28.020,277.900,124.000,26.420,8.732,404.000,136.100,41.120,14.010,easy
1462.000,382.800,115.600,32.090,1631.000,371.600,104.500,27.790,276.700,124.400,26.290,8.703,400.700,134.900,40.650,13.850,easy
1449.000,379.700,114.700,31.940,1626.000,370.200,104.700,27.830,277.200,124.300,26.270,8.690,399.500,134.700,40.560,13.840,easy
1448.000,378.600,114.400,31.910,1625.000,371.300,104.500,27.790,277.900,123.600,26.280,8.665,399.100,134.300,40.530,13.820,easy
1448.000,379.200,114.500,31.870,1629.000,370.900,104.400,27.810,276.900,123.800,26.260,8.678,399.400,134.700,40.550,13.800,easy
1447.000,377.300,114.700,31.880,1626.000,370.900,104.300,27.780,279.500,123.500,26.200,8.660,398.800,134.200,40.450,13.750,easy
1446.000,378.400,114.900,31.920,1629.000,370.900,104.600,27.740,276.800,123.500,26.230,8.670,398.900,134.100,40.450,13.800,easy
1449.000,379.600,114.700,31.990,1628.000,370.500,104.500,27.780,277.600,123.500,26.210,8.675,399.900,134.600,40.530,13.820,easy
1452.000,379.900,115.300,32.100,1629.000,371.100,104.400,27.840,276.400,123.700,26.210,8.670,400.600,134.800,40.630,13.860,easy
1454.000,381.000,115.300,32.190,1628.000,371.800,104.700,27.890,276.500,123.500,26.230,8.657,400.600,134.800,40.580,13.890,easy
1455.000,382.400,115.300,32.220,1631.000,371.100,104.700,27.870,276.200,123.900,26.220,8.678,400.900,135.000,40.750,13.900,easy
1458.000,382.200,115.500,32.320,1631.000,371.700,104.700,27.930,276.400,123.600,26.270,8.683,401.300,135.400,40.840,13.950,easy
1461.000,384.200,116.200,32.430,1630.000,372.500,104.900,27.920,277.400,123.700,26.280,8.681,402.300,135.700,40.950,13.970,easy
1464.000,384.200,116.500,32.510,1635.000,371.700,105.000,27.950,277.700,124.100,26.280,8.693,402.800,136.000,40.980,14.040,easy
1467.000,385.900,117.200,32.680,1632.000,373.300,105.300,28.040,278.400,124.000,26.340,8.690,403.600,136.300,41.160,14.070,easy
1471.000,387.300,117.400,32.820,1640.000,373.800,105.200,28.000,279.200,124.200,26.410,8.708,404.100,136.300,41.130,14.020,easy
1465.000,383.700,116.100,32.380,1631.000,371.800,104.700,27.930,278.300,124.200,26.370,8.686,401.700,135.300,40.830,13.940,easy
1456.000,381.700,115.800,32.260,1631.000,372.000,104.700,27.870,276.700,123.700,26.240,8.655,401.100,135.200,40.730,13.910,easy
1458.000,382.500,116.000,32.310,1634.000,372.100,104.700,27.910,278.100,123.600,26.270,8.672,401.000,135.400,40.840,13.930,easy
1459.000,383.100,115.900,32.380,1637.000,372.100,104.700,27.850,276.800,124.000,26.250,8.676,401.500,135.200,40.720,13.920,easy
1458.000,382.900,115.800,32.370,1633.000,372.600,104.900,27.830,276.700,124.000,26.260,8.668,400.800,135.200,40.750,13.920,easy
1459.000,381.300,115.800,32.360,1630.000,371.400,104.900,27.850,278.000,123.700,26.260,8.671,401.300,135.200,40.820,13.930,easy
1461.000,383.800,116.100,32.550,1634.000,372.000,104.900,27.880,276.400,123.800,26.240,8.664,401.900,135.500,40.870,13.970,easy
1464.000,385.400,116.400,32.650,1632.000,372.000,104.900,27.920,275.600,123.600,26.280,8.667,402.100,136.000,41.030,14.010,easy
1466.000,384.600,116.800,32.660,1634.000,372.400,105.100,27.940,277.300,123.700,26.210,8.649,402.700,135.800,41.020,14.030,easy
1468.000,386.400,116.900,32.780,1634.000,373.200,105.200,27.960,278.600,123.900,26.240,8.662,402.900,135.900,41.070,14.080,easy
1471.000,386.000,117.900,32.840,1636.000,372.100,105.000,27.970,277.000,124.200,26.250,8.670,404.000,136.200,41.230,14.080,easy
1474.000,388.600,117.700,32.940,1634.000,372.900,105.300,28.010,277.700,123.700,26.320,8.663,404.800,136.600,41.290,14.170,easy
1477.000,388.300,118.100,33.090,1639.000,374.300,105.500,27.990,276.500,123.700,26.300,8.690,405.200,136.800,41.310,14.160,easy
1474.000,385.900,117.100,32.770,1635.000,373.000,104.900,27.860,277.100,123.800,26.200,8.658,402.900,135.800,40.880,14.010,easy
1461.000,382.700,116.200,32.460,1627.000,371.600,104.700,27.820,277.700,123.600,26.160,8.632,401.600,135.400,40.860,13.950,easy
1459.000,383.800,116.000,32.430,1632.000,371.600,104.600,27.840,277.700,123.300,26.160,8.623,400.800,135.200,40.810,13.920,easy
1458.000,383.900,115.800,32.430,1633.000,370.600,104.700,27.790,275.200,123.300,26.090,8.625,400.700,135.300,40.780,13.920,easy
1459.000,383.300,115.700,32.320,1630.000,371.000,104.600,27.850,276.500,123.200,26.110,8.605,400.700,135.100,40.710,13.920,easy
1458.000,383.600,116.100,32.400,1632.000,370.800,104.500,27.830,275.800,123.300,26.120,8.608,401.400,135.300,40.770,13.940,easy
1460.000,383.300,116.200,32.450,1630.000,371.200,104.400,27.810,275.400,123.400,26.060,8.605,402.100,135.700,40.860,13.980,easy
1462.000,384.800,116.500,32.520,1631.000,371.200,104.700,27.850,275.500,123.600,26.130,8.617,401.900,135.700,40.950,14.020,easy
1465.000,383.900,116.700,32.630,1638.000,372.400,104.600,27.830,276.400,123.500,26.100,8.609,402.500,135.800,40.980,14.010,easy
1466.000,384.800,116.500,32.730,1633.000,372.000,105.000,27.900,277.000,122.900,26.080,8.618,403.300,136.000,41.010,14.060,easy
1469.000,385.900,117.500,32.790,1636.000,371.900,105.000,27.890,276.000,123.500,26.080,8.620,404.000,136.400,41.080,14.120,easy
1472.000,387.400,117.600,32.900,1634.000,373.100,104.900,27.930,278.700,123.100,26.100,8.623,404.400,136.900,41.330,14.170,easy
1474.000,388.100,117.900,33.060,1638.000,373.000,105.000,27.930,276.700,123.400,26.110,8.626,404.800,137.000,41.410,14.200,easy
1478.000,388.200,118.300,33.160,1640.000,372.800,105.200,27.970,275.800,123.400,26.110,8.640,406.200,137.300,41.570,14.240,easy
1480.000,390.000,118.800,33.260,1638.000,373.600,105.300,28.060,276.000,123.300,26.200,8.649,406.400,137.400,41.550,14.240,easy
1478.000,389.000,117.800,32.890,1637.000,372.300,104.800,27.880,277.700,123.400,26.090,8.612,404.000,136.500,41.240,14.080,easy
1464.000,385.600,116.600,32.510,1631.000,372.000,104.500,27.780,274.800,123.000,25.970,8.590,403.000,136.200,41.070,14.040,easy
1464.000,382.600,116.600,32.550,1633.000,371.500,104.700,27.780,275.800,123.200,26.010,8.581,403.500,135.900,41.060,14.050,easy
1461.000,384.000,116.300,32.550,1634.000,371.300,104.500,27.820,275.800,122.700,25.990,8.578,402.500,135.800,41.070,14.030,easy
1460.000,382.900,116.000,32.430,1634.000,371.800,104.700,27.810,275.200,123.000,25.990,8.573,402.900,135.900,41.010,13.990,easy
1461.000,384.300,116.400,32.510,1631.000,371.500,104.400,27.810,275.800,122.600,25.990,8.562,402.900,135.900,41.040,14.020,easy
1462.000,382.200,116.900,32.530,1633.000,371.600,104.600,27.840,275.300,122.600,25.960,8.575,403.200,136.100,41.110,14.070,easy
1465.000,384.200,116.600,32.640,1630.000,372.000,104.800,27.810,275.100,122.700,25.980,8.557,403.600,136.500,41.160,14.100,easy
1466.000,384.900,116.800,32.730,1634.000,371.800,104.700,27.820,276.200,122.500,25.960,8.567,404.000,136.600,41.280,14.140,easy
1469.000,386.400,117.300,32.810,1634.000,372.500,104.700,27.850,275.300,122.600,25.960,8.548,404.500,136.500,41.300,14.130,easy
1470.000,386.100,117.200,32.830,1630.000,372.500,104.900,27.830,274.500,123.100,25.950,8.563,405.000,136.700,41.360,14.180,easy
1472.000,386.800,117.500,32.960,1633.000,372.300,104.900,27.870,276.000,122.900,25.960,8.588,405.500,137.300,41.480,14.210,easy
1475.000,387.100,118.000,33.020,1636.000,372.300,105.200,27.940,279.400,122.800,26.030,8.577,406.400,137.500,41.590,14.250,easy
1479.000,389.600,117.500,32.930,1638.000,372.600,104.700,27.810,277.200,122.900,25.990,8.575,405.400,137.200,41.370,14.110,easy
1466.000,385.100,116.700,32.540,1636.000,372.300,104.500,27.830,275.200,122.900,25.940,8.549,404.000,136.400,41.200,14.100,easy
1464.000,384.200,116.700,32.550,1637.000,372.500,104.600,27.790,275.900,122.600,25.920,8.536,404.200,136.400,41.200,14.090,easy
1466.000,383.600,116.900,32.660,1633.000,372.700,104.800,27.850,275.900,122.600,25.880,8.538,404.400,136.800,41.170,14.090,easy
1466.000,384.300,116.900,32.650,1633.000,371.900,104.400,27.840,275.000,122.300,25.900,8.535,404.000,136.400,41.130,14.080,easy
1465.000,383.100,116.300,32.600,1633.000,371.800,104.700,27.820,273.300,122.100,25.880,8.525,404.100,136.600,41.150,14.090,easy
1467.000,385.700,117.000,32.670,1636.000,371.900,104.800,27.860,276.100,122.200,25.930,8.541,404.400,136.600,41.180,14.120,easy
1469.000,385.900,117.000,32.850,1633.000,372.300,104.800,27.890,275.100,122.400,25.900,8.548,404.500,136.900,41.360,14.160,easy
1472.000,386.800,117.300,32.900,1639.000,372.600,104.700,27.920,275.900,122.400,25.890,8.541,405.200,136.800,41.370,14.190,easy
1474.000,387.200,117.700,33.000,1637.000,372.600,104.900,27.980,277.000,122.500,25.940,8.540,405.700,137.100,41.500,14.200,easy
1476.000,387.600,117.700,33.040,1637.000,373.000,105.000,27.920,274.200,122.300,25.850,8.554,406.600,137.400,41.530,14.250,easy
1478.000,388.600,118.100,33.160,1639.000,373.800,104.900,27.980,274.500,122.600,25.940,8.563,407.400,137.400,41.630,14.280,easy
1482.000,390.000,118.700,33.320,1641.000,373.300,105.100,28.060,276.600,122.800,25.920,8.564,407.300,137.900,41.660,14.310,easy
1485.000,390.000,118.400,33.110,1639.000,373.100,104.800,27.960,275.800,122.900,25.930,8.561,406.600,137.500,41.430,14.180,easy
1469.000,385.100,117.000,32.730,1635.000,371.900,104.600,27.790,276.900,122.300,25.780,8.518,405.100,136.700,41.250,14.110,easy
1466.000,384.900,117.100,32.680,1637.000,372.200,104.300,27.840,276.000,122.100,25.790,8.510,403.900,136.300,41.080,14.060,easy
1463.000,384.600,116.600,32.520,1628.000,371.600,104.500,27.780,273.700,122.200,25.820,8.490,403.300,136.400,41.050,14.080,easy
1464.000,385.100,116.600,32.650,1636.000,371.800,104.600,27.800,275.100,122.200,25.790,8.508,403.700,136.200,41.060,14.050,easy
1463.000,384.100,116.400,32.560,1633.000,370.800,104.400,27.780,274.400,121.900,25.760,8.493,403.000,136.000,41.060,14.060,easy
1464.000,383.200,116.900,32.650,1635.000,370.900,104.600,27.860,274.800,121.600,25.750,8.495,403.900,136.200,41.110,14.070,easy
1466.000,385.800,116.500,32.650,1634.000,371.300,104.600,27.800,274.600,122.200,25.780,8.505,403.900,136.800,41.260,14.110,easy
1468.000,385.600,116.900,32.770,1633.000,372.200,104.600,27.800,274.500,122.100,25.840,8.527,404.500,136.800,41.260,14.120,easy
1470.000,385.800,117.000,32.850,1634.000,372.300,104.700,27.830,274.600,122.200,25.800,8.534,404.900,137.000,41.330,14.160,easy
1471.000,386.500,117.300,32.880,1635.000,372.500,104.800,27.790,274.000,122.200,25.780,8.528,405.500,137.100,41.420,14.190,easy
1474.000,387.800,117.700,32.930,1635.000,372.100,104.600,27.860,275.900,122.100,25.860,8.529,406.100,137.400,41.490,14.210,easy
1477.000,388.600,118.200,33.120,1638.000,372.300,105.000,27.910,276.000,122.400,25.880,8.539,406.300,137.700,41.530,14.250,easy
1481.000,389.900,118.200,33.210,1635.000,373.100,105.100,27.920,275.400,122.600,25.820,8.538,406.900,137.800,41.630,14.280,easy
1482.000,389.900,118.700,33.340,1642.000,373.400,105.000,27.950,274.100,122.200,25.830,8.550,407.600,138.000,41.630,14.340,easy
1486.000,390.500,118.500,33.170,1637.000,372.600,104.600,27.810,275.800,122.400,25.870,8.533,405.900,137.200,41.340,14.160,easy
1468.000,385.500,117.200,32.700,1631.000,371.300,104.300,27.740,273.900,122.200,25.730,8.504,403.700,136.700,41.120,14.070,easy
1465.000,385.400,116.300,32.600,1634.000,371.100,104.200,27.740,274.800,121.800,25.760,8.478,403.000,136.400,41.120,14.050,easy
1463.000,385.100,116.600,32.660,1630.000,370.800,104.200,27.750,275.300,121.600,25.720,8.490,403.600,136.400,41.020,14.020,easy
1462.000,384.200,116.400,32.620,1629.000,371.000,104.300,27.680,275.100,121.800,25.690,8.493,402.000,135.900,40.910,14.010,easy
1462.000,385.200,116.100,32.580,1629.000,370.500,104.400,27.700,273.800,121.500,25.640,8.473,402.000,135.700,40.920,14.010,easy
1463.000,384.500,116.300,32.560,1635.000,371.100,104.200,27.690,272.400,121.500,25.670,8.476,401.900,136.100,40.970,14.020,easy
1465.000,385.100,116.800,32.630,1627.000,370.800,104.600,27.690,274.000,121.400,25.680,8.478,401.600,136.000,41.010,14.060,easy
1466.000,386.000,117.000,32.650,1632.000,371.100,104.300,27.760,272.900,121.500,25.670,8.473,403.000,136.200,41.010,14.070,easy
1468.000,385.900,117.100,32.700,1632.000,371.500,104.400,27.710,274.800,121.200,25.720,8.468,403.300,136.200,41.100,14.100,easy
1469.000,386.600,117.700,32.790,1631.000,372.500,104.300,27.750,274.900,121.300,25.660,8.480,402.800,136.300,41.170,14.110,easy
1472.000,387.500,117.300,32.980,1635.000,372.000,104.600,27.810,273.500,121.800,25.690,8.467,402.800,136.700,41.280,14.140,easy
1475.000,388.700,118.100,33.010,1633.000,372.000,104.600,27.810,273.400,121.100,25.670,8.483,404.800,136.900,41.380,14.150,easy
1478.000,389.900,118.300,33.150,1635.000,372.600,104.800,27.770,273.500,121.400,25.750,8.503,404.300,136.900,41.280,14.160,easy
1471.000,386.500,117.000,32.750,1632.000,371.200,104.100,27.670,275.200,121.600,25.660,8.469,402.700,136.000,40.950,14.050,easy
1463.000,384.200,116.100,32.570,1631.000,370.300,104.200,27.680,273.000,121.200,25.600,8.477,401.700,135.900,40.950,14.030,easy
1464.000,384.200,116.600,32.640,1631.000,370.400,104.100,27.660,273.900,121.100,25.620,8.456,401.000,135.800,40.960,14.020,easy
1465.000,386.300,116.700,32.620,1630.000,371.000,104.100,27.710,271.800,121.300,25.630,8.462,401.000,135.600,40.800,14.000,easy
1463.000,384.200,116.500,32.510,1632.000,370.800,103.900,27.640,273.100,121.100,25.600,8.448,400.700,135.500,40.740,13.970,easy
1464.000,383.500,116.500,32.570,1631.000,370.200,104.200,27.660,273.500,120.700,25.600,8.450,401.200,135.300,40.820,13.990,easy
1465.000,384.500,116.800,32.630,1630.000,370.400,104.200,27.720,272.600,121.000,25.590,8.467,401.300,135.400,40.900,14.000,easy
1468.000,386.500,116.800,32.770,1629.000,370.400,104.400,27.700,272.700,121.100,25.670,8.474,401.600,135.800,40.900,14.080,easy
1471.000,386.800,117.600,32.830,1629.000,371.100,104.400,27.730,273.200,120.900,25.620,8.461,401.800,135.700,41.010,14.060,easy
1473.000,386.400,117.600,32.950,1634.000,371.800,104.400,27.780,274.100,121.200,25.620,8.458,401.700,136.100,41.030,14.080,easy
1474.000,388.300,117.900,33.000,1631.000,371.300,104.400,27.750,272.400,121.300,25.580,8.473,402.700,136.200,41.160,14.140,easy
1478.000,389.100,118.100,33.150,1634.000,372.400,104.500,27.710,273.000,121.000,25.600,8.468,403.100,136.100,41.100,14.110,easy
1471.000,386.100,116.800,32.640,1630.000,370.800,104.100,27.610,273.000,120.700,25.600,8.445,400.900,135.100,40.710,13.930,easy
1461.000,384.300,116.500,32.460,1627.000,369.900,103.900,27.600,270.900,120.700,25.470,8.412,399.000,134.800,40.590,13.860,easy
1459.000,384.300,115.700,32.430,1629.000,369.600,104.000,27.560,272.800,120.400,25.480,8.409,398.400,134.600,40.560,13.870,easy
1460.000,384.200,116.100,32.430,1630.000,370.500,103.800,27.580,272.500,120.800,25.540,8.416,398.300,134.400,40.450,13.840,easy
1457.000,383.700,116.200,32.310,1626.000,369.300,103.700,27.530,270.600,120.500,25.460,8.420,397.400,134.200,40.380,13.830,easy
1457.000,383.900,115.700,32.380,1625.000,369.500,103.900,27.540,272.100,120.200,25.450,8.408,397.200,134.100,40.380,13.840,easy
1459.000,383.500,115.900,32.430,1627.000,369.700,103.800,27.590,272.200,120.300,25.510,8.411,397.600,134.300,40.440,13.870,easy
1462.000,385.400,116.200,32.560,1630.000,370.300,103.800,27.620,273.500,120.600,25.530,8.429,398.200,134.600,40.500,13.870,easy
1464.000,383.900,116.600,32.600,1627.000,370.000,103.800,27.600,271.800,120.400,25.490,8.434,398.100,134.500,40.540,13.900,easy
1466.000,383.600,116.900,32.650,1626.000,369.600,103.800,27.610,271.300,120.300,25.580,8.424,398.700,134.600,40.590,13.950,easy
1468.000,386.200,116.900,32.680,1624.000,370.700,104.000,27.630,272.300,120.900,25.540,8.440,399.400,135.000,40.700,13.980,easy
1471.000,387.300,117.200,32.810,1630.000,370.900,104.100,27.590,270.700,120.900,25.590,8.455,400.100,135.100,40.800,14.010,easy
1474.000,387.500,117.600,32.920,1631.000,370.300,104.000,27.630,275.400,121.000,25.570,8.473,400.900,135.300,40.840,14.060,easy
1476.000,388.400,117.400,33.140,1631.000,372.000,104.300,27.740,272.600,121.200,25.590,8.484,400.500,135.700,40.910,14.050,easy
1469.000,386.000,116.800,32.570,1627.000,369.800,103.700,27.600,271.000,121.400,25.590,8.438,398.400,134.500,40.460,13.860,easy
1458.000,384.000,115.800,32.380,1629.000,369.500,103.800,27.500,271.600,120.700,25.520,8.421,396.600,133.900,40.290,13.760,easy
1455.000,383.100,115.400,32.290,1623.000,369.100,103.600,27.480,271.800,120.400,25.490,8.413,396.600,133.700,40.170,13.740,easy
1454.000,381.800,115.900,32.240,1622.000,369.200,103.300,27.480,271.300,120.500,25.440,8.409,395.400,133.400,40.170,13.700,easy
1453.000,381.000,115.400,32.140,1622.000,369.100,103.700,27.420,271.800,120.200,25.520,8.410,395.500,133.100,40.040,13.690,easy
1452.000,380.700,115.400,32.230,1622.000,368.900,103.500,27.480,271.500,120.200,25.490,8.403,395.200,133.000,40.040,13.730,easy
1454.000,382.200,115.500,32.340,1623.000,368.400,103.500,27.490,271.100,120.600,25.440,8.412,395.200,133.300,40.080,13.750,easy
1456.000,382.600,116.000,32.380,1621.000,368.800,103.600,27.490,270.500,120.500,25.540,8.416,396.500,133.400,40.240,13.750,easy
1458.000,383.800,116.100,32.490,1622.000,369.000,103.700,27.510,272.500,120.200,25.510,8.423,396.500,133.700,40.280,13.780,easy
1460.000,385.300,116.400,32.540,1623.000,368.800,103.800,27.510,272.100,120.300,25.550,8.436,397.300,133.500,40.270,13.810,easy
1463.000,385.200,116.400,32.580,1624.000,369.100,103.700,27.510,271.000,120.700,25.540,8.437,397.900,134.100,40.390,13.860,easy
1465.000,384.800,116.600,32.650,1626.000,369.500,104.100,27.520,271.900,120.900,25.580,8.454,397.700,134.200,40.440,13.890,easy
1468.000,388.800,117.100,32.840,1627.000,370.300,103.900,27.600,273.200,121.200,25.640,8.467,398.600,134.600,40.600,13.940,easy
1470.000,387.000,117.200,32.820,1622.000,369.900,103.900,27.670,271.700,121.300,25.670,8.477,399.200,134.900,40.670,13.980,easy
1474.000,387.900,117.900,33.020,1630.000,370.400,104.200,27.680,273.300,121.400,25.730,8.488,400.600,135.100,40.730,13.960,easy
1469.000,386.000,116.900,32.600,1625.000,369.100,103.600,27.480,272.700,121.400,25.650,8.462,397.800,133.800,40.230,13.800,easy
1456.000,383.300,115.900,32.430,1622.000,368.900,103.500,27.460,272.400,121.300,25.600,8.450,396.700,133.700,40.200,13.770,easy
1462.000,384.600,116.200,32.560,1624.000,368.700,103.700,27.510,272.100,121.400,25.640,8.474,397.900,134.000,40.320,13.860,bogus
1464.000,385.100,116.700,32.600,1628.000,369.600,103.700,27.550,273.000,121.100,25.690,8.480,398.100,134.400,40.460,13.900,bogus
1467.000,386.700,117.000,32.750,1624.000,370.000,103.800,27.580,272.400,121.100,25.720,8.474,398.500,134.500,40.500,13.910,bogus
1470.000,386.200,117.400,32.840,1629.000,369.500,103.900,27.590,274.100,121.400,25.640,8.472,399.500,134.700,40.470,13.930,bogus
1473.000,386.400,117.200,32.730,1627.000,369.100,103.500,27.460,272.800,121.400,25.660,8.465,398.200,134.000,40.210,13.790,bogus
1430.000,377.300,114.100,31.810,1615.000,366.600,103.500,27.610,274.400,121.500,25.740,8.526,395.900,133.900,40.420,13.850,hard
1438.000,379.300,114.500,32.070,1617.000,367.400,103.600,27.650,273.700,121.400,25.780,8.543,397.400,134.300,40.570,13.880,hard
1436.000,376.400,113.800,31.610,1612.000,366.400,102.900,27.420,275.000,121.400,25.800,8.505,394.900,133.200,40.020,13.700,hard
1414.000,370.400,111.900,31.190,1608.000,365.300,102.400,27.360,271.900,121.300,25.630,8.470,393.000,132.400,39.770,13.620,hard
1411.000,370.900,111.800,31.140,1605.000,364.700,102.600,27.290,273.000,121.300,25.610,8.480,392.400,132.300,39.750,13.590,hard
1410.000,369.500,111.600,31.130,1606.000,364.900,102.400,27.270,272.400,120.900,25.630,8.465,392.100,132.300,39.740,13.590,hard
1410.000,370.600,111.600,31.000,1604.000,364.800,102.300,27.230,272.000,121.000,25.570,8.472,392.000,132.300,39.630,13.560,hard
1407.000,368.800,111.200,31.050,1606.000,364.300,102.400,27.210,271.100,121.200,25.570,8.471,391.300,132.000,39.720,13.580,hard
1409.000,370.200,111.800,31.040,1607.000,364.400,102.500,27.240,271.200,120.800,25.600,8.462,391.900,132.300,39.730,13.610,hard
1412.000,371.800,111.600,31.150,1610.000,364.900,102.400,27.260,271.500,120.900,25.580,8.467,392.700,132.600,39.850,13.640,hard
1414.000,372.400,112.100,31.310,1607.000,364.100,102.600,27.300,269.600,121.000,25.590,8.465,392.600,132.500,39.910,13.680,hard
1418.000,373.400,112.400,31.370,1614.000,365.800,102.500,27.360,271.400,120.900,25.610,8.478,392.700,133.100,39.970,13.690,hard
1421.000,373.500,112.700,31.400,1612.000,365.400,102.800,27.360,271.700,121.000,25.600,8.482,394.200,133.000,40.110,13.750,hard
1424.000,375.700,113.000,31.610,1610.000,365.300,102.800,27.350,272.000,121.200,25.610,8.497,394.700,133.400,40.260,13.810,hard
1428.000,376.100,113.400,31.670,1613.000,366.400,103.000,27.460,273.400,121.000,25.740,8.499,395.800,133.900,40.380,13.870,hard
1435.000,376.700,114.500,31.930,1617.000,367.400,103.200,27.470,272.900,121.300,25.760,8.530,396.900,134.500,40.550,13.930,hard
1440.000,379.300,114.800,32.000,1619.000,367.500,103.600,27.470,271.700,121.200,25.820,8.524,397.300,134.500,40.500,13.880,hard
1426.000,373.000,112.800,31.310,1608.000,365.900,102.700,27.240,270.300,121.600,25.660,8.492,393.700,133.100,39.990,13.720,hard
1413.000,369.900,111.700,31.120,1611.000,364.800,102.600,27.280,271.800,121.000,25.650,8.481,392.400,132.900,39.920,13.650,hard
1412.000,371.300,111.800,31.140,1605.000,365.000,102.200,27.180,270.700,120.600,25.610,8.480,391.900,132.700,39.920,13.660,hard
1412.000,371.200,111.600,31.080,1613.000,364.600,102.400,27.210,271.900,121.000,25.610,8.476,392.000,132.600,39.890,13.660,hard
1411.000,370.400,111.500,31.020,1616.000,364.100,102.100,27.170,272.400,120.700,25.610,8.451,391.800,132.400,39.810,13.640,hard
1411.000,370.400,111.600,31.020,1614.000,364.500,102.200,27.220,271.100,120.600,25.600,8.461,392.000,132.700,39.840,13.630,hard
1413.000,371.000,111.500,31.180,1609.000,365.500,102.600,27.240,270.000,120.900,25.570,8.457,392.900,132.700,39.920,13.670,hard
1416.000,372.800,112.000,31.290,1611.000,365.000,102.800,27.250,270.800,120.500,25.600,8.477,392.600,133.000,39.990,13.720,hard
1419.000,372.200,112.600,31.310,1616.000,365.900,102.700,27.280,271.200,120.900,25.600,8.484,393.500,133.200,40.060,13.750,hard
1421.000,373.100,112.700,31.370,1612.000,365.800,102.500,27.330,271.400,120.900,25.670,8.466,394.000,133.400,40.150,13.770,hard
1425.000,373.500,113.100,31.490,1615.000,365.600,102.900,27.360,270.000,121.300,25.620,8.488,394.200,133.500,40.270,13.800,hard
1428.000,374.800,113.500,31.680,1614.000,365.700,102.800,27.350,272.300,120.700,25.730,8.496,395.200,133.700,40.440,13.860,hard
1433.000,375.500,113.800,31.750,1615.000,366.900,103.200,27.490,270.900,120.900,25.700,8.517,395.900,134.300,40.540,13.890,hard
1433.000,375.700,113.000,31.530,1616.000,365.600,102.900,27.260,271.700,121.100,25.690,8.478,394.400,133.300,40.110,13.730,hard
1415.000,372.300,111.900,31.240,1613.000,364.500,102.400,27.220,271.200,120.600,25.600,8.447,392.900,133.000,40.020,13.690,hard
1416.000,372.800,112.000,31.170,1613.000,364.800,102.700,27.240,271.100,120.800,25.600,8.462,392.100,132.800,39.990,13.700,hard
1419.000,372.300,112.300,31.310,1614.000,365.900,102.600,27.290,272.000,120.800,25.580,8.472,393.200,132.800,40.000,13.690,hard
1417.000,372.100,112.200,31.280,1616.000,364.800,102.500,27.280,271.400,120.700,25.570,8.451,392.400,132.800,40.010,13.710,hard
1417.000,373.100,112.300,31.220,1613.000,365.800,102.700,27.290,270.500,120.500,25.520,8.440,392.300,132.900,40.050,13.680,hard
1420.000,373.300,112.400,31.390,1612.000,365.700,102.900,27.310,270.800,120.600,25.570,8.446,393.300,133.100,40.090,13.710,hard
1423.000,373.300,112.900,31.480,1613.000,366.100,102.800,27.350,270.500,120.500,25.600,8.458,393.800,133.200,40.070,13.770,hard
1427.000,375.600,113.300,31.640,1613.000,367.100,103.100,27.410,271.200,120.700,25.580,8.459,393.800,133.500,40.200,13.800,hard
1429.000,376.200,113.300,31.590,1616.000,366.900,103.000,27.440,270.200,120.900,25.580,8.481,394.500,133.500,40.250,13.830,hard
1433.000,375.700,113.800,31.770,1614.000,367.700,103.300,27.390,271.800,121.000,25.630,8.475,395.500,133.900,40.370,13.830,hard
1430.000,375.100,112.900,31.470,1616.000,365.900,102.600,27.270,272.100,120.800,25.530,8.446,392.400,132.900,39.850,13.660,hard
1415.000,371.400,111.700,31.160,1610.000,365.500,102.400,27.190,271.000,120.200,25.470,8.414,391.500,132.500,39.840,13.620,hard
1414.000,370.300,111.300,31.120,1613.000,365.200,102.500,27.120,270.200,120.100,25.450,8.416,391.600,132.200,39.800,13.590,hard
1413.000,370.900,111.800,31.140,1606.000,365.000,102.600,27.150,271.500,120.300,25.450,8.411,391.800,132.200,39.800,13.590,hard
1412.000,370.500,111.600,31.000,1609.000,364.800,102.400,27.140,269.900,120.400,25.410,8.424,390.400,131.800,39.660,13.610,hard
1412.000,369.900,111.500,31.060,1608.000,363.900,102.300,27.150,270.900,120.000,25.420,8.418,391.000,132.000,39.680,13.570,hard
1413.000,370.900,111.600,31.100,1609.000,364.300,102.300,27.140,270.700,120.400,25.480,8.416,391.200,132.100,39.760,13.590,hard
1416.000,371.900,112.300,31.260,1612.000,366.100,102.500,27.210,268.200,120.000,25.480,8.429,391.700,132.200,39.820,13.620,hard
1419.000,372.300,112.400,31.270,1610.000,365.200,102.700,27.200,271.200,119.900,25.490,8.421,392.900,132.500,39.930,13.660,hard
1421.000,373.100,112.800,31.340,1614.000,365.500,102.500,27.230,271.900,120.200,25.500,8.422,392.800,132.900,39.950,13.680,hard
1423.000,374.100,112.700,31.420,1614.000,365.900,102.600,27.270,269.300,120.700,25.470,8.437,392.900,133.000,40.100,13.710,hard
1426.000,375.500,112.800,31.260,1611.000,365.000,102.300,27.130,270.400,120.200,25.500,8.429,391.800,132.300,39.690,13.570,hard
1411.000,368.900,111.200,30.920,1610.000,364.700,102.100,27.030,271.300,120.200,25.450,8.410,389.700,131.700,39.560,13.510,hard
1407.000,368.700,111.100,30.750,1607.000,364.200,102.000,27.040,270.800,120.000,25.370,8.399,389.100,131.300,39.460,13.500,hard
1404.000,369.000,110.400,30.810,1608.000,363.300,102.000,27.060,269.100,119.800,25.440,8.395,388.500,131.400,39.450,13.470,hard
1406.000,370.100,110.900,30.700,1606.000,363.500,102.100,27.050,271.300,119.600,25.410,8.382,388.800,131.200,39.330,13.430,hard
1404.000,369.000,110.600,30.740,1606.000,363.300,102.000,27.010,269.900,119.900,25.430,8.390,388.900,131.100,39.370,13.450,hard
1405.000,369.400,111.100,30.840,1603.000,363.400,101.900,27.060,269.900,120.000,25.430,8.398,388.700,131.300,39.440,13.490,hard
1407.000,370.300,111.200,30.870,1603.000,364.500,102.200,27.080,269.400,119.800,25.470,8.418,389.700,131.400,39.480,13.500,hard
1410.000,370.000,111.800,30.890,1606.000,364.400,102.200,27.110,269.000,120.100,25.460,8.429,390.300,131.500,39.550,13.520,hard
1413.000,371.000,111.500,31.040,1607.000,364.500,102.300,27.130,269.100,120.000,25.500,8.438,389.500,131.600,39.660,13.570,hard
1415.000,371.600,111.600,31.120,1608.000,365.100,102.400,27.200,270.800,120.500,25.520,8.437,390.900,132.000,39.700,13.570,hard
1418.000,372.200,112.200,31.180,1608.000,364.700,102.700,27.200,270.800,120.300,25.580,8.455,391.800,132.300,39.790,13.630,hard
1420.000,373.800,112.500,31.360,1611.000,365.500,102.700,27.290,268.200,120.400,25.600,8.461,392.800,132.700,39.900,13.670,hard
1424.000,373.900,112.400,31.220,1614.000,364.300,102.700,27.130,271.000,120.300,25.630,8.476,391.300,132.100,39.610,13.540,hard
1409.000,370.200,110.800,30.720,1605.000,364.400,102.000,27.110,269.800,120.000,25.520,8.447,389.900,131.600,39.450,13.470,hard
1408.000,369.400,111.100,30.760,1606.000,364.000,102.100,27.120,269.400,120.300,25.510,8.441,389.100,131.400,39.470,13.460,hard
1407.000,368.700,110.900,30.730,1609.000,364.400,102.300,27.170,269.800,120.400,25.530,8.438,389.600,131.300,39.400,13.460,hard
1406.000,369.500,111.000,30.710,1604.000,364.100,102.200,27.120,268.500,120.200,25.520,8.443,389.000,131.300,39.290,13.450,hard
1406.000,369.000,111.000,30.870,1605.000,364.200,102.300,27.120,269.300,120.400,25.520,8.445,389.200,131.500,39.300,13.470,hard
1407.000,368.200,111.000,30.850,1609.000,364.500,102.200,27.190,270.400,120.300,25.520,8.462,388.500,131.300,39.520,13.490,hard
1410.000,370.600,111.400,30.970,1610.000,365.200,102.400,27.220,270.100,120.300,25.560,8.465,390.000,131.400,39.540,13.530,hard
1412.000,370.300,111.500,30.970,1610.000,365.000,102.600,27.240,269.800,120.300,25.580,8.478,390.100,131.600,39.570,13.540,hard
1415.000,371.800,111.800,31.090,1613.000,365.200,102.800,27.300,268.700,120.700,25.590,8.486,390.300,132.000,39.700,13.570,hard
1418.000,371.900,112.200,31.180,1611.000,365.800,102.800,27.380,270.700,120.400,25.650,8.499,391.200,132.100,39.810,13.610,hard
1421.000,372.200,112.100,31.210,1613.000,366.700,102.800,27.260,271.200,120.200,25.640,8.495,391.400,132.000,39.600,13.530,hard
1411.000,372.000,111.000,30.870,1610.000,365.600,102.600,27.220,269.500,120.600,25.590,8.470,389.300,131.300,39.320,13.470,hard
1409.000,369.800,110.700,30.850,1612.000,365.400,102.700,27.230,271.400,120.300,25.530,8.470,389.200,131.400,39.460,13.490,hard
1410.000,371.300,111.200,30.880,1612.000,365.600,102.800,27.310,269.700,120.200,25.600,8.476,389.900,131.600,39.450,13.470,hard
1410.000,369.700,111.300,30.870,1612.000,365.500,102.800,27.330,270.000,120.400,25.670,8.475,389.600,131.400,39.390,13.490,hard
1411.000,370.000,111.400,30.850,1614.000,365.500,102.700,27.340,270.900,120.500,25.570,8.488,389.600,131.600,39.510,13.500,hard
1413.000,369.400,111.700,30.930,1613.000,365.900,102.900,27.370,271.800,120.500,25.690,8.504,390.100,132.000,39.570,13.550,hard
1416.000,372.000,112.100,31.000,1614.000,366.400,102.900,27.390,271.000,120.700,25.690,8.503,390.700,131.900,39.620,13.580,hard
1418.000,371.600,112.000,31.060,1615.000,367.200,103.100,27.460,271.000,121.100,25.670,8.509,391.500,132.000,39.740,13.610,hard
1420.000,373.600,112.600,31.240,1618.000,366.600,103.300,27.520,271.600,120.600,25.710,8.502,391.600,132.600,39.800,13.630,hard
1423.000,373.400,112.500,31.310,1614.000,366.900,103.300,27.540,271.400,121.300,25.720,8.519,392.100,132.700,39.890,13.680,hard
1426.000,374.000,112.900,31.470,1614.000,367.300,103.700,27.600,271.200,120.900,25.760,8.547,392.600,133.100,39.910,13.740,hard
1430.000,375.400,113.200,31.430,1619.000,367.600,103.400,27.480,272.400,121.400,25.800,8.536,392.900,132.500,39.780,13.620,hard
1415.000,371.200,111.400,30.980,1615.000,366.200,103.200,27.400,271.800,121.300,25.670,8.521,390.800,131.800,39.630,13.540,hard
1413.000,372.000,111.200,30.990,1613.000,366.800,103.300,27.420,269.200,120.700,25.660,8.496,390.400,131.700,39.520,13.510,hard
1411.000,370.300,111.500,30.960,1613.000,366.500,102.900,27.410,270.600,120.700,25.660,8.509,390.400,131.600,39.550,13.500,hard
1412.000,369.500,111.400,30.880,1617.000,366.500,103.100,27.430,271.300,120.600,25.690,8.504,390.000,131.600,39.450,13.490,hard
1411.000,370.700,111.100,30.900,1614.000,366.700,103.100,27.480,269.600,120.400,25.680,8.499,389.800,131.500,39.520,13.520,hard
1413.000,371.100,111.600,31.000,1614.000,366.900,103.300,27.440,272.100,120.700,25.650,8.498,390.200,131.800,39.600,13.550,hard
1416.000,371.300,112.000,31.080,1614.000,366.900,103.300,27.510,272.000,120.600,25.660,8.515,390.300,131.700,39.570,13.590,hard
1419.000,370.800,112.100,31.180,1616.000,368.500,103.500,27.570,270.100,120.700,25.680,8.511,390.400,132.300,39.730,13.610,hard
1420.000,372.100,112.100,31.260,1618.000,367.500,103.700,27.610,272.100,120.600,25.710,8.507,391.100,132.100,39.750,13.620,hard
1422.000,373.300,112.400,31.330,1620.000,367.400,103.900,27.630,272.400,120.800,25.760,8.509,392.000,132.400,39.860,13.680,hard
1425.000,375.300,112.800,31.490,1617.000,368.300,103.900,27.670,270.100,121.000,25.710,8.532,392.000,132.600,39.960,13.690,hard
1428.000,375.600,113.200,31.570,1619.000,368.200,104.100,27.720,272.400,121.100,25.760,8.543,391.800,133.000,40.000,13.750,hard
1431.000,375.900,113.500,31.730,1621.000,369.300,104.500,27.720,272.300,120.900,25.750,8.544,393.200,133.100,40.160,13.760,hard
1434.000,377.000,113.900,31.750,1622.000,370.000,104.100,27.800,271.900,121.100,25.760,8.551,393.700,133.300,40.240,13.850,hard
1438.000,378.200,113.900,31.900,1625.000,369.900,104.300,27.880,271.500,121.200,25.820,8.556,395.100,133.700,40.340,13.860,hard
1442.000,378.900,114.400,32.000,1629.000,369.800,104.200,27.810,269.300,121.100,25.780,8.554,394.600,133.500,40.140,13.760,hard
1428.000,374.100,112.900,31.490,1622.000,368.200,103.800,27.670,271.900,120.900,25.690,8.533,391.500,132.800,39.860,13.660,hard
1424.000,373.400,112.700,31.410,1622.000,368.700,104.000,27.670,270.800,120.600,25.680,8.493,391.100,132.200,39.780,13.640,hard
1421.000,373.100,112.500,31.380,1621.000,368.400,103.900,27.660,270.100,120.300,25.650,8.497,391.300,132.200,39.790,13.610,hard
1422.000,373.700,112.500,31.330,1622.000,369.100,103.900,27.670,271.000,120.400,25.590,8.489,390.900,132.300,39.700,13.610,hard
1421.000,372.400,112.600,31.350,1622.000,368.700,103.900,27.640,269.300,120.500,25.600,8.488,389.900,132.100,39.700,13.590,hard
1422.000,373.800,112.600,31.350,1622.000,369.100,104.100,27.680,272.200,120.700,25.610,8.489,391.000,132.100,39.770,13.630,hard
1425.000,374.500,112.800,31.470,1622.000,369.700,104.000,27.720,269.300,120.700,25.640,8.478,390.800,132.400,39.870,13.640,hard
1428.000,374.600,113.400,31.540,1622.000,368.400,104.200,27.750,270.600,120.600,25.620,8.488,391.200,132.300,39.910,13.690,hard
1428.000,375.200,113.000,31.600,1624.000,369.700,104.400,27.750,270.300,120.300,25.600,8.487,391.500,132.800,39.930,13.700,hard
1430.000,376.600,113.400,31.710,1626.000,370.000,104.200,27.820,272.300,120.400,25.660,8.491,392.500,132.600,39.990,13.730,hard
1432.000,376.800,113.800,31.730,1626.000,370.600,104.400,27.800,270.600,121.100,25.630,8.485,392.400,133.300,40.020,13.780,hard
1434.000,377.300,114.300,31.840,1625.000,369.700,104.600,27.820,271.100,120.500,25.680,8.501,392.600,133.200,40.200,13.780,hard
1438.000,377.000,114.400,31.960,1630.000,370.600,104.600,27.840,272.500,120.500,25.660,8.492,393.300,133.500,40.290,13.850,hard
1441.000,379.400,114.600,31.930,1628.000,370.700,104.300,27.750,272.500,121.000,25.690,8.486,393.000,133.200,39.980,13.700,hard
1427.000,375.500,113.000,31.540,1622.000,370.200,104.200,27.760,270.300,120.600,25.610,8.479,391.100,132.500,39.820,13.660,hard
1426.000,374.200,113.300,31.560,1623.000,369.600,104.300,27.740,269.800,120.300,25.590,8.471,391.300,132.400,39.790,13.630,hard
1427.000,374.100,113.400,31.620,1621.000,368.900,104.100,27.750,270.400,120.300,25.550,8.475,390.800,132.300,39.850,13.640,hard
1428.000,374.100,113.300,31.580,1626.000,370.000,104.100,27.670,268.100,120.600,25.580,8.476,391.000,132.100,39.720,13.620,hard
1426.000,374.000,113.300,31.640,1628.000,369.700,104.400,27.730,269.300,120.300,25.580,8.451,390.600,132.200,39.760,13.640,hard
1430.000,375.800,113.200,31.680,1624.000,369.200,104.500,27.800,270.000,120.400,25.570,8.482,391.100,132.200,39.740,13.640,hard
1431.000,377.700,114.000,31.780,1631.000,370.000,104.500,27.810,266.800,120.200,25.570,8.465,390.800,132.400,39.870,13.690,hard
1434.000,378.400,114.100,31.840,1625.000,369.800,104.200,27.830,270.300,120.300,25.570,8.478,390.500,132.600,39.980,13.700,hard
1436.000,377.600,114.100,31.780,1631.000,370.700,104.300,27.880,272.700,120.600,25.580,8.465,391.600,132.700,40.040,13.760,hard
1437.000,377.800,114.600,31.990,1631.000,371.500,104.600,27.880,270.400,120.700,25.600,8.485,392.400,133.100,40.100,13.810,hard
1441.000,379.900,115.000,32.080,1629.000,371.200,104.800,27.920,268.900,120.700,25.620,8.501,393.700,133.200,40.210,13.820,hard
1444.000,379.400,115.600,32.210,1632.000,371.400,104.700,27.820,271.700,120.300,25.720,8.509,393.500,133.200,40.060,13.720,hard
1432.000,375.600,113.800,31.660,1627.000,369.600,104.400,27.740,271.300,120.600,25.560,8.462,390.300,132.100,39.820,13.590,hard
1426.000,374.200,113.200,31.590,1627.000,369.500,104.300,27.690,270.200,120.300,25.500,8.442,389.700,131.900,39.650,13.550,hard
1425.000,375.500,112.900,31.520,1623.000,368.800,104.400,27.780,268.900,120.100,25.550,8.435,389.200,131.800,39.620,13.580,hard
1425.000,375.300,113.200,31.510,1621.000,369.900,103.900,27.720,269.100,120.300,25.530,8.438,389.200,131.600,39.570,13.550,hard
1423.000,374.500,112.900,31.430,1623.000,368.600,104.000,27.700,269.000,120.200,25.460,8.447,388.200,131.300,39.520,13.530,hard
1424.000,374.600,112.700,31.490,1621.000,368.600,104.100,27.770,269.400,120.000,25.510,8.449,388.300,131.400,39.550,13.550,hard
1426.000,374.800,113.000,31.550,1619.000,369.200,104.200,27.720,270.100,120.300,25.550,8.447,388.900,131.600,39.630,13.590,hard
1429.000,376.300,113.400,31.670,1627.000,369.900,104.300,27.750,268.100,120.400,25.520,8.459,389.800,131.800,39.680,13.610,hard
1430.000,376.400,113.900,31.730,1625.000,369.600,104.000,27.710,270.600,120.200,25.570,8.486,389.500,131.900,39.720,13.620,hard
1432.000,376.800,113.900,31.820,1625.000,370.000,104.400,27.760,269.000,120.500,25.570,8.470,389.900,132.000,39.740,13.640,hard
1435.000,377.500,114.100,31.880,1626.000,370.900,104.200,27.830,269.000,120.300,25.600,8.485,390.800,132.400,39.880,13.670,hard
1438.000,377.600,114.600,32.050,1628.000,370.500,104.600,27.820,269.200,120.600,25.680,8.511,391.600,132.500,39.990,13.740,hard
1441.000,378.900,115.100,32.110,1630.000,370.600,104.600,27.790,270.200,120.500,25.660,8.508,391.400,132.700,39.950,13.700,hard
1432.000,377.100,113.500,31.640,1627.000,369.200,104.200,27.690,269.200,120.600,25.600,8.483,388.900,131.400,39.580,13.550,hard
1424.000,373.600,113.200,31.540,1621.000,369.100,104.000,27.740,269.100,120.100,25.530,8.469,388.400,131.200,39.470,13.510,hard
1423.000,373.300,112.800,31.500,1621.000,369.300,104.100,27.680,270.400,119.900,25.510,8.449,388.400,131.200,39.480,13.510,hard
1423.000,375.100,112.800,31.400,1621.000,368.200,103.900,27.630,269.000,120.100,25.540,8.460,387.400,131.100,39.350,13.500,hard
1421.000,374.200,112.500,31.390,1620.000,369.000,103.800,27.670,268.300,120.100,25.490,8.462,387.400,130.900,39.350,13.500,hard
1421.000,373.400,112.900,31.380,1625.000,368.800,103.900,27.660,271.400,120.000,25.490,8.447,386.900,130.900,39.390,13.490,hard
1423.000,374.000,113.300,31.510,1621.000,368.600,103.900,27.710,270.000,120.000,25.540,8.457,387.700,131.000,39.380,13.530,hard
1425.000,375.300,113.400,31.520,1621.000,368.800,104.100,27.740,269.300,120.200,25.510,8.465,388.900,131.200,39.510,13.550,hard
1427.000,375.900,113.500,31.680,1621.000,369.700,104.500,27.740,270.600,120.200,25.570,8.472,388.600,131.300,39.560,13.570,hard
1429.000,374.500,113.800,31.700,1621.000,369.400,104.100,27.760,269.800,120.400,25.610,8.486,388.900,131.500,39.560,13.580,hard
1431.000,377.200,113.900,31.830,1624.000,370.000,104.400,27.750,270.800,120.500,25.620,8.501,389.600,131.700,39.650,13.640,hard
1435.000,377.000,114.200,31.890,1625.000,369.700,104.200,27.790,270.100,120.300,25.680,8.500,390.400,131.900,39.740,13.590,hard
1427.000,374.400,112.900,31.460,1625.000,368.600,103.900,27.700,270.800,120.400,25.600,8.466,387.400,130.800,39.290,13.500,hard
1422.000,373.200,112.800,31.430,1621.000,368.200,103.900,27.700,270.200,120.300,25.560,8.465,387.200,130.700,39.340,13.450,hard
1421.000,373.900,112.700,31.420,1619.000,368.100,104.000,27.710,269.600,120.300,25.540,8.477,387.500,131.000,39.290,13.480,hard
1422.000,374.000,112.900,31.460,1619.000,368.400,103.800,27.650,272.400,120.500,25.540,8.471,387.300,130.800,39.240,13.460,hard
1420.000,373.300,112.400,31.320,1621.000,368.200,103.800,27.690,269.300,120.500,25.610,8.472,387.300,130.700,39.260,13.490,hard
1421.000,373.200,112.900,31.420,1621.000,368.500,103.900,27.670,268.600,120.200,25.600,8.482,387.200,130.700,39.310,13.460,hard
1423.000,374.400,113.200,31.560,1618.000,369.200,104.000,27.760,271.400,120.300,25.640,8.486,388.200,130.900,39.400,13.540,hard
1427.000,374.300,113.300,31.630,1623.000,369.300,104.000,27.760,269.900,120.700,25.610,8.500,387.900,131.100,39.470,13.550,hard
1429.000,374.600,113.600,31.670,1621.000,369.300,104.200,27.820,270.100,121.000,25.630,8.509,388.800,131.500,39.490,13.570,hard
1431.000,376.200,114.000,31.780,1623.000,369.600,104.300,27.820,271.600,120.800,25.680,8.524,389.100,131.800,39.570,13.610,hard
1434.000,376.800,114.400,31.930,1626.000,369.400,104.300,27.810,271.500,121.000,25.690,8.506,389.100,131.900,39.660,13.650,hard
1436.000,377.200,114.400,32.040,1625.000,370.400,104.600,27.880,271.300,121.000,25.730,8.521,390.800,132.000,39.690,13.600,hard
1430.000,375.500,113.200,31.560,1621.000,369.100,104.000,27.680,271.900,120.500,25.660,8.501,388.200,131.100,39.360,13.450,hard
1419.000,372.500,112.500,31.360,1618.000,367.700,103.700,27.650,271.400,120.600,25.640,8.488,387.000,130.600,39.120,13.410,hard
1418.000,372.700,112.400,31.320,1617.000,367.800,104.100,27.700,269.600,120.500,25.580,8.485,386.300,130.200,39.110,13.400,hard
1418.000,372.000,112.500,31.330,1622.000,368.600,103.900,27.660,269.000,120.500,25.570,8.496,385.800,130.400,39.110,13.380,hard
1418.000,371.500,112.200,31.250,1620.000,368.000,103.700,27.700,270.100,120.700,25.600,8.475,385.300,130.200,39.010,13.370,hard
1417.000,371.700,112.700,31.310,1619.000,367.500,103.800,27.740,269.700,120.100,25.590,8.475,385.900,130.300,39.050,13.410,hard
1420.000,371.900,112.600,31.390,1619.000,368.400,104.100,27.700,269.900,120.500,25.660,8.488,386.100,130.400,39.150,13.410,hard
1422.000,373.200,112.700,31.550,1623.000,369.000,104.100,27.770,269.800,120.700,25.660,8.488,386.200,130.400,39.180,13.440,hard
1423.000,374.000,113.300,31.560,1615.000,368.400,104.200,27.800,270.900,120.900,25.710,8.511,386.500,131.100,39.240,13.460,hard
1425.000,373.500,113.200,31.680,1620.000,369.400,104.100,27.780,270.400,120.900,25.690,8.524,387.300,130.900,39.340,13.500,hard
1428.000,374.600,113.900,31.750,1625.000,369.400,104.500,27.810,269.800,120.700,25.730,8.542,388.300,131.200,39.420,13.550,hard
1430.000,377.400,114.100,31.910,1625.000,369.200,104.400,27.900,271.100,120.900,25.770,8.561,389.100,131.600,39.580,13.610,hard
1435.000,377.800,114.400,31.980,1625.000,369.500,104.400,27.920,272.700,121.300,25.850,8.567,389.500,131.700,39.700,13.630,hard
1438.000,377.400,114.200,31.970,1626.000,369.200,104.400,27.800,271.900,121.700,25.860,8.572,389.700,131.500,39.490,13.510,hard
1420.000,373.100,112.500,31.410,1621.000,368.500,103.700,27.680,271.500,121.100,25.750,8.535,387.200,130.800,39.230,13.420,hard
1417.000,371.600,112.500,31.370,1620.000,368.100,104.000,27.710,272.200,121.100,25.730,8.531,386.700,130.300,39.100,13.400,hard
1415.000,370.900,112.500,31.360,1618.000,367.600,103.900,27.700,270.600,120.800,25.690,8.522,386.000,130.100,39.110,13.390,hard
1416.000,371.400,112.500,31.230,1622.000,368.300,103.700,27.650,270.000,120.700,25.690,8.513,385.800,130.100,39.010,13.360,hard
1414.000,371.300,112.300,31.220,1620.000,367.500,103.700,27.650,270.600,121.200,25.680,8.516,385.600,130.100,38.900,13.350,hard
1415.000,372.200,113.000,31.290,1620.000,368.400,103.700,27.690,270.700,120.900,25.720,8.515,385.700,130.100,39.080,13.400,hard
1418.000,372.000,112.400,31.450,1617.000,368.300,103.900,27.660,271.300,120.900,25.690,8.515,385.800,130.400,39.100,13.390,hard
1420.000,373.100,112.600,31.390,1619.000,368.700,103.800,27.680,270.700,121.100,25.740,8.540,386.300,130.600,39.120,13.430,hard
1422.000,373.400,112.900,31.510,1620.000,368.400,104.100,27.690,271.000,121.000,25.790,8.532,387.100,130.800,39.210,13.470,hard
1423.000,374.400,113.200,31.610,1618.000,369.000,104.200,27.730,270.600,121.100,25.840,8.557,387.800,130.900,39.290,13.490,hard
1427.000,375.100,113.500,31.730,1624.000,369.400,104.300,27.770,270.400,121.600,25.770,8.568,388.000,131.200,39.420,13.560,hard
1430.000,376.900,113.500,31.740,1624.000,368.800,104.100,27.690,271.600,121.200,25.810,8.568,387.200,130.900,39.240,13.430,hard
1416.000,371.500,112.400,31.290,1621.000,367.200,103.800,27.610,270.500,121.000,25.740,8.525,385.800,130.300,39.000,13.370,hard
1414.000,372.200,111.900,31.200,1615.000,367.600,103.600,27.650,270.700,121.200,25.800,8.539,386.300,130.200,39.040,13.370,hard
1414.000,372.000,112.500,31.220,1617.000,367.900,103.800,27.670,271.000,121.100,25.710,8.526,385.800,130.300,39.020,13.360,hard
1414.000,370.000,112.400,31.210,1616.000,367.500,103.700,27.650,271.500,121.100,25.750,8.531,385.300,129.900,38.990,13.370,hard
1412.000,370.700,112.100,31.270,1614.000,368.200,103.600,27.630,271.800,121.000,25.770,8.542,385.300,129.900,38.990,13.370,hard
1415.000,372.900,112.100,31.370,1616.000,368.300,103.800,27.600,269.200,121.400,25.820,8.545,385.600,130.200,39.100,13.400,hard
1417.000,372.600,112.600,31.370,1617.000,368.100,104.100,27.680,273.100,121.100,25.810,8.560,387.400,130.700,39.090,13.420,hard
1420.000,374.000,112.800,31.510,1616.000,368.500,103.900,27.670,273.900,121.500,25.820,8.565,387.100,130.700,39.200,13.470,hard
1422.000,375.100,113.100,31.590,1618.000,368.800,104.000,27.700,271.100,121.800,25.860,8.581,388.100,130.800,39.310,13.490,hard
1425.000,375.400,113.100,31.670,1620.000,368.500,104.100,27.730,274.600,121.100,25.840,8.570,388.200,131.200,39.350,13.520,hard
1427.000,375.200,113.300,31.840,1622.000,369.500,104.100,27.790,272.700,121.500,25.890,8.600,389.200,131.600,39.500,13.550,hard
1425.000,374.600,112.600,31.380,1615.000,368.100,103.700,27.610,271.600,121.500,25.850,8.582,386.100,130.300,39.120,13.360,hard
1411.000,370.400,111.800,31.090,1614.000,367.300,103.600,27.540,272.100,121.400,25.830,8.554,386.300,130.000,38.950,13.300,hard
1408.000,370.600,111.900,30.990,1616.000,366.100,103.300,27.510,271.400,121.100,25.780,8.536,385.100,129.700,38.950,13.290,hard
1408.000,369.400,111.600,30.980,1616.000,367.300,103.600,27.540,271.000,121.200,25.760,8.538,384.900,129.700,38.900,13.280,hard
1408.000,367.800,111.500,31.000,1614.000,366.800,103.300,27.530,271.000,121.000,25.790,8.538,384.400,129.500,38.810,13.260,hard
1407.000,369.100,111.400,31.040,1615.000,366.300,103.300,27.500,271.300,121.500,25.760,8.548,384.500,129.600,38.900,13.270,hard
1410.000,369.600,111.400,31.110,1616.000,367.400,103.600,27.570,271.200,121.300,25.770,8.543,384.500,129.900,38.810,13.310,hard
1412.000,371.400,111.900,31.190,1616.000,367.900,103.600,27.560,269.400,121.200,25.820,8.556,385.000,129.900,39.040,13.340,hard
1414.000,370.600,112.200,31.200,1618.000,367.300,103.700,27.590,271.400,121.200,25.830,8.576,385.500,130.200,39.060,13.360,hard
1417.000,371.100,112.100,31.400,1613.000,367.300,103.700,27.610,271.400,121.400,25.880,8.583,385.700,130.300,39.060,13.380,hard
1419.000,372.500,112.700,31.430,1620.000,367.800,103.800,27.700,271.500,121.300,25.850,8.586,386.500,130.500,39.150,13.440,hard
1421.000,373.500,113.300,31.520,1620.000,369.000,104.000,27.720,272.500,121.500,25.960,8.603,387.000,130.900,39.280,13.480,hard
1425.000,375.600,113.400,31.670,1619.000,369.100,103.900,27.770,272.000,121.700,25.950,8.625,387.800,131.000,39.460,13.540,hard
1430.000,376.500,113.700,31.740,1626.000,369.100,104.100,27.790,272.000,121.900,25.950,8.632,388.800,131.400,39.490,13.590,hard
1433.000,376.400,114.400,31.810,1624.000,370.100,104.000,27.730,272.900,122.100,26.030,8.635,388.800,131.200,39.390,13.460,hard
1415.000,372.200,112.100,31.190,1614.000,368.100,103.500,27.570,271.800,121.700,25.900,8.588,385.800,130.200,39.090,13.350,hard
1409.000,369.900,111.700,31.100,1617.000,367.700,103.400,27.570,271.100,121.700,25.810,8.559,385.000,130.000,38.920,13.320,hard
1407.000,369.300,111.400,30.930,1612.000,367.400,103.500,27.520,271.800,121.600,25.870,8.552,384.800,129.800,38.940,13.320,hard
1407.000,370.500,111.500,31.040,1616.000,367.700,103.400,27.520,273.700,121.600,25.830,8.577,384.700,129.800,38.930,13.280,hard
1406.000,370.100,111.300,31.080,1614.000,367.700,103.400,27.530,271.700,121.400,25.810,8.571,384.300,129.500,38.910,13.280,hard
1406.000,369.500,111.600,31.050,1614.000,366.800,103.600,27.530,273.100,121.500,25.850,8.563,384.000,129.900,38.880,13.290,hard
1409.000,370.800,111.800,31.130,1615.000,367.100,103.700,27.620,272.400,121.500,25.850,8.567,384.200,130.000,39.030,13.350,hard
1411.000,370.700,112.400,31.180,1616.000,368.000,103.600,27.620,270.700,121.600,25.890,8.597,385.200,130.000,38.990,13.390,hard
1413.000,371.800,112.500,31.220,1619.000,367.600,103.700,27.630,271.200,121.600,25.920,8.589,385.800,130.400,39.110,13.380,hard
1416.000,372.100,112.500,31.340,1620.000,368.100,103.700,27.660,271.000,121.500,25.910,8.584,386.000,130.500,39.180,13.410,hard
1418.000,374.300,112.700,31.440,1614.000,368.200,103.900,27.730,272.800,121.800,25.940,8.605,386.400,130.700,39.280,13.490,hard
