A-DC1,A-DC2,A-DC3,A-DC4,A-DC5,A-DC6,A-DC7,A-DC8,B-DC1,B-DC2,B-DC3,B-DC4,B-DC5,B-DC6,B-DC7,B-DC8,condition
1436.000,271.700,72.540,25.250,667.800,122.600,27.310,10.000,-0.477,0.402,0.142,0.034,10.790,3.111,0.848,0.208,baseline
1433.000,272.400,71.870,25.280,666.700,122.700,27.190,9.988,-0.386,0.411,0.141,0.033,10.740,3.100,0.852,0.208,baseline
1435.000,270.000,72.450,25.250,666.600,122.700,27.380,9.977,-0.477,0.401,0.140,0.033,10.760,3.108,0.852,0.209,baseline
1433.000,273.800,72.140,25.290,670.100,123.100,27.290,10.010,-0.501,0.397,0.139,0.033,10.770,3.121,0.856,0.210,baseline
1436.000,272.200,72.730,25.350,669.700,123.100,27.550,10.010,-0.432,0.410,0.139,0.034,10.830,3.120,0.861,0.209,baseline
1440.000,274.500,72.660,25.470,672.900,123.000,27.410,10.040,-0.525,0.409,0.141,0.033,10.830,3.126,0.862,0.212,baseline
1443.000,275.000,73.000,25.430,670.900,122.600,27.510,10.020,-0.570,0.413,0.142,0.033,10.840,3.131,0.864,0.212,baseline
1446.000,277.000,73.510,25.740,674.400,122.800,27.520,10.010,-0.496,0.405,0.142,0.033,10.890,3.133,0.863,0.213,baseline
1451.000,276.100,73.920,25.710,673.400,124.600,27.840,10.110,-0.492,0.397,0.144,0.034,10.880,3.161,0.868,0.214,baseline
1455.000,278.300,73.660,25.710,666.100,123.300,27.400,10.030,-0.461,0.402,0.142,0.034,10.900,3.144,0.868,0.212,baseline
1443.000,275.200,73.420,25.460,669.300,123.500,27.280,10.010,-0.477,0.403,0.142,0.033,10.830,3.140,0.859,0.212,baseline
1440.000,273.600,72.320,25.330,672.900,124.000,27.480,10.050,-0.358,0.402,0.142,0.033,10.880,3.132,0.869,0.211,baseline
1442.000,272.200,72.650,25.370,667.500,122.300,26.960,9.958,-0.437,0.393,0.144,0.034,10.830,3.149,0.860,0.212,baseline
1439.000,271.300,72.870,25.440,672.400,123.600,27.530,10.030,-0.417,0.402,0.141,0.034,10.870,3.155,0.861,0.211,baseline
1441.000,272.700,72.570,25.590,668.600,123.200,27.620,10.050,-0.428,0.407,0.141,0.034,10.900,3.156,0.867,0.212,baseline
1444.000,276.800,73.140,25.590,671.100,123.800,27.470,10.090,-0.465,0.416,0.143,0.034,10.930,3.139,0.873,0.213,baseline
1451.000,274.400,73.640,25.740,677.500,122.600,27.770,10.070,-0.542,0.399,0.144,0.034,10.950,3.167,0.877,0.214,baseline
1454.000,276.600,73.480,25.930,671.500,124.800,27.320,10.130,-0.526,0.407,0.141,0.033,10.940,3.186,0.876,0.213,baseline
1457.000,277.700,74.440,25.930,675.500,124.000,27.660,10.190,-0.467,0.405,0.143,0.034,11.020,3.189,0.878,0.216,baseline
1456.000,274.700,73.550,25.800,665.200,123.800,27.660,10.020,-0.525,0.410,0.142,0.034,10.930,3.166,0.874,0.214,baseline
1446.000,276.200,73.700,25.500,669.200,123.300,27.500,10.110,-0.500,0.406,0.144,0.033,10.870,3.164,0.873,0.214,baseline
1447.000,275.300,73.510,25.690,669.300,124.000,27.560,10.130,-0.391,0.411,0.143,0.034,10.940,3.176,0.876,0.214,baseline
1449.000,276.600,73.420,25.650,666.300,123.700,27.380,10.040,-0.362,0.405,0.142,0.034,10.930,3.166,0.871,0.215,baseline
1450.000,273.100,73.830,25.690,670.000,123.100,27.580,10.040,-0.435,0.400,0.145,0.034,10.980,3.166,0.869,0.215,baseline
1452.000,277.900,73.570,25.800,673.500,123.500,27.750,10.080,-0.387,0.402,0.143,0.034,11.000,3.189,0.877,0.215,baseline
1457.000,276.400,74.410,26.020,675.100,123.000,27.860,10.130,-0.475,0.404,0.141,0.034,10.990,3.195,0.879,0.217,baseline
1461.000,280.300,74.680,26.130,671.900,123.400,27.800,10.190,-0.393,0.402,0.140,0.034,11.040,3.194,0.885,0.217,baseline
1467.000,279.200,75.270,26.180,670.400,124.300,27.770,10.130,-0.458,0.420,0.143,0.034,11.120,3.191,0.891,0.217,baseline
1464.000,277.700,74.050,25.930,676.600,124.700,27.750,10.130,-0.559,0.415,0.142,0.034,11.050,3.194,0.878,0.217,baseline
1454.000,277.300,73.830,25.930,679.200,123.700,27.670,10.070,-0.547,0.408,0.141,0.034,11.010,3.187,0.877,0.216,baseline
1455.000,274.200,74.090,25.880,672.800,124.400,27.590,10.060,-0.447,0.425,0.143,0.034,11.030,3.195,0.884,0.216,baseline
1458.000,276.400,74.320,25.800,673.100,123.800,27.500,10.110,-0.541,0.409,0.144,0.034,11.000,3.205,0.873,0.215,baseline
1457.000,277.900,74.110,26.030,673.400,123.900,27.480,10.140,-0.561,0.410,0.143,0.034,11.020,3.188,0.885,0.216,baseline
1461.000,277.600,74.820,26.030,673.700,123.000,27.770,10.170,-0.428,0.406,0.144,0.034,11.020,3.191,0.884,0.217,baseline
1465.000,281.700,74.130,26.250,678.900,123.700,27.720,10.210,-0.314,0.411,0.145,0.035,11.040,3.214,0.882,0.219,baseline
1469.000,280.100,74.810,26.350,678.200,124.500,28.000,10.270,-0.397,0.412,0.143,0.035,11.070,3.211,0.887,0.220,baseline
1472.000,277.900,75.570,26.280,677.400,124.600,27.810,10.200,-0.367,0.421,0.142,0.035,11.130,3.206,0.888,0.218,baseline
1466.000,277.400,74.570,26.140,676.400,124.200,27.900,10.210,-0.422,0.415,0.142,0.034,11.120,3.172,0.884,0.216,baseline
1460.000,280.600,73.440,26.150,670.900,124.000,27.710,10.240,-0.516,0.418,0.143,0.034,10.980,3.208,0.875,0.216,baseline
1464.000,279.300,74.530,26.070,672.200,123.700,27.760,10.220,-0.512,0.417,0.144,0.034,11.030,3.183,0.880,0.216,baseline
1461.000,278.400,74.380,26.160,676.500,123.300,27.700,10.160,-0.521,0.402,0.144,0.034,11.050,3.181,0.878,0.217,baseline
1463.000,279.800,74.390,26.110,674.600,124.500,28.040,10.230,-0.503,0.422,0.144,0.034,11.010,3.207,0.887,0.218,baseline
1467.000,278.500,74.920,26.260,672.600,124.600,27.860,10.320,-0.520,0.411,0.143,0.034,11.100,3.208,0.892,0.219,baseline
1469.000,280.500,74.760,26.140,678.500,124.500,27.800,10.250,-0.465,0.416,0.145,0.034,11.090,3.202,0.882,0.220,baseline
1473.000,282.600,75.440,26.530,677.900,125.400,27.980,10.240,-0.460,0.408,0.144,0.034,11.100,3.204,0.883,0.220,baseline
1472.000,283.200,74.620,26.080,675.300,125.100,27.640,10.160,-0.456,0.415,0.143,0.034,11.010,3.207,0.881,0.218,baseline
1461.000,278.300,74.430,25.990,673.200,124.500,27.730,10.160,-0.412,0.410,0.144,0.035,10.990,3.190,0.879,0.216,baseline
1461.000,279.200,73.890,26.020,674.100,124.300,27.630,10.160,-0.441,0.402,0.143,0.034,10.990,3.189,0.877,0.216,baseline
1462.000,278.500,74.120,26.040,675.600,125.000,27.810,10.200,-0.411,0.408,0.145,0.034,10.990,3.184,0.880,0.217,baseline
1462.000,277.900,73.860,26.030,673.600,124.100,27.780,10.210,-0.433,0.414,0.144,0.034,10.980,3.177,0.879,0.218,baseline
1465.000,278.300,74.380,26.080,673.000,124.000,28.080,10.230,-0.424,0.414,0.144,0.034,11.020,3.201,0.879,0.216,baseline
1468.000,280.300,74.430,26.260,676.000,123.900,27.950,10.310,-0.465,0.416,0.144,0.034,11.000,3.203,0.876,0.217,baseline
1471.000,280.900,75.220,26.210,672.000,125.600,28.170,10.220,-0.457,0.416,0.145,0.034,11.110,3.181,0.887,0.219,baseline
1474.000,281.300,75.920,26.370,674.400,125.400,27.840,10.250,-0.553,0.415,0.143,0.035,11.060,3.190,0.880,0.218,baseline
1465.000,277.900,74.580,26.070,672.000,124.300,27.830,10.230,-0.513,0.410,0.148,0.034,11.000,3.201,0.870,0.215,baseline
1458.000,276.600,73.790,25.940,675.000,123.900,27.770,10.210,-0.499,0.412,0.143,0.034,10.970,3.161,0.868,0.215,baseline
1458.000,276.900,73.930,25.950,674.000,124.100,28.010,10.260,-0.487,0.404,0.147,0.034,10.970,3.199,0.872,0.214,baseline
1457.000,279.200,73.090,25.830,677.900,124.400,27.890,10.180,-0.417,0.405,0.144,0.034,10.970,3.170,0.862,0.214,baseline
1457.000,277.200,73.820,25.850,672.900,124.000,27.940,10.180,-0.387,0.402,0.142,0.034,10.920,3.166,0.867,0.213,baseline
1462.000,278.600,74.720,26.150,671.900,123.700,27.770,10.270,-0.450,0.399,0.145,0.035,10.930,3.173,0.865,0.214,baseline
1465.000,278.200,74.560,26.140,675.900,124.800,27.990,10.230,-0.422,0.407,0.144,0.035,10.970,3.174,0.873,0.215,baseline
1467.000,278.300,74.490,26.230,677.400,124.700,28.130,10.340,-0.539,0.423,0.144,0.034,10.940,3.182,0.876,0.216,baseline
1470.000,282.100,75.210,26.290,681.200,125.100,27.880,10.250,-0.522,0.409,0.144,0.035,11.010,3.167,0.879,0.216,baseline
1468.000,278.800,74.550,26.080,672.600,124.200,27.880,10.230,-0.457,0.415,0.144,0.034,10.930,3.151,0.860,0.214,baseline
1457.000,276.200,73.790,25.900,671.800,123.800,27.670,10.220,-0.556,0.419,0.142,0.034,10.940,3.148,0.856,0.211,baseline
1454.000,277.200,73.980,25.750,676.700,123.600,27.680,10.250,-0.565,0.407,0.142,0.034,10.830,3.134,0.862,0.212,baseline
1454.000,276.800,74.290,25.900,672.100,124.000,27.890,10.270,-0.539,0.413,0.143,0.034,10.860,3.124,0.861,0.212,baseline
1454.000,276.200,73.770,25.910,672.500,124.300,27.920,10.280,-0.468,0.413,0.143,0.034,10.870,3.148,0.861,0.212,baseline
1457.000,276.900,74.080,26.110,678.900,125.000,27.820,10.250,-0.475,0.408,0.143,0.034,10.880,3.156,0.865,0.211,baseline
1460.000,279.100,75.180,26.120,673.700,122.800,28.100,10.300,-0.309,0.400,0.142,0.034,10.880,3.142,0.864,0.213,baseline
1463.000,278.600,75.080,26.290,671.900,123.200,27.740,10.350,-0.447,0.403,0.144,0.034,10.950,3.157,0.866,0.212,baseline
1466.000,283.200,75.010,26.270,672.500,124.400,27.980,10.360,-0.437,0.414,0.144,0.034,10.930,3.164,0.865,0.214,baseline
1469.000,280.500,74.990,26.530,675.600,124.200,28.030,10.380,-0.389,0.409,0.145,0.034,10.870,3.160,0.864,0.214,baseline
1473.000,281.600,75.490,26.290,673.100,125.100,27.980,10.290,-0.535,0.410,0.145,0.034,10.870,3.147,0.864,0.211,baseline
1459.000,277.600,74.240,26.080,668.700,123.800,27.780,10.350,-0.549,0.411,0.142,0.033,10.770,3.116,0.858,0.211,baseline
1455.000,277.900,73.910,26.070,677.500,123.800,27.780,10.230,-0.517,0.409,0.141,0.033,10.800,3.111,0.853,0.209,baseline
1456.000,277.600,74.030,26.140,666.300,123.200,27.670,10.310,-0.539,0.406,0.142,0.034,10.840,3.130,0.852,0.210,baseline
1454.000,278.700,73.610,25.940,673.500,123.600,27.850,10.270,-0.479,0.408,0.142,0.034,10.840,3.117,0.852,0.210,baseline
1456.000,276.800,74.760,26.100,674.800,123.700,28.030,10.320,-0.516,0.392,0.142,0.033,10.800,3.126,0.856,0.210,baseline
1459.000,278.800,74.720,26.260,671.400,124.300,27.940,10.310,-0.526,0.400,0.143,0.034,10.770,3.109,0.851,0.209,baseline
1461.000,277.700,75.390,26.110,671.900,124.700,28.020,10.320,-0.484,0.410,0.143,0.034,10.810,3.140,0.858,0.211,baseline
1465.000,281.600,74.760,26.310,668.900,123.800,27.960,10.400,-0.459,0.392,0.141,0.034,10.770,3.128,0.857,0.210,baseline
1468.000,279.700,75.240,26.600,674.100,125.200,28.050,10.380,-0.413,0.397,0.140,0.034,10.810,3.132,0.864,0.212,baseline
1472.000,279.700,75.670,26.490,673.200,125.500,27.920,10.430,-0.501,0.405,0.142,0.034,10.840,3.141,0.860,0.211,baseline
1467.000,278.900,74.740,26.460,679.400,125.300,28.170,10.290,-0.419,0.405,0.141,0.034,10.780,3.107,0.852,0.209,baseline
1458.000,276.900,74.700,26.080,669.700,123.900,27.570,10.290,-0.547,0.413,0.140,0.034,10.650,3.101,0.852,0.208,baseline
1458.000,277.500,74.550,26.320,672.000,123.500,28.000,10.260,-0.532,0.396,0.140,0.034,10.760,3.115,0.853,0.209,baseline
1458.000,276.100,74.400,26.230,673.100,124.000,27.850,10.260,-0.568,0.411,0.140,0.034,10.780,3.098,0.848,0.209,baseline
1459.000,279.500,74.480,26.390,675.300,124.700,27.920,10.350,-0.590,0.393,0.142,0.033,10.760,3.097,0.855,0.209,baseline
1463.000,277.400,75.040,26.480,673.000,124.500,27.980,10.360,-0.582,0.406,0.142,0.034,10.770,3.100,0.853,0.210,baseline
1465.000,279.500,74.640,26.530,678.700,124.800,28.000,10.450,-0.562,0.391,0.144,0.034,10.770,3.107,0.851,0.211,baseline
1469.000,278.600,75.780,26.590,675.500,124.800,27.890,10.400,-0.438,0.395,0.141,0.034,10.770,3.135,0.857,0.211,baseline
1474.000,281.100,76.480,26.580,680.100,125.500,28.000,10.430,-0.445,0.398,0.141,0.034,10.790,3.129,0.865,0.211,baseline
1477.000,283.300,76.330,26.870,677.000,125.800,28.460,10.410,-0.307,0.399,0.142,0.034,10.790,3.144,0.859,0.210,baseline
1476.000,280.400,75.280,26.480,676.200,124.800,28.230,10.390,-0.411,0.393,0.141,0.034,10.770,3.135,0.850,0.209,baseline
1466.000,281.500,75.210,26.480,673.900,124.600,28.050,10.360,-0.505,0.391,0.139,0.034,10.730,3.073,0.850,0.209,baseline
1467.000,280.000,75.330,26.550,673.600,123.700,28.120,10.390,-0.500,0.402,0.142,0.034,10.750,3.095,0.851,0.209,baseline
1468.000,280.800,75.570,26.390,675.000,124.000,28.240,10.440,-0.571,0.399,0.142,0.034,10.780,3.093,0.847,0.209,baseline
1467.000,281.000,75.320,26.500,677.900,124.700,28.060,10.400,-0.605,0.409,0.142,0.034,10.720,3.088,0.850,0.209,baseline
1470.000,283.100,75.250,26.670,680.300,125.700,28.010,10.420,-0.618,0.408,0.141,0.034,10.680,3.112,0.855,0.210,baseline
1475.000,281.900,76.370,26.740,682.100,125.400,28.230,10.430,-0.559,0.404,0.142,0.034,10.770,3.098,0.854,0.212,baseline
1477.000,282.900,76.460,26.890,678.000,125.100,28.240,10.550,-0.458,0.408,0.142,0.034,10.790,3.119,0.856,0.211,baseline
1483.000,281.900,76.750,27.050,682.000,125.500,28.250,10.490,-0.425,0.396,0.143,0.033,10.820,3.132,0.861,0.212,baseline
1485.000,285.700,76.660,26.960,677.800,125.000,28.290,10.520,-0.397,0.410,0.141,0.034,10.800,3.113,0.860,0.212,baseline
1474.000,281.300,76.190,26.690,678.600,124.600,28.160,10.500,-0.458,0.400,0.141,0.034,10.710,3.106,0.849,0.208,baseline
1473.000,282.200,76.080,26.680,676.100,125.200,28.150,10.450,-0.433,0.398,0.141,0.034,10.710,3.103,0.853,0.211,baseline
1477.000,283.200,76.410,26.890,677.200,125.400,28.190,10.460,-0.482,0.399,0.143,0.033,10.750,3.116,0.854,0.209,baseline
1474.000,281.900,75.910,26.880,677.200,124.800,28.200,10.550,-0.433,0.403,0.141,0.034,10.710,3.102,0.849,0.208,baseline
1478.000,283.400,75.670,26.900,683.400,125.500,28.280,10.490,-0.500,0.408,0.142,0.034,10.780,3.115,0.859,0.210,baseline
1480.000,285.000,76.150,27.090,680.800,126.400,28.460,10.560,-0.502,0.409,0.142,0.034,10.760,3.124,0.854,0.211,baseline
1484.000,285.000,77.120,27.020,680.700,125.900,28.340,10.540,-0.583,0.405,0.139,0.034,10.850,3.113,0.861,0.212,baseline
1487.000,287.900,77.450,27.250,682.400,126.200,28.530,10.570,-0.494,0.398,0.143,0.034,10.830,3.133,0.868,0.216,baseline
1491.000,289.200,77.050,27.180,678.600,126.400,28.390,10.500,-0.467,0.403,0.141,0.034,10.810,3.122,0.859,0.211,baseline
1480.000,283.900,76.350,26.920,678.700,125.500,28.190,10.410,-0.490,0.399,0.141,0.034,10.770,3.103,0.853,0.212,baseline
1477.000,282.200,76.030,26.720,680.100,126.100,28.140,10.470,-0.459,0.399,0.141,0.033,10.740,3.100,0.849,0.210,baseline
1477.000,283.700,76.430,26.760,676.500,125.200,28.260,10.440,-0.467,0.388,0.142,0.033,10.760,3.104,0.855,0.208,baseline
1475.000,282.100,75.900,26.770,674.100,124.800,28.370,10.510,-0.435,0.401,0.142,0.034,10.790,3.116,0.851,0.209,baseline
1476.000,283.400,77.060,26.860,681.500,125.400,28.540,10.530,-0.447,0.403,0.141,0.034,10.730,3.110,0.852,0.210,baseline
1482.000,286.200,76.350,27.000,679.200,125.800,28.490,10.600,-0.448,0.397,0.138,0.034,10.790,3.108,0.860,0.211,baseline
1484.000,286.300,76.950,27.170,677.900,125.700,28.320,10.570,-0.460,0.404,0.140,0.034,10.840,3.110,0.861,0.211,baseline
1489.000,289.100,77.400,27.290,681.500,126.200,28.550,10.620,-0.454,0.405,0.144,0.034,10.840,3.150,0.863,0.214,baseline
1494.000,287.400,77.180,27.150,683.600,126.600,28.320,10.520,-0.506,0.412,0.144,0.034,10.840,3.120,0.858,0.212,baseline
1482.000,283.000,75.900,26.850,679.900,125.400,28.280,10.550,-0.541,0.405,0.142,0.034,10.710,3.118,0.854,0.210,baseline
1475.000,283.100,75.960,26.920,684.100,124.900,28.180,10.520,-0.562,0.407,0.141,0.033,10.740,3.091,0.855,0.209,baseline
1477.000,283.300,76.240,26.920,679.200,126.100,28.350,10.580,-0.594,0.405,0.142,0.034,10.770,3.102,0.851,0.208,baseline
1474.000,283.000,76.050,26.870,680.600,125.400,28.440,10.530,-0.515,0.397,0.143,0.033,10.750,3.085,0.849,0.210,baseline
1476.000,282.100,76.510,26.940,680.800,125.300,28.300,10.520,-0.438,0.388,0.140,0.033,10.810,3.098,0.855,0.209,baseline
1479.000,281.100,76.030,27.060,677.700,126.200,28.230,10.600,-0.456,0.395,0.141,0.034,10.760,3.115,0.852,0.211,baseline
1483.000,284.100,77.200,27.120,681.300,125.700,28.570,10.550,-0.400,0.402,0.141,0.034,10.810,3.122,0.861,0.213,baseline
1486.000,285.900,76.730,27.340,677.300,126.100,28.640,10.670,-0.452,0.412,0.143,0.034,10.830,3.129,0.862,0.213,baseline
1489.000,287.300,77.430,27.340,684.900,125.200,28.470,10.600,-0.413,0.412,0.142,0.035,10.800,3.129,0.858,0.212,baseline
1481.000,285.400,76.870,26.950,679.300,125.800,28.480,10.580,-0.518,0.406,0.145,0.034,10.790,3.106,0.852,0.209,baseline
1474.000,283.000,76.520,26.910,675.500,125.300,28.400,10.570,-0.513,0.406,0.141,0.034,10.780,3.115,0.856,0.209,baseline
1475.000,281.800,76.600,26.930,677.200,124.900,28.470,10.550,-0.578,0.401,0.142,0.034,10.790,3.096,0.855,0.209,baseline
1473.000,281.300,76.700,26.740,681.200,125.900,28.350,10.580,-0.542,0.396,0.143,0.034,10.770,3.116,0.853,0.210,baseline
1475.000,282.200,75.710,26.960,677.000,125.700,28.680,10.620,-0.544,0.405,0.143,0.034,10.790,3.116,0.854,0.210,baseline
1476.000,281.900,76.830,27.090,681.600,125.900,28.390,10.700,-0.483,0.407,0.143,0.035,10.760,3.104,0.851,0.212,baseline
1481.000,283.800,76.430,27.160,682.500,126.500,28.540,10.660,-0.414,0.413,0.144,0.034,10.810,3.134,0.859,0.214,baseline
1484.000,284.600,77.230,27.270,682.800,126.400,28.450,10.600,-0.483,0.404,0.145,0.034,10.880,3.140,0.857,0.215,baseline
1489.000,286.200,77.790,27.360,685.000,125.300,28.680,10.640,-0.424,0.403,0.147,0.034,10.870,3.145,0.861,0.211,baseline
1484.000,285.100,76.690,26.990,677.700,126.000,28.560,10.620,-0.507,0.417,0.144,0.035,10.870,3.103,0.860,0.212,baseline
1475.000,278.500,75.850,26.820,679.800,125.300,28.410,10.590,-0.480,0.406,0.142,0.035,10.820,3.117,0.857,0.210,baseline
1474.000,281.100,76.460,27.050,680.500,125.000,28.470,10.590,-0.435,0.408,0.141,0.034,10.800,3.113,0.856,0.210,baseline
1475.000,284.700,75.580,26.790,681.500,125.700,28.340,10.590,-0.519,0.408,0.143,0.034,10.860,3.116,0.861,0.209,baseline
1474.000,284.000,75.750,26.980,683.100,125.100,28.540,10.650,-0.496,0.403,0.144,0.035,10.810,3.123,0.856,0.211,baseline
1477.000,283.800,76.530,27.010,680.200,126.400,28.920,10.600,-0.496,0.404,0.144,0.034,10.870,3.126,0.859,0.212,baseline
1482.000,284.500,77.290,27.140,681.700,126.800,28.580,10.580,-0.552,0.417,0.146,0.034,10.850,3.126,0.863,0.215,baseline
1483.000,285.900,77.050,27.220,684.200,126.400,28.920,10.670,-0.542,0.415,0.144,0.035,10.970,3.129,0.868,0.212,baseline
1490.000,282.300,77.200,27.430,680.100,126.300,28.650,10.640,-0.418,0.410,0.146,0.035,10.910,3.164,0.870,0.213,baseline
1486.000,283.300,76.190,27.090,682.900,126.900,28.600,10.620,-0.388,0.411,0.146,0.035,10.870,3.121,0.862,0.212,baseline
1476.000,285.000,75.980,27.050,679.600,126.600,28.690,10.680,-0.469,0.408,0.145,0.034,10.870,3.137,0.860,0.210,baseline
1477.000,281.800,76.470,27.100,683.500,125.400,28.610,10.650,-0.322,0.406,0.143,0.035,10.860,3.125,0.859,0.210,baseline
1478.000,283.100,76.740,26.970,679.300,125.300,28.590,10.660,-0.363,0.404,0.143,0.035,10.930,3.133,0.864,0.212,baseline
1477.000,283.300,76.990,27.110,687.100,125.600,28.630,10.610,-0.410,0.417,0.143,0.034,10.840,3.130,0.869,0.214,baseline
1482.000,283.500,77.350,27.220,676.800,126.400,28.720,10.670,-0.422,0.418,0.145,0.035,10.940,3.164,0.864,0.214,baseline
1484.000,285.100,76.660,27.270,685.000,125.900,28.650,10.690,-0.495,0.416,0.143,0.035,10.920,3.158,0.871,0.214,baseline
1487.000,286.500,76.910,27.510,683.800,127.300,28.710,10.770,-0.528,0.424,0.146,0.035,11.000,3.153,0.869,0.215,baseline
1491.000,284.900,77.400,27.320,684.800,127.000,28.710,10.700,-0.500,0.427,0.148,0.035,10.940,3.159,0.865,0.212,baseline
1480.000,282.500,76.390,27.040,680.200,126.000,28.660,10.570,-0.557,0.416,0.145,0.034,10.880,3.149,0.864,0.212,baseline
1478.000,283.200,76.240,27.080,683.800,126.000,28.760,10.720,-0.464,0.423,0.147,0.034,10.940,3.151,0.859,0.213,baseline
1479.000,284.600,76.530,27.030,681.600,125.500,28.480,10.700,-0.491,0.403,0.146,0.035,10.910,3.140,0.863,0.212,baseline
1476.000,282.700,76.360,27.050,682.000,125.900,28.550,10.710,-0.354,0.414,0.145,0.035,10.890,3.168,0.867,0.213,baseline
1478.000,280.900,76.300,27.030,675.900,125.700,28.560,10.710,-0.331,0.415,0.146,0.035,10.910,3.157,0.871,0.212,baseline
1482.000,285.900,76.490,27.140,680.900,125.700,28.690,10.720,-0.366,0.419,0.146,0.035,10.970,3.164,0.877,0.213,baseline
1485.000,284.000,77.230,27.400,685.200,125.400,28.800,10.750,-0.390,0.413,0.148,0.036,10.990,3.162,0.869,0.215,baseline
1490.000,283.600,77.370,27.500,684.800,127.400,28.880,10.790,-0.373,0.427,0.146,0.035,11.020,3.166,0.873,0.215,baseline
1489.000,285.800,77.330,27.090,684.300,125.400,28.600,10.660,-0.422,0.422,0.146,0.035,10.970,3.142,0.866,0.211,baseline
1476.000,280.000,76.000,27.030,679.400,124.800,28.590,10.620,-0.596,0.437,0.144,0.035,10.940,3.135,0.857,0.211,baseline
1472.000,282.600,75.890,26.920,682.200,126.400,28.650,10.650,-0.492,0.424,0.143,0.035,10.930,3.131,0.858,0.210,baseline
1471.000,278.600,76.230,26.920,676.500,126.300,28.430,10.630,-0.445,0.423,0.145,0.035,10.890,3.141,0.859,0.211,baseline
1473.000,279.900,76.620,26.930,675.400,125.700,28.550,10.640,-0.541,0.411,0.147,0.035,10.900,3.162,0.855,0.211,baseline
1475.000,281.300,76.480,26.970,679.700,125.900,28.400,10.670,-0.394,0.412,0.147,0.035,10.930,3.140,0.852,0.211,baseline
1476.000,282.600,76.430,27.170,679.600,126.500,28.670,10.720,-0.419,0.428,0.147,0.035,10.960,3.161,0.859,0.211,baseline
1480.000,284.300,77.060,27.080,683.000,126.200,28.830,10.660,-0.441,0.424,0.145,0.035,10.950,3.169,0.869,0.214,baseline
1483.000,284.800,77.240,27.240,680.900,126.900,28.850,10.690,-0.379,0.415,0.144,0.035,10.980,3.162,0.868,0.211,baseline
1483.000,285.100,76.120,27.010,681.700,125.600,28.490,10.610,-0.397,0.424,0.147,0.036,10.900,3.132,0.854,0.208,baseline
1469.000,281.100,75.690,26.900,678.800,125.400,28.410,10.570,-0.470,0.431,0.144,0.035,10.840,3.122,0.859,0.207,baseline
1466.000,279.300,74.830,26.800,679.800,125.000,28.430,10.640,-0.417,0.428,0.145,0.035,10.900,3.130,0.848,0.207,baseline
1466.000,278.300,75.110,26.630,680.300,125.400,28.550,10.670,-0.477,0.419,0.146,0.035,10.880,3.132,0.853,0.207,baseline
1465.000,280.100,75.500,26.750,679.700,125.700,28.390,10.670,-0.581,0.422,0.146,0.035,10.840,3.119,0.854,0.207,baseline
1467.000,282.700,76.050,26.790,673.400,125.000,28.650,10.670,-0.463,0.424,0.147,0.035,10.850,3.146,0.851,0.209,baseline
1469.000,283.200,75.690,26.880,685.000,125.700,28.540,10.670,-0.493,0.425,0.148,0.035,10.920,3.133,0.858,0.208,baseline
1471.000,279.600,75.940,26.900,677.100,126.500,28.430,10.690,-0.525,0.419,0.148,0.035,10.890,3.139,0.852,0.211,baseline
1474.000,282.200,76.660,27.010,680.300,126.300,28.510,10.690,-0.438,0.419,0.149,0.035,10.990,3.150,0.852,0.211,baseline
1480.000,284.300,76.990,27.170,676.100,126.000,28.320,10.650,-0.397,0.415,0.147,0.035,10.960,3.146,0.860,0.210,baseline
1471.000,279.100,76.570,26.780,678.800,124.800,28.240,10.640,-0.402,0.413,0.147,0.034,10.860,3.145,0.850,0.207,baseline
1462.000,279.600,75.500,26.880,674.200,125.300,28.550,10.610,-0.422,0.425,0.145,0.035,10.840,3.113,0.845,0.207,baseline
1461.000,278.700,75.710,26.670,679.600,125.500,28.550,10.570,-0.438,0.415,0.146,0.035,10.860,3.126,0.843,0.207,baseline
1461.000,279.100,75.110,26.490,678.800,125.300,28.620,10.660,-0.479,0.424,0.146,0.035,10.830,3.097,0.848,0.206,baseline
1461.000,279.400,75.640,26.750,677.000,125.500,28.390,10.610,-0.450,0.426,0.145,0.035,10.870,3.124,0.850,0.207,baseline
1465.000,279.700,76.180,26.720,682.800,125.100,28.640,10.740,-0.509,0.425,0.145,0.035,10.900,3.128,0.849,0.207,baseline
1468.000,281.400,76.240,26.890,680.700,126.200,28.570,10.650,-0.470,0.422,0.146,0.035,10.870,3.135,0.855,0.208,baseline
1469.000,280.700,76.380,26.870,677.600,125.900,28.350,10.710,-0.542,0.437,0.146,0.035,10.930,3.126,0.856,0.210,baseline
1473.000,281.700,76.510,26.950,681.300,125.800,28.570,10.740,-0.435,0.423,0.147,0.035,10.950,3.136,0.854,0.211,baseline
1479.000,286.000,77.140,27.210,677.300,126.000,28.840,10.710,-0.454,0.413,0.147,0.035,10.950,3.155,0.857,0.211,baseline
1477.000,281.400,76.410,26.800,682.700,125.600,28.270,10.650,-0.408,0.418,0.149,0.035,10.900,3.129,0.849,0.206,baseline
1465.000,280.000,75.260,26.850,681.000,126.000,28.520,10.650,-0.414,0.421,0.147,0.035,10.860,3.148,0.846,0.206,baseline
1465.000,281.700,75.320,26.840,677.700,125.900,28.540,10.660,-0.387,0.424,0.148,0.035,10.830,3.112,0.849,0.208,baseline
1464.000,280.100,75.500,26.720,678.500,125.900,28.330,10.650,-0.453,0.427,0.146,0.035,10.850,3.127,0.839,0.207,baseline
1463.000,278.900,75.300,26.890,683.900,125.900,28.680,10.670,-0.389,0.421,0.148,0.035,10.840,3.118,0.849,0.208,baseline
1468.000,282.900,75.480,26.670,678.300,126.600,28.880,10.730,-0.447,0.413,0.147,0.036,10.900,3.123,0.852,0.207,baseline
1470.000,278.900,75.900,26.980,680.900,126.500,28.590,10.670,-0.375,0.428,0.146,0.035,10.920,3.118,0.852,0.209,baseline
1476.000,283.000,76.410,27.150,678.800,126.600,28.790,10.730,-0.420,0.435,0.145,0.035,10.920,3.134,0.855,0.208,baseline
1477.000,282.600,76.440,27.260,681.000,126.400,28.790,10.730,-0.449,0.431,0.146,0.035,10.940,3.147,0.858,0.212,baseline
1483.000,284.400,77.220,27.230,688.800,126.300,28.710,10.700,-0.370,0.424,0.150,0.035,10.990,3.149,0.853,0.210,baseline
1476.000,283.000,76.260,26.900,685.400,126.500,28.300,10.700,-0.511,0.419,0.148,0.035,10.880,3.137,0.846,0.208,baseline
1468.000,282.100,75.760,26.870,674.600,126.600,28.410,10.690,-0.443,0.426,0.145,0.035,10.870,3.137,0.852,0.208,baseline
1471.000,282.700,76.220,27.060,677.900,125.700,28.730,10.670,-0.515,0.418,0.147,0.035,10.950,3.143,0.845,0.209,baseline
1469.000,283.300,76.430,26.810,679.000,125.200,28.600,10.720,-0.488,0.425,0.149,0.035,10.920,3.124,0.850,0.208,baseline
1472.000,280.100,76.990,27.030,682.600,126.200,28.750,10.770,-0.348,0.416,0.146,0.035,10.920,3.130,0.854,0.211,baseline
1475.000,281.500,77.060,27.030,683.900,126.500,28.570,10.770,-0.307,0.419,0.148,0.036,10.980,3.131,0.857,0.211,baseline
1480.000,283.500,77.080,27.230,684.100,126.200,28.760,10.750,-0.399,0.415,0.148,0.036,10.970,3.145,0.858,0.209,baseline
1482.000,284.500,77.290,27.340,684.500,125.600,28.880,10.760,-0.408,0.431,0.148,0.035,11.010,3.157,0.863,0.211,baseline
1486.000,287.300,77.690,27.510,691.100,127.200,28.980,10.840,-0.459,0.439,0.149,0.036,10.990,3.157,0.868,0.212,baseline
1491.000,287.700,77.680,27.410,684.000,127.200,28.900,10.750,-0.462,0.436,0.149,0.035,11.000,3.148,0.858,0.210,baseline
1474.000,282.900,76.050,27.130,684.400,126.700,28.690,10.700,-0.485,0.430,0.148,0.035,10.980,3.149,0.851,0.208,baseline
1473.000,280.300,75.960,26.940,687.500,126.300,28.610,10.720,-0.522,0.430,0.148,0.035,10.970,3.155,0.857,0.208,baseline
1474.000,282.100,76.510,27.050,682.100,125.900,28.550,10.690,-0.513,0.424,0.147,0.036,10.960,3.136,0.851,0.208,baseline
1472.000,281.400,76.290,26.950,683.300,126.100,28.760,10.740,-0.426,0.426,0.148,0.036,10.920,3.134,0.851,0.209,baseline
1476.000,283.100,77.190,27.190,685.300,126.900,28.790,10.800,-0.384,0.429,0.149,0.034,10.930,3.148,0.856,0.210,baseline
1480.000,286.200,77.720,27.340,679.400,126.300,29.020,10.740,-0.326,0.418,0.149,0.035,10.990,3.150,0.856,0.210,baseline
1482.000,284.200,77.650,27.450,685.500,127.400,28.880,10.740,-0.428,0.415,0.150,0.036,10.980,3.162,0.862,0.210,baseline
1487.000,287.300,77.260,27.520,679.500,127.500,28.740,10.800,-0.394,0.425,0.149,0.035,11.010,3.156,0.868,0.213,baseline
1490.000,287.400,78.010,27.680,686.000,126.600,28.940,10.780,-0.281,0.436,0.148,0.036,11.010,3.175,0.868,0.212,baseline
1490.000,285.100,77.430,27.270,692.700,126.100,28.820,10.760,-0.364,0.427,0.149,0.035,10.950,3.144,0.862,0.209,baseline
1475.000,282.600,76.280,27.180,685.200,126.500,28.960,10.710,-0.459,0.422,0.148,0.035,10.960,3.140,0.852,0.209,baseline
1473.000,280.500,76.110,27.090,684.700,128.300,28.810,10.770,-0.435,0.430,0.149,0.035,10.950,3.127,0.856,0.209,baseline
1471.000,282.400,76.770,27.140,684.700,127.500,28.590,10.690,-0.450,0.418,0.148,0.035,10.920,3.143,0.849,0.208,baseline
1470.000,282.000,77.060,27.020,682.000,127.400,28.810,10.770,-0.501,0.429,0.147,0.035,10.910,3.136,0.855,0.209,baseline
1475.000,283.400,76.690,27.280,682.900,125.600,28.640,10.760,-0.428,0.432,0.148,0.035,10.930,3.127,0.854,0.209,baseline
1476.000,283.200,77.460,27.370,691.600,127.000,28.890,10.760,-0.430,0.425,0.149,0.035,11.030,3.146,0.860,0.210,baseline
1482.000,284.700,77.380,27.250,692.000,126.700,28.780,10.710,-0.414,0.425,0.149,0.036,10.950,3.156,0.858,0.212,baseline
1485.000,288.800,78.120,27.490,687.300,126.900,29.200,10.800,-0.361,0.432,0.149,0.036,11.020,3.168,0.860,0.211,baseline
1489.000,287.400,77.740,27.610,689.900,127.300,29.000,10.830,-0.372,0.427,0.148,0.036,10.970,3.162,0.867,0.213,baseline
1494.000,287.100,77.670,27.490,682.600,126.700,29.110,10.800,-0.336,0.435,0.150,0.036,11.000,3.154,0.857,0.209,baseline
1478.000,285.000,76.680,27.210,681.800,126.600,28.880,10.710,-0.397,0.426,0.147,0.036,10.940,3.148,0.852,0.209,baseline
1474.000,281.800,76.300,27.300,681.800,126.700,28.710,10.740,-0.534,0.423,0.148,0.035,10.980,3.133,0.847,0.209,baseline
1472.000,282.700,76.360,27.070,685.400,127.000,28.840,10.730,-0.482,0.432,0.146,0.035,10.910,3.118,0.850,0.208,baseline
1470.000,278.900,76.020,27.060,683.700,126.300,28.790,10.720,-0.473,0.435,0.149,0.035,10.900,3.138,0.849,0.210,baseline
1473.000,283.900,76.700,27.180,688.200,126.400,28.570,10.810,-0.443,0.424,0.149,0.035,10.970,3.135,0.854,0.209,baseline
1477.000,280.500,77.120,27.180,684.600,127.400,29.000,10.780,-0.375,0.415,0.149,0.035,10.950,3.137,0.857,0.210,baseline
1480.000,284.600,77.320,27.290,684.700,126.500,29.050,10.800,-0.394,0.426,0.150,0.036,10.970,3.150,0.862,0.211,baseline
1484.000,283.100,77.200,27.540,680.600,127.200,28.980,10.830,-0.411,0.425,0.150,0.036,10.950,3.158,0.859,0.212,baseline
1486.000,285.200,77.680,27.620,686.400,128.200,29.230,10.870,-0.400,0.436,0.151,0.036,10.990,3.153,0.867,0.212,baseline
1491.000,289.200,78.350,27.690,691.900,128.100,29.060,10.840,-0.435,0.433,0.150,0.036,11.040,3.176,0.872,0.214,baseline
1494.000,284.400,77.690,27.570,685.600,127.400,29.140,10.840,-0.352,0.426,0.149,0.036,11.010,3.169,0.861,0.210,baseline
1478.000,283.800,76.530,27.190,688.900,127.700,28.630,10.770,-0.347,0.436,0.149,0.036,10.950,3.146,0.851,0.209,baseline
1476.000,284.100,77.240,27.000,686.200,127.900,28.640,10.760,-0.452,0.421,0.150,0.036,10.910,3.122,0.857,0.210,baseline
1474.000,283.100,76.710,26.980,687.400,126.600,28.810,10.700,-0.449,0.434,0.148,0.035,10.910,3.135,0.854,0.209,baseline
1474.000,282.600,76.210,27.050,684.800,125.700,28.970,10.760,-0.438,0.440,0.149,0.035,10.950,3.136,0.855,0.211,baseline
1478.000,283.500,77.040,27.170,692.100,127.200,28.830,10.740,-0.454,0.433,0.149,0.036,10.970,3.137,0.860,0.210,baseline
1479.000,285.000,77.350,27.240,685.600,128.100,29.100,10.790,-0.447,0.425,0.150,0.035,10.960,3.160,0.855,0.212,baseline
1483.000,284.500,77.270,27.430,679.200,127.000,28.750,10.800,-0.437,0.437,0.152,0.036,10.960,3.154,0.862,0.213,baseline
1486.000,283.900,78.660,27.720,678.800,127.700,29.030,10.860,-0.377,0.428,0.153,0.036,11.090,3.174,0.864,0.211,baseline
1491.000,286.000,78.150,27.740,692.800,127.500,29.110,10.910,-0.370,0.428,0.149,0.036,11.040,3.175,0.866,0.213,baseline
1494.000,286.800,78.270,27.610,687.500,127.300,29.100,10.820,-0.377,0.427,0.152,0.036,10.980,3.168,0.864,0.212,baseline
1482.000,286.200,76.750,27.200,687.300,126.700,28.930,10.740,-0.302,0.434,0.149,0.035,10.980,3.146,0.859,0.211,baseline
1479.000,282.900,77.420,27.340,688.000,126.800,28.960,10.800,-0.326,0.429,0.149,0.036,10.980,3.149,0.866,0.211,baseline
1479.000,284.300,77.140,27.270,689.700,127.500,28.830,10.830,-0.371,0.443,0.149,0.036,11.030,3.152,0.867,0.211,baseline
1479.000,284.300,77.540,27.240,686.800,128.300,28.980,10.750,-0.424,0.437,0.150,0.036,11.020,3.155,0.863,0.211,baseline
1482.000,287.400,77.390,27.390,688.500,127.500,29.230,10.800,-0.420,0.432,0.149,0.036,10.970,3.157,0.859,0.211,baseline
1484.000,283.000,77.370,27.500,686.400,127.600,29.110,10.860,-0.441,0.430,0.151,0.036,11.040,3.168,0.865,0.212,baseline
1490.000,287.500,77.890,27.620,686.800,127.700,29.250,10.860,-0.417,0.436,0.152,0.036,11.010,3.194,0.867,0.214,baseline
1492.000,288.000,78.620,27.640,694.100,128.300,29.420,10.900,-0.366,0.435,0.151,0.036,11.060,3.166,0.870,0.215,baseline
1496.000,287.200,78.970,27.830,692.700,127.800,29.000,10.840,-0.420,0.435,0.153,0.036,11.030,3.200,0.868,0.216,baseline
1496.000,286.100,78.470,27.550,688.800,127.400,29.120,10.810,-0.347,0.437,0.150,0.036,11.010,3.153,0.859,0.212,baseline
1480.000,284.200,76.830,27.290,684.800,127.500,28.960,10.750,-0.290,0.436,0.150,0.036,11.010,3.159,0.858,0.210,baseline
1480.000,283.600,77.180,27.410,685.000,127.500,28.780,10.860,-0.352,0.430,0.149,0.036,11.000,3.167,0.866,0.212,baseline
1482.000,284.700,77.270,27.320,689.000,126.700,28.830,10.810,-0.331,0.421,0.148,0.036,11.000,3.162,0.867,0.211,baseline
1478.000,281.800,76.950,27.340,685.500,127.200,29.070,10.810,-0.340,0.438,0.151,0.036,10.980,3.168,0.865,0.210,baseline
1482.000,284.100,77.540,27.400,687.600,127.700,28.950,10.810,-0.369,0.437,0.151,0.036,11.050,3.186,0.858,0.212,baseline
1484.000,285.700,77.330,27.480,691.700,128.100,28.710,10.830,-0.460,0.434,0.151,0.036,11.050,3.178,0.868,0.213,baseline
1488.000,288.600,77.560,27.560,687.000,126.800,29.120,10.870,-0.471,0.454,0.150,0.036,11.070,3.178,0.866,0.213,baseline
1492.000,288.100,77.680,27.650,692.300,127.400,29.150,10.910,-0.416,0.447,0.152,0.036,11.050,3.193,0.875,0.215,baseline
1496.000,287.000,78.510,27.850,693.100,127.600,29.040,10.890,-0.397,0.434,0.153,0.036,11.120,3.189,0.869,0.214,baseline
1487.000,286.900,77.150,27.370,690.400,126.700,28.890,10.750,-0.393,0.439,0.151,0.036,11.010,3.168,0.862,0.212,baseline
1475.000,283.600,76.510,27.130,684.700,127.100,29.030,10.710,-0.453,0.432,0.150,0.036,10.990,3.163,0.858,0.211,baseline
1474.000,284.900,76.980,27.110,683.900,128.000,29.120,10.800,-0.335,0.431,0.149,0.036,10.970,3.172,0.859,0.212,baseline
1473.000,279.700,76.690,27.150,686.700,127.200,28.890,10.780,-0.307,0.429,0.152,0.036,11.010,3.162,0.859,0.211,baseline
1472.000,282.500,76.420,27.160,688.600,127.300,28.860,10.800,-0.333,0.428,0.150,0.036,10.940,3.176,0.863,0.211,baseline
1474.000,281.600,76.980,27.260,688.400,126.100,29.000,10.830,-0.314,0.440,0.151,0.036,11.010,3.163,0.862,0.211,baseline
1477.000,285.200,76.600,27.260,682.300,127.000,29.040,10.770,-0.401,0.452,0.150,0.037,11.020,3.164,0.861,0.211,baseline
1479.000,282.900,77.420,27.380,685.600,128.000,29.070,10.830,-0.489,0.444,0.151,0.036,11.040,3.169,0.867,0.212,baseline
1481.000,284.100,77.420,27.440,685.200,127.300,29.210,10.880,-0.424,0.453,0.152,0.036,11.080,3.186,0.868,0.214,baseline
1488.000,287.100,78.540,27.600,690.800,128.000,28.940,10.890,-0.460,0.447,0.152,0.037,11.130,3.182,0.875,0.214,baseline
1484.000,284.400,77.410,27.270,687.700,127.900,28.930,10.790,-0.470,0.440,0.154,0.036,10.980,3.164,0.855,0.211,baseline
1470.000,280.800,76.480,26.860,688.500,127.100,28.940,10.720,-0.438,0.432,0.152,0.037,11.030,3.144,0.858,0.210,baseline
1468.000,283.200,76.590,26.910,687.700,127.300,28.950,10.740,-0.409,0.437,0.152,0.036,10.990,3.156,0.852,0.211,baseline
1467.000,280.900,75.870,26.870,688.000,127.000,29.000,10.800,-0.329,0.440,0.151,0.036,10.990,3.156,0.852,0.209,baseline
1466.000,282.500,75.670,27.010,680.500,126.800,28.920,10.770,-0.290,0.434,0.150,0.036,11.020,3.144,0.862,0.210,baseline
1467.000,281.100,76.520,26.980,687.300,126.500,29.130,10.790,-0.314,0.439,0.152,0.036,10.970,3.158,0.866,0.210,baseline
1471.000,281.200,76.330,27.040,688.600,126.300,28.950,10.750,-0.325,0.449,0.152,0.037,11.010,3.170,0.865,0.212,baseline
1473.000,284.600,76.310,27.320,685.300,127.500,29.170,10.790,-0.414,0.442,0.150,0.036,11.030,3.182,0.867,0.212,baseline
1477.000,284.200,76.970,27.200,684.700,127.800,29.000,10.740,-0.414,0.438,0.151,0.037,11.100,3.168,0.871,0.213,baseline
1482.000,282.500,77.140,27.340,688.300,127.000,29.090,10.810,-0.422,0.444,0.152,0.036,11.100,3.190,0.871,0.213,baseline
1486.000,285.500,77.410,27.260,691.800,127.400,28.790,10.830,-0.371,0.431,0.152,0.037,11.070,3.186,0.865,0.211,baseline
1475.000,282.000,76.380,26.880,682.700,126.600,28.750,10.700,-0.408,0.437,0.153,0.036,11.060,3.152,0.858,0.211,baseline
1468.000,280.100,76.560,26.930,688.400,126.600,28.980,10.710,-0.516,0.443,0.150,0.036,11.020,3.153,0.858,0.211,baseline
1470.000,281.700,75.920,26.830,687.400,125.800,28.930,10.660,-0.397,0.437,0.151,0.036,11.060,3.160,0.862,0.211,baseline
1467.000,281.600,76.280,26.770,687.800,126.400,28.890,10.690,-0.361,0.440,0.153,0.036,11.000,3.155,0.859,0.210,baseline
1469.000,279.800,75.750,26.790,685.800,126.800,28.800,10.690,-0.327,0.430,0.152,0.037,11.030,3.166,0.860,0.211,baseline
1472.000,283.400,76.350,26.980,683.400,126.800,28.940,10.810,-0.294,0.445,0.153,0.036,11.030,3.168,0.870,0.211,baseline
1474.000,282.200,76.630,27.080,689.200,127.500,29.110,10.760,-0.315,0.440,0.150,0.036,11.080,3.183,0.864,0.213,baseline
1476.000,284.700,77.420,27.200,686.500,126.800,29.190,10.790,-0.359,0.446,0.151,0.036,11.090,3.165,0.868,0.213,baseline
1481.000,282.700,77.200,27.250,694.400,127.500,29.200,10.880,-0.366,0.441,0.151,0.037,11.150,3.188,0.869,0.214,baseline
1482.000,282.600,76.730,27.070,685.900,126.500,28.940,10.700,-0.475,0.438,0.153,0.036,11.130,3.164,0.864,0.211,baseline
1470.000,281.200,76.710,26.820,681.100,127.100,28.850,10.720,-0.341,0.448,0.153,0.036,11.010,3.160,0.857,0.211,baseline
1469.000,280.500,76.230,26.770,690.300,127.200,29.200,10.750,-0.438,0.454,0.151,0.036,11.020,3.177,0.862,0.211,baseline
1472.000,279.800,75.880,26.950,683.600,126.700,28.800,10.670,-0.345,0.434,0.154,0.036,11.040,3.173,0.864,0.211,baseline
1468.000,278.700,76.020,27.030,686.900,126.900,28.950,10.730,-0.402,0.438,0.155,0.036,11.080,3.175,0.866,0.212,baseline
1472.000,281.000,76.580,26.970,688.100,128.100,28.960,10.720,-0.377,0.445,0.153,0.036,11.040,3.173,0.870,0.213,baseline
1475.000,282.200,76.700,27.210,686.600,127.400,29.190,10.810,-0.316,0.438,0.153,0.037,11.110,3.193,0.872,0.213,baseline
1478.000,284.100,76.880,27.100,685.300,128.500,29.120,10.840,-0.276,0.435,0.156,0.037,11.080,3.187,0.876,0.215,baseline
1482.000,283.800,77.460,27.350,687.900,127.400,29.360,10.830,-0.273,0.452,0.155,0.037,11.120,3.200,0.874,0.215,baseline
1484.000,285.000,77.120,27.260,692.500,127.400,28.840,10.720,-0.334,0.437,0.153,0.037,11.040,3.160,0.875,0.211,baseline
1471.000,281.900,76.420,26.960,682.600,126.900,28.910,10.700,-0.376,0.442,0.152,0.036,11.090,3.166,0.864,0.210,baseline
1469.000,281.300,75.450,26.900,687.100,127.000,28.960,10.770,-0.489,0.448,0.153,0.037,11.050,3.159,0.868,0.211,baseline
1469.000,277.900,75.900,26.840,686.900,127.000,28.820,10.710,-0.426,0.450,0.152,0.037,11.060,3.171,0.860,0.211,baseline
1468.000,282.500,76.230,26.890,685.000,126.600,29.020,10.770,-0.371,0.451,0.152,0.036,11.010,3.176,0.863,0.212,baseline
1471.000,284.000,76.490,27.030,688.900,128.000,29.000,10.800,-0.377,0.451,0.153,0.037,11.080,3.169,0.867,0.214,baseline
1474.000,283.200,76.830,27.080,689.700,126.800,29.120,10.750,-0.337,0.431,0.154,0.036,11.120,3.195,0.872,0.215,baseline
1478.000,281.900,76.570,27.030,683.600,127.200,29.150,10.820,-0.352,0.437,0.156,0.036,11.090,3.189,0.872,0.215,baseline
1480.000,284.700,77.750,27.270,695.600,127.300,29.110,10.770,-0.471,0.450,0.155,0.037,11.130,3.208,0.871,0.216,baseline
1486.000,284.500,77.360,27.140,684.900,127.800,28.800,10.790,-0.335,0.451,0.154,0.037,11.100,3.202,0.867,0.211,baseline
1468.000,281.500,75.550,26.670,689.500,127.300,28.900,10.680,-0.374,0.431,0.153,0.037,11.080,3.171,0.862,0.209,baseline
1464.000,279.200,75.610,26.750,690.200,125.600,28.950,10.750,-0.309,0.440,0.153,0.037,11.070,3.160,0.861,0.210,baseline
1464.000,279.000,75.390,26.570,684.800,126.800,28.680,10.730,-0.337,0.446,0.152,0.037,10.990,3.175,0.853,0.208,baseline
1460.000,279.000,75.550,26.510,684.700,126.400,28.840,10.690,-0.390,0.447,0.152,0.036,11.020,3.150,0.859,0.210,baseline
1461.000,278.400,75.040,26.550,682.300,126.900,28.900,10.770,-0.404,0.451,0.153,0.037,11.070,3.158,0.858,0.209,baseline
1465.000,279.700,75.850,26.730,682.600,128.100,29.010,10.760,-0.375,0.451,0.152,0.036,11.040,3.171,0.865,0.213,baseline
1466.000,280.100,75.850,26.870,684.600,127.500,28.950,10.750,-0.522,0.443,0.152,0.037,11.110,3.168,0.873,0.212,baseline
1471.000,280.600,76.110,26.760,688.500,127.700,28.930,10.780,-0.397,0.444,0.154,0.036,11.090,3.193,0.865,0.214,baseline
1475.000,283.700,76.290,27.100,686.900,127.500,29.020,10.760,-0.397,0.450,0.154,0.037,11.100,3.190,0.867,0.212,baseline
1475.000,283.800,76.490,26.880,689.800,127.900,29.010,10.760,-0.328,0.442,0.153,0.037,11.100,3.171,0.860,0.210,baseline
1459.000,279.000,74.970,26.530,684.800,126.400,28.680,10.690,-0.303,0.424,0.152,0.036,11.020,3.147,0.850,0.208,baseline
1454.000,275.400,75.090,26.540,680.800,126.900,28.860,10.610,-0.388,0.441,0.154,0.037,11.080,3.165,0.852,0.208,baseline
1454.000,274.200,75.170,26.490,682.200,125.500,28.870,10.740,-0.375,0.437,0.154,0.036,10.990,3.157,0.857,0.208,baseline
1452.000,278.500,75.170,26.510,684.500,125.900,28.990,10.620,-0.342,0.446,0.152,0.037,10.980,3.144,0.855,0.208,baseline
1454.000,276.800,74.370,26.540,681.500,127.000,28.860,10.750,-0.277,0.443,0.153,0.036,11.020,3.175,0.852,0.208,baseline
1456.000,279.300,74.790,26.570,683.000,126.200,29.060,10.650,-0.418,0.447,0.153,0.037,10.950,3.162,0.859,0.211,baseline
1461.000,280.500,75.020,26.540,683.700,126.400,28.760,10.680,-0.308,0.454,0.152,0.037,11.050,3.176,0.857,0.210,baseline
1464.000,279.900,76.140,26.630,688.100,126.900,28.890,10.770,-0.397,0.445,0.154,0.036,11.070,3.168,0.863,0.211,baseline
1466.000,280.500,76.060,26.780,684.700,127.500,28.910,10.760,-0.380,0.447,0.154,0.037,11.040,3.178,0.863,0.211,baseline
1472.000,282.800,75.980,27.050,689.100,127.300,29.070,10.740,-0.347,0.438,0.156,0.037,11.080,3.203,0.872,0.212,baseline
1473.000,279.400,76.050,26.750,680.300,126.400,28.840,10.730,-0.350,0.442,0.153,0.037,11.090,3.159,0.851,0.209,baseline
1454.000,277.100,74.990,26.460,681.900,126.300,28.770,10.680,-0.304,0.440,0.154,0.037,11.020,3.154,0.854,0.208,baseline
1452.000,278.600,75.000,26.390,679.600,126.800,28.820,10.640,-0.331,0.431,0.152,0.037,11.040,3.166,0.849,0.208,baseline
1451.000,275.700,74.890,26.260,683.300,126.100,28.710,10.700,-0.305,0.446,0.153,0.037,11.000,3.146,0.858,0.207,baseline
1449.000,278.800,74.540,26.320,684.900,126.000,28.800,10.680,-0.326,0.435,0.153,0.036,11.010,3.167,0.854,0.208,baseline
1452.000,277.500,75.220,26.400,691.800,126.000,28.850,10.700,-0.311,0.448,0.152,0.037,11.010,3.146,0.856,0.209,baseline
1455.000,279.600,75.260,26.460,678.300,126.300,28.990,10.660,-0.296,0.444,0.153,0.037,10.990,3.154,0.862,0.209,baseline
1458.000,281.200,75.140,26.610,684.000,126.300,29.040,10.710,-0.355,0.441,0.154,0.037,11.000,3.173,0.858,0.211,baseline
1463.000,279.700,75.970,26.810,682.200,127.000,28.910,10.750,-0.428,0.456,0.154,0.037,11.100,3.178,0.866,0.211,baseline
1468.000,279.900,75.990,26.770,691.400,127.700,28.960,10.820,-0.394,0.447,0.152,0.036,11.080,3.188,0.860,0.213,baseline
1457.000,278.000,75.090,26.420,681.400,125.800,28.790,10.650,-0.320,0.434,0.153,0.037,10.950,3.174,0.857,0.208,hard
1454.000,278.200,75.110,26.380,688.400,125.800,28.860,10.700,-0.378,0.444,0.152,0.037,11.000,3.162,0.857,0.209,hard
1459.000,278.000,75.040,26.610,683.400,127.100,28.950,10.750,-0.359,0.433,0.152,0.037,11.020,3.174,0.865,0.210,hard
1462.000,279.800,75.830,26.660,691.200,127.700,28.910,10.790,-0.352,0.446,0.153,0.036,11.070,3.162,0.862,0.211,hard
1464.000,279.900,75.340,26.790,685.900,127.400,29.080,10.780,-0.390,0.448,0.151,0.037,11.080,3.189,0.867,0.211,hard
1469.000,280.400,76.260,26.830,688.800,127.300,29.130,10.830,-0.416,0.452,0.153,0.037,11.060,3.165,0.873,0.213,hard
1471.000,280.800,75.830,27.010,690.500,127.200,29.040,10.760,-0.410,0.452,0.156,0.037,11.090,3.196,0.873,0.214,hard
1478.000,282.100,76.910,27.110,689.700,126.300,28.980,10.810,-0.383,0.448,0.157,0.037,11.160,3.200,0.876,0.212,hard
1472.000,279.900,76.100,26.640,681.900,126.500,29.140,10.730,-0.342,0.440,0.155,0.037,11.120,3.166,0.862,0.212,hard
1463.000,277.800,75.500,26.540,687.300,128.000,29.030,10.730,-0.324,0.440,0.155,0.037,11.120,3.180,0.862,0.209,hard
1466.000,280.900,76.100,26.640,688.000,126.400,29.000,10.750,-0.411,0.435,0.154,0.037,11.100,3.177,0.863,0.211,hard
1464.000,279.900,75.890,26.620,682.800,126.700,28.930,10.700,-0.275,0.448,0.154,0.036,11.070,3.165,0.870,0.212,hard
1464.000,281.100,76.230,26.860,687.300,127.300,28.960,10.830,-0.360,0.437,0.154,0.037,11.180,3.187,0.867,0.211,hard
1468.000,280.400,76.190,26.890,687.400,127.600,29.320,10.750,-0.322,0.446,0.154,0.037,11.130,3.200,0.872,0.213,hard
1473.000,281.400,76.200,27.090,687.000,128.000,29.210,10.820,-0.248,0.450,0.157,0.037,11.120,3.201,0.875,0.215,hard
1475.000,283.100,76.760,27.090,687.400,127.400,29.260,10.770,-0.362,0.447,0.155,0.037,11.170,3.210,0.877,0.216,hard
1479.000,284.800,77.170,27.180,686.000,128.400,29.330,10.850,-0.335,0.453,0.153,0.037,11.210,3.212,0.874,0.218,hard
1484.000,284.900,77.740,27.350,687.500,127.500,29.340,10.830,-0.401,0.458,0.157,0.037,11.200,3.206,0.879,0.216,hard
1476.000,282.400,76.510,26.790,689.400,127.600,29.160,10.760,-0.462,0.447,0.156,0.037,11.150,3.198,0.871,0.211,hard
1464.000,280.500,75.230,26.780,685.500,126.800,29.200,10.790,-0.403,0.437,0.152,0.037,11.100,3.194,0.867,0.212,hard
1467.000,280.900,76.010,26.920,688.100,127.800,29.080,10.830,-0.438,0.446,0.153,0.037,11.130,3.197,0.866,0.213,hard
1466.000,279.600,76.130,26.690,690.800,128.100,28.950,10.800,-0.331,0.438,0.154,0.037,11.100,3.185,0.867,0.214,hard
1467.000,279.900,76.960,26.750,689.300,126.300,28.950,10.800,-0.363,0.438,0.154,0.037,11.120,3.224,0.862,0.214,hard
1469.000,281.900,76.170,26.890,684.100,127.600,29.250,10.780,-0.325,0.445,0.156,0.037,11.190,3.208,0.871,0.215,hard
1473.000,284.100,76.640,26.910,688.000,128.500,29.230,10.810,-0.318,0.440,0.158,0.037,11.140,3.203,0.873,0.217,hard
1477.000,282.000,76.610,27.090,688.100,129.100,29.500,10.830,-0.387,0.443,0.154,0.038,11.210,3.206,0.876,0.215,hard
1481.000,283.000,76.970,27.200,688.100,128.700,29.280,10.800,-0.335,0.457,0.155,0.038,11.240,3.214,0.883,0.217,hard
1485.000,282.900,77.510,27.390,695.800,127.300,29.260,10.830,-0.305,0.453,0.152,0.037,11.240,3.223,0.878,0.216,hard
1475.000,281.600,76.660,26.890,690.700,127.000,29.000,10.770,-0.406,0.456,0.154,0.037,11.130,3.183,0.872,0.214,hard
1465.000,281.200,75.790,26.820,685.400,127.400,29.110,10.740,-0.453,0.445,0.153,0.037,11.170,3.199,0.866,0.215,hard
1464.000,280.900,76.450,26.820,689.900,126.700,29.180,10.760,-0.514,0.434,0.154,0.037,11.100,3.188,0.871,0.212,hard
1462.000,281.000,75.560,26.720,688.600,126.500,28.950,10.820,-0.347,0.442,0.153,0.037,11.120,3.210,0.869,0.213,hard
1462.000,280.700,76.110,26.690,685.600,128.300,29.080,10.740,-0.415,0.452,0.154,0.037,11.110,3.191,0.864,0.213,hard
1467.000,281.500,76.260,26.920,692.400,128.400,29.190,10.810,-0.352,0.440,0.155,0.036,11.160,3.195,0.876,0.214,hard
1469.000,282.700,76.990,26.950,690.100,127.100,29.200,10.800,-0.352,0.438,0.155,0.037,11.190,3.198,0.875,0.215,hard
1472.000,283.000,76.510,27.040,688.800,127.900,29.140,10.870,-0.291,0.442,0.156,0.037,11.200,3.220,0.879,0.215,hard
1476.000,281.800,77.150,27.250,687.000,128.300,29.320,10.870,-0.293,0.445,0.154,0.037,11.270,3.216,0.884,0.217,hard
1481.000,286.600,77.260,27.290,690.700,128.900,29.260,10.800,-0.343,0.445,0.155,0.037,11.190,3.234,0.882,0.216,hard
1471.000,282.400,76.040,26.840,688.900,127.800,29.290,10.770,-0.324,0.441,0.153,0.037,11.140,3.193,0.870,0.213,hard
1463.000,281.500,75.470,26.710,688.300,127.100,28.970,10.770,-0.339,0.438,0.151,0.037,11.150,3.180,0.866,0.212,hard
1462.000,280.800,76.330,26.680,689.800,127.600,28.860,10.720,-0.401,0.450,0.153,0.037,11.150,3.185,0.868,0.213,hard
1462.000,279.900,75.540,26.680,685.500,127.600,28.970,10.820,-0.411,0.449,0.154,0.036,11.140,3.174,0.867,0.215,hard
1463.000,283.100,75.400,26.730,687.100,127.500,29.000,10.870,-0.410,0.446,0.154,0.037,11.160,3.194,0.870,0.214,hard
1464.000,278.900,75.980,26.910,686.600,128.000,29.310,10.800,-0.384,0.434,0.155,0.037,11.240,3.197,0.873,0.214,hard
1467.000,281.100,76.240,26.890,686.700,127.400,29.320,10.900,-0.331,0.438,0.156,0.037,11.170,3.207,0.878,0.215,hard
1471.000,282.100,76.100,26.960,683.900,128.600,29.440,10.870,-0.300,0.447,0.154,0.037,11.150,3.188,0.874,0.216,hard
1474.000,282.100,76.220,27.170,687.000,127.400,29.480,10.810,-0.324,0.442,0.155,0.037,11.260,3.208,0.879,0.216,hard
1479.000,283.000,76.980,27.170,686.200,128.200,29.230,10.860,-0.311,0.445,0.152,0.037,11.230,3.234,0.880,0.216,hard
1477.000,281.800,76.210,26.940,691.300,127.400,29.140,10.770,-0.358,0.445,0.153,0.037,11.210,3.199,0.869,0.214,hard
1463.000,278.900,75.620,26.640,687.200,127.200,29.000,10.790,-0.226,0.431,0.153,0.037,11.130,3.217,0.874,0.213,hard
1463.000,280.700,76.580,26.820,694.600,126.700,29.370,10.720,-0.251,0.441,0.153,0.036,11.180,3.204,0.871,0.212,hard
1463.000,277.600,75.520,26.720,686.400,127.300,29.040,10.810,-0.365,0.445,0.152,0.037,11.160,3.200,0.874,0.215,hard
1461.000,280.200,76.230,26.720,686.300,126.500,29.030,10.740,-0.372,0.437,0.153,0.036,11.170,3.191,0.875,0.214,hard
1464.000,279.700,76.240,26.820,690.300,127.600,29.070,10.830,-0.368,0.453,0.155,0.036,11.210,3.200,0.868,0.215,hard
1467.000,282.700,76.060,26.840,687.800,128.500,29.170,10.810,-0.427,0.442,0.154,0.037,11.210,3.199,0.869,0.216,hard
1471.000,284.900,76.240,27.030,687.600,128.200,29.310,10.870,-0.401,0.441,0.154,0.037,11.130,3.211,0.873,0.216,hard
1472.000,281.100,76.280,26.880,688.500,127.800,29.200,10.830,-0.305,0.458,0.155,0.037,11.210,3.208,0.877,0.218,hard
1479.000,284.500,76.800,27.210,686.100,126.800,29.290,10.820,-0.456,0.439,0.156,0.037,11.240,3.219,0.879,0.216,hard
1472.000,283.400,75.830,26.860,686.700,127.500,28.880,10.830,-0.280,0.436,0.153,0.037,11.200,3.213,0.873,0.213,hard
1463.000,278.800,76.220,26.730,682.500,127.800,29.190,10.810,-0.281,0.434,0.152,0.037,11.200,3.200,0.871,0.213,hard
1466.000,279.800,76.120,26.830,680.000,127.600,29.160,10.760,-0.291,0.436,0.154,0.037,11.150,3.213,0.874,0.213,hard
1463.000,279.900,75.310,26.800,682.200,127.600,29.040,10.780,-0.274,0.451,0.153,0.037,11.150,3.191,0.874,0.214,hard
1465.000,281.300,75.800,26.920,689.800,126.900,29.360,10.800,-0.375,0.448,0.154,0.037,11.230,3.197,0.875,0.216,hard
1467.000,281.800,76.010,26.920,690.300,127.500,29.260,10.830,-0.333,0.457,0.155,0.037,11.260,3.205,0.873,0.215,hard
1469.000,281.700,76.130,26.960,689.400,127.600,29.090,10.880,-0.420,0.445,0.154,0.037,11.290,3.206,0.873,0.215,hard
1472.000,283.000,76.770,27.100,684.800,128.000,29.410,10.860,-0.379,0.449,0.154,0.037,11.210,3.219,0.883,0.217,hard
1478.000,284.000,76.900,27.170,689.700,128.400,29.370,10.890,-0.319,0.439,0.156,0.038,11.300,3.215,0.880,0.216,hard
1479.000,283.900,77.120,27.120,690.900,127.500,29.270,10.780,-0.417,0.445,0.155,0.037,11.230,3.210,0.870,0.216,hard
1467.000,283.300,76.880,26.830,688.600,127.300,28.940,10.800,-0.297,0.443,0.155,0.037,11.210,3.195,0.873,0.211,hard
1463.000,278.400,76.590,26.780,681.900,127.700,29.120,10.820,-0.311,0.448,0.154,0.037,11.170,3.190,0.869,0.212,hard
1463.000,279.500,75.960,26.780,686.100,126.800,29.220,10.780,-0.382,0.444,0.154,0.037,11.200,3.207,0.869,0.214,hard
1462.000,281.100,75.500,26.670,686.900,126.000,29.120,10.780,-0.271,0.451,0.154,0.037,11.180,3.194,0.870,0.213,hard
1466.000,280.500,76.180,26.750,688.000,126.500,29.330,10.770,-0.280,0.447,0.155,0.038,11.170,3.197,0.868,0.213,hard
1468.000,281.400,76.380,26.880,689.000,127.900,29.240,10.900,-0.286,0.452,0.155,0.037,11.210,3.197,0.873,0.214,hard
1469.000,281.500,76.630,27.040,688.500,127.500,29.090,10.770,-0.362,0.448,0.154,0.037,11.240,3.200,0.881,0.216,hard
1474.000,284.200,76.910,27.090,690.000,128.200,29.240,10.860,-0.415,0.446,0.155,0.037,11.230,3.217,0.882,0.217,hard
1478.000,285.000,76.680,27.190,690.500,127.500,29.240,10.880,-0.420,0.438,0.154,0.037,11.310,3.208,0.875,0.217,hard
1471.000,280.700,76.420,26.760,684.900,127.800,29.040,10.750,-0.472,0.438,0.154,0.036,11.200,3.191,0.865,0.214,hard
1462.000,278.500,75.820,26.700,688.000,127.200,29.150,10.780,-0.288,0.434,0.153,0.037,11.210,3.185,0.867,0.214,hard
1462.000,279.500,75.730,26.730,686.900,126.500,28.930,10.760,-0.358,0.455,0.154,0.037,11.220,3.191,0.866,0.213,hard
1462.000,279.200,75.740,26.660,685.100,126.500,29.120,10.790,-0.410,0.437,0.154,0.036,11.160,3.194,0.869,0.212,hard
1460.000,276.600,76.120,26.730,685.600,128.000,29.030,10.760,-0.352,0.439,0.153,0.037,11.130,3.183,0.871,0.212,hard
1464.000,277.900,76.470,26.940,689.300,127.200,29.090,10.710,-0.237,0.444,0.155,0.036,11.150,3.200,0.870,0.212,hard
1465.000,279.800,76.120,27.080,686.500,128.000,29.110,10.830,-0.356,0.441,0.154,0.037,11.200,3.180,0.869,0.213,hard
1468.000,281.900,76.100,27.110,689.000,127.100,29.280,10.860,-0.386,0.443,0.154,0.037,11.240,3.208,0.878,0.212,hard
1472.000,282.200,76.820,27.170,689.800,128.400,29.380,10.880,-0.359,0.449,0.153,0.037,11.160,3.197,0.880,0.216,hard
1476.000,284.200,78.060,27.140,689.500,127.000,29.300,10.810,-0.309,0.454,0.157,0.037,11.190,3.222,0.878,0.215,hard
1468.000,280.900,76.100,26.760,690.300,126.700,29.120,10.770,-0.424,0.447,0.153,0.037,11.170,3.188,0.868,0.213,hard
1458.000,279.000,75.060,26.680,688.200,127.900,29.000,10.800,-0.415,0.440,0.154,0.036,11.130,3.180,0.865,0.212,hard
1457.000,279.800,76.340,26.640,688.900,126.600,29.030,10.830,-0.409,0.441,0.153,0.036,11.070,3.198,0.867,0.212,hard
1456.000,279.000,75.390,26.710,683.200,126.800,29.150,10.790,-0.371,0.435,0.153,0.037,11.140,3.179,0.863,0.212,hard
1456.000,278.600,76.080,26.580,684.700,127.200,28.670,10.760,-0.394,0.437,0.154,0.037,11.140,3.191,0.860,0.212,hard
1460.000,278.200,76.280,26.880,685.800,126.700,29.170,10.810,-0.337,0.439,0.154,0.037,11.140,3.201,0.868,0.213,hard
1462.000,279.200,76.220,26.990,682.600,126.200,29.000,10.820,-0.248,0.439,0.153,0.037,11.150,3.213,0.871,0.214,hard
1465.000,279.700,75.740,26.940,687.400,126.900,29.030,10.860,-0.224,0.441,0.154,0.037,11.160,3.215,0.872,0.214,hard
1468.000,280.900,76.460,27.160,687.200,127.300,29.410,10.820,-0.277,0.453,0.157,0.037,11.230,3.202,0.881,0.215,hard
1472.000,282.200,76.780,27.180,695.100,128.100,29.320,10.880,-0.448,0.442,0.154,0.037,11.150,3.204,0.881,0.216,hard
1473.000,283.000,76.750,26.870,689.700,126.900,28.970,10.820,-0.358,0.448,0.151,0.037,11.190,3.193,0.864,0.212,hard
1459.000,280.400,75.380,26.720,687.100,127.200,28.930,10.810,-0.437,0.451,0.154,0.037,11.160,3.198,0.866,0.212,hard
1457.000,277.400,75.640,26.740,689.200,126.700,29.040,10.720,-0.485,0.442,0.154,0.036,11.130,3.175,0.866,0.212,hard
1456.000,278.800,75.040,26.610,687.800,126.400,29.030,10.770,-0.397,0.447,0.153,0.036,11.220,3.184,0.861,0.212,hard
1456.000,276.800,75.360,26.530,685.000,126.700,29.130,10.820,-0.336,0.435,0.153,0.037,11.130,3.189,0.867,0.214,hard
1457.000,277.200,75.950,26.790,685.000,126.600,29.230,10.850,-0.371,0.452,0.154,0.037,11.140,3.188,0.873,0.213,hard
1460.000,281.000,76.380,26.840,690.500,127.700,29.150,10.840,-0.311,0.446,0.154,0.037,11.180,3.195,0.871,0.213,hard
1464.000,279.300,76.470,26.910,687.000,127.900,29.310,10.800,-0.355,0.448,0.155,0.037,11.170,3.208,0.874,0.214,hard
1468.000,281.000,76.010,27.010,687.500,127.600,29.480,10.920,-0.348,0.450,0.154,0.037,11.220,3.194,0.872,0.216,hard
1471.000,280.400,76.730,27.180,686.700,128.000,29.370,10.920,-0.328,0.445,0.155,0.037,11.240,3.218,0.883,0.217,hard
1475.000,284.600,76.330,27.080,689.200,126.400,29.560,10.840,-0.339,0.452,0.155,0.037,11.180,3.212,0.874,0.215,hard
1465.000,279.600,76.610,26.700,686.000,127.000,29.020,10.820,-0.344,0.449,0.154,0.037,11.230,3.169,0.877,0.213,hard
1459.000,282.200,75.260,26.750,693.100,127.200,29.180,10.830,-0.412,0.454,0.153,0.037,11.170,3.202,0.869,0.213,hard
1460.000,276.000,75.490,26.890,685.400,127.100,29.190,10.810,-0.352,0.451,0.154,0.037,11.240,3.208,0.873,0.213,hard
1458.000,278.400,75.550,26.840,680.700,126.200,29.220,10.860,-0.456,0.440,0.155,0.037,11.140,3.187,0.870,0.213,hard
1459.000,279.400,75.620,26.880,688.600,126.500,29.220,10.830,-0.472,0.458,0.155,0.037,11.220,3.194,0.871,0.215,hard
1464.000,278.900,75.560,26.870,685.300,128.000,29.210,10.840,-0.343,0.439,0.155,0.037,11.230,3.215,0.879,0.215,hard
1466.000,282.000,76.100,26.900,682.800,127.400,29.260,10.920,-0.323,0.445,0.156,0.037,11.180,3.227,0.877,0.216,hard
1468.000,280.000,76.600,27.250,684.800,126.300,29.270,10.940,-0.377,0.439,0.156,0.037,11.220,3.222,0.882,0.218,hard
1470.000,283.700,76.730,27.250,688.300,127.200,29.390,10.940,-0.324,0.441,0.155,0.037,11.230,3.236,0.885,0.218,hard
1476.000,283.500,76.010,27.310,689.400,127.900,29.240,10.860,-0.369,0.454,0.156,0.038,11.260,3.230,0.875,0.215,hard
1463.000,280.200,75.760,26.870,686.200,126.500,29.270,10.870,-0.377,0.457,0.153,0.037,11.170,3.222,0.879,0.212,hard
1460.000,280.600,75.750,26.860,681.500,127.500,29.470,10.870,-0.365,0.440,0.153,0.037,11.170,3.198,0.877,0.214,hard
1460.000,277.600,76.350,26.960,682.800,126.600,29.100,10.870,-0.349,0.452,0.154,0.037,11.160,3.184,0.876,0.213,hard
1458.000,280.800,76.250,26.910,690.200,127.300,29.250,10.850,-0.439,0.448,0.155,0.037,11.180,3.182,0.872,0.215,hard
1458.000,281.000,75.880,26.840,688.100,126.000,29.190,10.900,-0.376,0.455,0.154,0.037,11.200,3.194,0.880,0.216,hard
1464.000,281.000,76.530,27.170,685.800,127.400,29.390,10.890,-0.370,0.444,0.155,0.037,11.150,3.222,0.872,0.216,hard
1465.000,281.200,76.250,27.000,693.100,127.600,29.240,10.950,-0.361,0.442,0.157,0.037,11.210,3.232,0.883,0.216,hard
1470.000,281.100,77.170,27.290,686.800,128.400,29.660,10.980,-0.380,0.445,0.155,0.037,11.220,3.230,0.883,0.216,hard
1473.000,281.600,77.460,27.330,692.800,128.000,29.300,11.010,-0.389,0.441,0.154,0.037,11.300,3.251,0.888,0.216,hard
1477.000,282.500,77.080,27.360,691.000,127.600,29.410,10.900,-0.265,0.437,0.156,0.038,11.220,3.235,0.882,0.215,hard
1466.000,279.300,76.270,27.050,685.400,127.500,29.290,10.930,-0.260,0.450,0.153,0.037,11.110,3.206,0.874,0.215,hard
1459.000,280.200,75.930,26.960,688.700,127.500,29.390,10.880,-0.322,0.435,0.154,0.037,11.170,3.214,0.873,0.211,hard
1461.000,279.500,75.960,26.870,682.500,126.900,29.230,10.830,-0.343,0.447,0.152,0.037,11.210,3.209,0.880,0.214,hard
1458.000,280.700,76.200,26.900,682.300,126.200,29.150,10.860,-0.339,0.447,0.153,0.037,11.170,3.204,0.878,0.216,hard
1459.000,281.800,76.230,26.930,688.500,126.900,29.310,10.880,-0.426,0.451,0.152,0.037,11.210,3.208,0.872,0.215,hard
1463.000,279.700,75.990,26.940,690.900,127.400,29.090,10.980,-0.460,0.443,0.153,0.037,11.180,3.207,0.881,0.216,hard
1467.000,282.300,76.390,27.230,684.100,127.700,29.520,10.950,-0.457,0.454,0.153,0.037,11.200,3.212,0.877,0.217,hard
1469.000,282.300,76.770,27.160,693.500,129.100,29.400,10.910,-0.444,0.449,0.156,0.036,11.210,3.236,0.879,0.216,hard
1472.000,284.800,76.950,27.390,687.400,128.400,29.390,10.970,-0.423,0.443,0.154,0.037,11.230,3.246,0.889,0.220,hard
1478.000,284.000,77.700,27.460,684.100,128.200,29.250,10.900,-0.341,0.432,0.155,0.037,11.220,3.226,0.884,0.217,hard
1467.000,280.600,76.170,26.890,681.800,126.900,29.410,10.930,-0.339,0.440,0.155,0.036,11.160,3.214,0.870,0.214,hard
1461.000,278.600,76.280,26.930,684.000,126.900,29.210,10.900,-0.316,0.438,0.154,0.037,11.160,3.196,0.877,0.213,hard
1463.000,280.800,75.960,26.700,688.700,128.200,29.180,10.920,-0.306,0.453,0.153,0.037,11.230,3.211,0.872,0.213,hard
1460.000,280.500,76.530,27.020,686.400,127.200,29.400,10.920,-0.321,0.444,0.154,0.037,11.150,3.222,0.876,0.215,hard
1463.000,279.000,75.980,27.040,688.400,127.000,29.370,10.920,-0.350,0.431,0.154,0.037,11.210,3.205,0.879,0.215,hard
1466.000,280.700,76.470,27.150,694.000,127.300,29.360,11.030,-0.380,0.455,0.156,0.037,11.240,3.214,0.882,0.217,hard
1468.000,278.400,76.700,27.050,687.600,126.900,29.380,10.930,-0.369,0.456,0.154,0.037,11.300,3.232,0.884,0.217,hard
1471.000,284.500,77.090,27.250,689.500,126.900,29.550,11.020,-0.473,0.446,0.155,0.037,11.240,3.231,0.884,0.217,hard
1474.000,284.500,77.580,27.480,688.300,127.900,29.560,11.010,-0.403,0.450,0.156,0.037,11.270,3.237,0.889,0.218,hard
1479.000,285.600,77.920,27.490,688.600,127.500,29.710,10.970,-0.360,0.445,0.155,0.037,11.310,3.233,0.877,0.218,hard
1468.000,278.300,76.980,27.140,687.400,127.300,29.350,10.980,-0.367,0.447,0.155,0.037,11.190,3.211,0.885,0.216,hard
1465.000,277.900,76.060,27.120,687.800,127.800,29.540,10.980,-0.288,0.444,0.156,0.037,11.160,3.228,0.877,0.216,hard
1465.000,279.700,77.120,27.120,689.100,127.100,29.360,10.910,-0.318,0.454,0.153,0.036,11.220,3.227,0.874,0.216,hard
1464.000,280.700,75.870,27.090,684.200,127.400,29.370,10.940,-0.336,0.448,0.155,0.037,11.190,3.216,0.879,0.215,hard
1464.000,280.800,76.650,27.130,684.000,127.900,29.460,10.990,-0.255,0.441,0.153,0.037,11.200,3.220,0.882,0.215,hard
1468.000,281.300,76.780,27.180,684.200,127.700,29.680,10.970,-0.380,0.454,0.153,0.037,11.240,3.224,0.882,0.216,hard
1471.000,284.100,77.210,27.380,687.000,128.300,29.550,10.960,-0.329,0.442,0.153,0.037,11.260,3.231,0.884,0.217,hard
1474.000,282.500,78.070,27.440,685.700,127.200,29.560,11.060,-0.366,0.446,0.154,0.037,11.330,3.231,0.889,0.219,hard
1478.000,285.800,77.770,27.730,692.000,128.600,29.850,11.020,-0.355,0.453,0.154,0.037,11.290,3.240,0.888,0.220,hard
1476.000,284.500,76.610,27.300,688.900,127.700,29.430,10.970,-0.369,0.454,0.154,0.037,11.240,3.232,0.877,0.216,hard
1464.000,281.900,77.090,27.150,688.000,127.700,29.310,10.950,-0.424,0.447,0.153,0.036,11.210,3.234,0.883,0.215,hard
1463.000,279.300,76.220,27.020,688.500,128.100,29.150,10.980,-0.365,0.431,0.155,0.036,11.230,3.228,0.879,0.216,hard
1463.000,279.200,77.030,27.060,685.800,127.500,29.390,10.940,-0.430,0.436,0.155,0.037,11.240,3.204,0.878,0.216,hard
1461.000,280.000,76.260,27.200,683.800,127.400,29.280,10.960,-0.307,0.433,0.157,0.037,11.230,3.205,0.881,0.217,hard
1465.000,279.600,77.010,27.100,683.800,128.100,29.520,10.980,-0.345,0.452,0.155,0.037,11.250,3.217,0.881,0.217,hard
1467.000,280.800,76.640,27.240,683.100,127.700,29.630,10.970,-0.319,0.448,0.156,0.037,11.270,3.249,0.881,0.219,hard
1472.000,282.200,76.750,27.390,689.500,128.500,29.470,11.050,-0.298,0.445,0.153,0.037,11.280,3.247,0.885,0.218,hard
1474.000,282.100,77.710,27.420,688.000,127.500,29.630,11.020,-0.345,0.457,0.153,0.038,11.260,3.252,0.891,0.221,hard
1479.000,284.200,77.440,27.580,691.700,127.600,29.420,11.070,-0.346,0.461,0.152,0.037,11.320,3.241,0.888,0.218,hard
1473.000,287.200,76.520,27.320,687.300,128.200,29.530,11.020,-0.419,0.453,0.154,0.037,11.230,3.212,0.880,0.216,hard
1462.000,283.300,76.460,27.100,687.700,127.600,29.290,10.990,-0.388,0.447,0.154,0.037,11.230,3.214,0.871,0.216,hard
1461.000,281.500,76.970,27.030,686.200,127.200,29.370,11.000,-0.377,0.447,0.151,0.037,11.230,3.215,0.879,0.216,hard
1461.000,279.900,76.160,26.980,686.400,127.200,29.310,10.970,-0.405,0.447,0.154,0.036,11.170,3.213,0.878,0.213,hard
1459.000,279.700,76.560,27.110,685.800,127.100,29.300,11.010,-0.323,0.451,0.154,0.036,11.250,3.236,0.880,0.215,hard
1463.000,282.700,76.640,27.350,685.800,127.400,29.480,11.080,-0.375,0.444,0.153,0.037,11.210,3.230,0.875,0.216,hard
1464.000,280.700,76.700,27.230,684.200,127.700,29.530,11.020,-0.336,0.436,0.152,0.036,11.200,3.220,0.878,0.216,hard
1467.000,280.600,77.000,27.250,694.900,127.600,29.440,11.010,-0.343,0.437,0.153,0.037,11.200,3.236,0.884,0.218,hard
1472.000,280.400,76.820,27.370,691.200,127.000,29.610,11.060,-0.257,0.434,0.154,0.038,11.220,3.243,0.887,0.219,hard
1477.000,282.000,77.530,27.570,691.600,128.600,29.660,11.170,-0.262,0.443,0.155,0.037,11.240,3.257,0.890,0.219,hard
1478.000,283.300,77.820,27.440,691.200,127.600,29.750,11.020,-0.371,0.445,0.152,0.037,11.230,3.208,0.880,0.216,hard
1465.000,280.200,76.450,27.160,689.700,127.600,29.300,10.980,-0.426,0.456,0.152,0.037,11.200,3.205,0.880,0.214,hard
1460.000,280.100,76.160,27.090,689.300,127.600,29.430,11.010,-0.378,0.452,0.154,0.036,11.180,3.202,0.870,0.212,hard
1461.000,280.000,75.860,27.130,686.200,126.600,29.480,10.900,-0.523,0.448,0.154,0.037,11.150,3.188,0.878,0.215,hard
1458.000,278.600,76.220,27.050,687.100,127.400,29.170,10.980,-0.392,0.450,0.154,0.036,11.260,3.211,0.868,0.214,hard
1461.000,277.800,76.470,27.180,685.200,127.500,29.600,10.990,-0.388,0.435,0.154,0.037,11.150,3.236,0.878,0.215,hard
1465.000,279.600,76.470,27.210,688.600,128.100,29.340,11.000,-0.439,0.438,0.153,0.036,11.160,3.214,0.876,0.216,hard
1467.000,282.300,77.180,27.280,687.100,127.600,29.510,11.100,-0.259,0.444,0.153,0.037,11.200,3.209,0.880,0.216,hard
1471.000,284.100,77.220,27.390,691.800,128.000,29.600,11.040,-0.313,0.440,0.154,0.037,11.200,3.238,0.884,0.215,hard
1474.000,282.900,77.220,27.600,691.600,128.100,29.800,11.090,-0.336,0.441,0.151,0.037,11.240,3.238,0.886,0.218,hard
1478.000,283.900,77.550,27.580,690.100,127.700,29.640,11.070,-0.341,0.445,0.152,0.037,11.260,3.217,0.883,0.216,hard
1465.000,279.800,77.040,27.300,693.700,128.500,29.550,11.050,-0.294,0.443,0.151,0.037,11.170,3.199,0.873,0.215,hard
1462.000,277.800,76.810,27.110,686.200,127.300,29.490,11.050,-0.328,0.446,0.153,0.036,11.160,3.194,0.876,0.214,hard
1462.000,282.500,76.330,27.200,691.600,127.000,29.540,11.040,-0.464,0.446,0.154,0.036,11.110,3.215,0.877,0.214,hard
1461.000,280.600,76.880,27.180,687.800,127.500,29.420,11.000,-0.371,0.444,0.151,0.036,11.180,3.208,0.874,0.214,hard
1464.000,279.700,76.800,27.270,692.400,127.300,29.820,11.030,-0.486,0.450,0.155,0.036,11.230,3.214,0.877,0.214,hard
1466.000,280.700,76.640,27.410,692.300,126.500,29.390,11.110,-0.364,0.446,0.153,0.037,11.220,3.232,0.872,0.216,hard
1470.000,284.700,77.130,27.410,686.400,129.000,29.660,11.100,-0.423,0.448,0.153,0.036,11.210,3.223,0.881,0.217,hard
1472.000,282.900,77.650,27.380,684.300,127.300,29.640,11.110,-0.326,0.445,0.151,0.036,11.220,3.215,0.884,0.219,hard
1477.000,282.600,77.820,27.640,696.900,128.300,29.550,11.090,-0.337,0.447,0.154,0.037,11.270,3.222,0.885,0.218,hard
1473.000,280.800,76.880,27.520,691.800,127.200,29.250,11.000,-0.318,0.439,0.152,0.037,11.140,3.214,0.878,0.214,hard
1461.000,281.600,76.860,27.260,692.400,127.400,29.460,11.020,-0.375,0.437,0.151,0.036,11.170,3.196,0.867,0.213,hard
1460.000,281.400,76.150,27.280,688.100,126.500,29.380,11.030,-0.401,0.444,0.151,0.037,11.180,3.182,0.875,0.215,hard
1460.000,278.700,76.380,27.070,689.800,128.400,29.430,11.030,-0.357,0.443,0.150,0.036,11.170,3.206,0.876,0.214,hard
1458.000,279.100,76.910,27.250,685.400,126.700,29.760,11.160,-0.426,0.444,0.152,0.037,11.190,3.206,0.876,0.213,hard
1463.000,279.500,76.630,27.190,684.200,127.900,29.680,11.100,-0.453,0.438,0.153,0.036,11.200,3.188,0.882,0.215,hard
1465.000,282.200,76.510,27.400,688.000,127.100,29.470,11.100,-0.513,0.447,0.152,0.037,11.140,3.210,0.879,0.214,hard
1467.000,278.500,76.900,27.380,686.300,128.300,29.530,11.100,-0.436,0.431,0.152,0.036,11.190,3.216,0.878,0.214,hard
1471.000,281.800,77.750,27.580,694.400,128.700,29.720,11.100,-0.378,0.450,0.154,0.036,11.240,3.219,0.882,0.216,hard
1475.000,283.600,77.980,27.620,686.800,128.500,29.800,11.170,-0.322,0.439,0.154,0.037,11.210,3.228,0.883,0.216,hard
1475.000,281.300,77.330,27.410,687.100,127.100,29.500,11.020,-0.330,0.444,0.153,0.036,11.180,3.204,0.871,0.214,hard
1462.000,278.200,76.270,27.100,691.100,127.900,29.500,11.060,-0.283,0.440,0.152,0.037,11.110,3.197,0.868,0.212,hard
1457.000,282.300,75.850,27.170,686.600,127.300,29.550,11.040,-0.307,0.430,0.152,0.036,11.060,3.189,0.873,0.213,hard
1457.000,281.400,75.490,27.010,685.900,126.800,29.340,11.070,-0.301,0.442,0.152,0.036,11.120,3.199,0.870,0.211,hard
1456.000,277.500,76.220,27.140,689.700,126.700,29.530,11.040,-0.378,0.446,0.151,0.037,11.130,3.187,0.869,0.213,hard
1458.000,281.000,76.310,27.060,689.800,127.400,29.800,11.090,-0.430,0.440,0.152,0.036,11.130,3.177,0.869,0.212,hard
1460.000,279.200,75.950,27.160,687.700,127.000,29.380,11.070,-0.405,0.449,0.151,0.036,11.170,3.193,0.875,0.213,hard
1464.000,281.600,76.580,27.170,685.900,127.800,29.380,11.150,-0.413,0.451,0.154,0.037,11.170,3.208,0.875,0.214,hard
1468.000,279.300,76.980,27.390,688.500,128.100,29.610,11.110,-0.473,0.439,0.153,0.036,11.190,3.219,0.872,0.216,hard
1470.000,283.100,77.240,27.390,689.800,128.600,29.720,11.160,-0.328,0.435,0.155,0.036,11.220,3.223,0.874,0.216,hard
1474.000,284.500,77.370,27.730,687.400,128.300,29.680,11.120,-0.415,0.431,0.153,0.036,11.150,3.223,0.881,0.215,hard
1467.000,279.200,76.710,27.030,690.100,128.100,29.620,11.100,-0.392,0.443,0.152,0.036,11.130,3.207,0.868,0.211,hard
1459.000,280.200,76.490,27.090,687.500,127.200,29.490,11.020,-0.305,0.447,0.151,0.036,11.120,3.184,0.863,0.211,hard
1457.000,278.200,75.930,27.250,688.000,126.600,29.450,11.060,-0.336,0.445,0.151,0.036,11.090,3.185,0.868,0.211,hard
1456.000,277.500,75.770,27.000,687.100,127.400,29.430,11.060,-0.335,0.438,0.151,0.036,11.050,3.180,0.866,0.211,hard
1456.000,279.100,75.840,27.120,687.400,127.300,29.440,11.080,-0.309,0.443,0.150,0.036,11.120,3.197,0.868,0.213,hard
1458.000,279.200,76.400,27.120,690.100,126.800,29.320,11.100,-0.324,0.437,0.151,0.036,11.160,3.197,0.876,0.211,hard
1462.000,281.200,76.940,27.220,688.300,126.900,29.620,11.110,-0.426,0.450,0.153,0.036,11.130,3.186,0.872,0.214,hard
1465.000,280.900,76.900,27.350,692.900,127.800,29.400,11.080,-0.496,0.441,0.150,0.036,11.120,3.203,0.876,0.213,hard
1469.000,280.200,77.230,27.510,688.700,127.700,29.660,11.220,-0.388,0.447,0.150,0.036,11.220,3.212,0.872,0.214,hard
1473.000,286.000,77.380,27.690,690.300,128.300,29.600,11.160,-0.490,0.440,0.152,0.036,11.170,3.219,0.875,0.216,hard
1471.000,280.700,77.070,27.200,688.200,127.900,29.550,11.110,-0.480,0.440,0.155,0.036,11.120,3.197,0.869,0.212,hard
1459.000,278.300,75.780,27.230,686.200,127.200,29.550,11.050,-0.424,0.436,0.152,0.036,11.070,3.178,0.865,0.210,hard
1457.000,278.200,76.180,27.090,686.800,127.900,29.660,11.030,-0.354,0.432,0.152,0.036,11.090,3.188,0.865,0.211,hard
1457.000,278.300,76.020,27.160,687.300,127.200,29.360,11.100,-0.265,0.442,0.150,0.036,11.130,3.188,0.866,0.211,hard
1457.000,277.700,76.030,27.050,685.900,127.800,29.290,11.090,-0.355,0.431,0.154,0.036,11.140,3.211,0.875,0.213,hard
1459.000,280.900,76.580,27.200,687.100,127.400,29.690,11.090,-0.309,0.441,0.152,0.036,11.140,3.199,0.868,0.211,hard
1462.000,279.900,76.260,27.360,689.500,127.600,29.520,11.080,-0.394,0.442,0.153,0.036,11.110,3.211,0.869,0.213,hard
1465.000,282.400,76.960,27.480,692.700,128.200,29.570,11.170,-0.340,0.444,0.154,0.037,11.120,3.210,0.875,0.214,hard
1468.000,282.700,76.870,27.530,688.400,127.800,29.740,11.210,-0.383,0.445,0.151,0.037,11.210,3.175,0.878,0.215,hard
1473.000,280.900,77.210,27.700,687.700,127.600,29.810,11.160,-0.483,0.442,0.151,0.036,11.200,3.228,0.880,0.215,hard
1471.000,282.600,77.320,27.250,688.300,128.500,29.490,11.050,-0.377,0.435,0.151,0.037,11.160,3.195,0.868,0.212,hard
1458.000,275.200,76.740,27.040,688.000,127.400,29.570,11.030,-0.483,0.445,0.149,0.036,11.100,3.191,0.866,0.212,hard
1456.000,277.100,76.750,26.950,691.200,127.600,29.300,11.110,-0.380,0.436,0.150,0.036,11.120,3.190,0.864,0.213,hard
1456.000,276.500,75.660,27.190,685.300,127.200,29.560,10.990,-0.380,0.438,0.152,0.036,11.120,3.197,0.863,0.209,hard
1453.000,277.500,75.650,27.130,687.700,127.000,29.560,11.150,-0.363,0.441,0.152,0.036,11.080,3.185,0.865,0.211,hard
1455.000,281.200,75.690,27.170,687.200,127.600,29.590,11.100,-0.341,0.444,0.153,0.036,11.130,3.203,0.870,0.212,hard
1459.000,281.700,76.270,27.250,686.600,126.700,29.690,11.140,-0.345,0.435,0.152,0.037,11.070,3.206,0.870,0.212,hard
1461.000,279.200,76.850,27.410,692.900,128.100,29.570,11.110,-0.317,0.443,0.153,0.037,11.140,3.204,0.873,0.214,hard
1465.000,282.900,77.010,27.400,686.000,127.400,29.760,11.180,-0.421,0.445,0.153,0.036,11.190,3.206,0.871,0.213,hard
1468.000,282.000,77.160,27.460,689.700,128.200,29.740,11.230,-0.381,0.450,0.153,0.036,11.200,3.217,0.879,0.214,hard
1473.000,283.300,77.630,27.750,692.500,127.100,29.680,11.140,-0.427,0.449,0.151,0.037,11.220,3.205,0.866,0.212,hard
1460.000,280.900,75.990,27.240,690.800,127.100,29.450,11.010,-0.433,0.438,0.154,0.036,11.130,3.181,0.865,0.211,hard
1454.000,280.800,75.820,27.070,688.400,127.400,29.480,11.090,-0.508,0.441,0.151,0.036,11.040,3.171,0.865,0.211,hard
1454.000,280.000,75.660,27.100,690.500,127.500,29.380,11.150,-0.431,0.434,0.152,0.036,11.130,3.176,0.862,0.209,hard
1453.000,278.100,75.760,26.930,692.800,127.400,29.680,11.050,-0.402,0.434,0.153,0.036,11.090,3.196,0.862,0.211,hard
1453.000,276.300,76.160,27.040,687.600,127.500,29.630,11.060,-0.312,0.432,0.153,0.036,11.140,3.196,0.864,0.213,hard
1455.000,276.300,76.100,27.100,690.200,127.300,29.740,11.160,-0.320,0.431,0.152,0.036,11.110,3.198,0.874,0.211,hard
1457.000,279.000,76.840,27.240,689.000,127.700,29.570,11.180,-0.355,0.447,0.150,0.037,11.150,3.190,0.869,0.212,hard
1461.000,278.800,76.900,27.420,694.000,127.300,29.740,11.160,-0.337,0.435,0.151,0.036,11.100,3.215,0.872,0.213,hard
1466.000,283.200,77.160,27.510,691.500,128.800,29.760,11.230,-0.399,0.442,0.153,0.037,11.150,3.202,0.879,0.214,hard
1471.000,283.900,77.320,27.600,689.600,127.700,29.670,11.160,-0.373,0.434,0.152,0.037,11.210,3.226,0.880,0.216,hard
1471.000,282.100,77.020,27.480,688.100,127.600,29.730,11.130,-0.423,0.449,0.152,0.036,11.150,3.206,0.868,0.211,hard
1459.000,280.100,75.600,27.150,687.300,127.400,29.500,11.140,-0.436,0.443,0.151,0.036,11.070,3.176,0.867,0.210,hard
1454.000,279.800,76.390,27.080,682.800,127.800,29.760,11.070,-0.432,0.446,0.151,0.036,11.110,3.196,0.867,0.210,hard
1457.000,278.900,76.450,27.250,690.000,127.000,29.620,11.130,-0.349,0.424,0.153,0.036,11.120,3.190,0.864,0.210,hard
1454.000,280.800,76.270,26.980,681.400,127.800,29.540,11.090,-0.435,0.422,0.152,0.036,11.180,3.175,0.864,0.212,hard
1455.000,279.800,76.080,27.120,686.900,127.100,29.350,11.200,-0.316,0.434,0.150,0.036,11.090,3.183,0.869,0.210,hard
1458.000,278.000,76.640,27.290,690.600,127.100,29.820,11.150,-0.298,0.437,0.150,0.036,11.130,3.201,0.867,0.212,hard
1461.000,279.800,76.690,27.250,691.100,127.200,29.790,11.250,-0.422,0.445,0.153,0.037,11.140,3.202,0.873,0.213,hard
1464.000,281.100,77.300,27.400,693.600,128.800,29.940,11.240,-0.324,0.433,0.151,0.037,11.150,3.200,0.873,0.214,hard
1468.000,281.900,77.370,27.490,684.000,127.900,29.900,11.270,-0.313,0.433,0.150,0.036,11.180,3.202,0.881,0.215,hard
1470.000,283.800,76.970,27.450,694.400,127.700,29.640,11.180,-0.446,0.441,0.152,0.037,11.160,3.195,0.872,0.211,hard
1457.000,280.700,76.020,27.210,693.000,127.700,29.720,11.220,-0.407,0.436,0.151,0.036,11.090,3.173,0.863,0.211,hard
1454.000,281.500,76.210,27.110,691.100,127.500,29.600,11.190,-0.428,0.451,0.150,0.036,11.120,3.188,0.862,0.210,hard
1455.000,280.100,76.040,27.050,690.200,127.100,29.480,11.140,-0.407,0.437,0.152,0.036,11.030,3.170,0.864,0.211,hard
1452.000,279.400,75.630,27.070,694.200,126.700,29.530,11.180,-0.507,0.441,0.151,0.036,11.060,3.171,0.864,0.210,hard
1457.000,278.500,76.290,27.110,688.300,127.800,29.720,11.180,-0.415,0.431,0.150,0.036,11.090,3.183,0.867,0.210,hard
1459.000,280.200,76.350,27.240,691.800,127.900,29.490,11.150,-0.446,0.437,0.151,0.036,11.120,3.194,0.870,0.212,hard
1462.000,281.400,76.310,27.350,684.900,127.500,29.520,11.230,-0.425,0.439,0.153,0.036,11.140,3.199,0.870,0.213,hard
1467.000,281.400,76.470,27.380,692.600,128.300,29.760,11.240,-0.317,0.435,0.152,0.037,11.120,3.208,0.867,0.213,hard
1469.000,280.600,77.190,27.680,694.200,128.200,30.160,11.250,-0.357,0.429,0.151,0.037,11.160,3.219,0.876,0.215,hard
1469.000,281.700,78.210,27.330,689.700,126.900,29.840,11.160,-0.319,0.433,0.154,0.036,11.140,3.171,0.870,0.210,hard
1455.000,280.200,76.450,27.140,692.100,127.800,29.620,11.240,-0.269,0.444,0.150,0.036,11.050,3.182,0.863,0.209,hard
1452.000,277.100,75.710,27.110,688.700,127.500,29.790,11.200,-0.417,0.438,0.150,0.036,11.050,3.193,0.857,0.208,hard
1451.000,279.000,76.470,27.070,688.700,127.700,29.690,11.140,-0.326,0.432,0.152,0.036,11.070,3.167,0.861,0.210,hard
1450.000,278.800,75.730,27.120,688.200,127.500,29.680,11.160,-0.457,0.434,0.151,0.036,11.020,3.174,0.859,0.211,hard
1452.000,279.400,76.170,27.200,689.200,127.700,29.700,11.200,-0.562,0.436,0.151,0.036,11.150,3.185,0.860,0.212,hard
1454.000,279.200,76.710,27.330,687.500,127.900,29.960,11.140,-0.441,0.439,0.152,0.036,11.080,3.162,0.871,0.211,hard
1458.000,279.800,76.320,27.220,688.400,127.900,29.600,11.240,-0.447,0.445,0.153,0.036,11.100,3.186,0.870,0.212,hard
1462.000,279.500,76.880,27.460,688.600,127.800,29.740,11.260,-0.411,0.429,0.152,0.037,11.130,3.192,0.870,0.212,hard
1464.000,281.400,76.890,27.400,687.500,127.700,29.740,11.200,-0.364,0.433,0.154,0.036,11.140,3.199,0.868,0.214,hard
1469.000,283.100,77.500,27.610,689.700,128.400,29.870,11.170,-0.345,0.434,0.152,0.037,11.110,3.190,0.862,0.210,hard
1457.000,279.000,76.250,27.230,685.200,127.500,29.660,11.180,-0.360,0.438,0.149,0.036,11.070,3.161,0.860,0.208,hard
1451.000,275.700,75.980,26.990,687.300,127.000,29.710,11.190,-0.311,0.443,0.149,0.036,11.020,3.159,0.863,0.207,hard
1450.000,276.600,75.640,27.110,685.300,126.800,29.830,11.100,-0.343,0.434,0.150,0.036,11.050,3.156,0.860,0.209,hard
1449.000,276.400,75.430,27.000,689.400,127.000,29.900,11.190,-0.487,0.439,0.150,0.035,11.000,3.162,0.857,0.210,hard
1451.000,278.800,75.320,27.120,685.800,127.500,29.930,11.160,-0.441,0.440,0.152,0.036,11.080,3.156,0.867,0.208,hard
1453.000,276.900,76.390,27.140,692.300,127.300,30.050,11.230,-0.534,0.436,0.151,0.036,11.090,3.169,0.859,0.209,hard
1455.000,277.300,76.690,27.230,688.700,127.600,29.580,11.180,-0.387,0.434,0.150,0.036,11.080,3.162,0.861,0.209,hard
1458.000,280.000,76.480,27.390,688.200,127.400,29.700,11.190,-0.332,0.432,0.151,0.036,11.090,3.191,0.863,0.211,hard
1462.000,280.800,76.350,27.510,693.000,127.700,29.920,11.280,-0.379,0.438,0.154,0.036,11.130,3.187,0.866,0.214,hard
1468.000,283.500,77.530,27.510,696.600,128.800,29.880,11.210,-0.263,0.418,0.153,0.036,11.080,3.198,0.867,0.210,hard
1458.000,278.800,76.170,27.190,688.100,127.800,29.890,11.180,-0.294,0.439,0.149,0.036,10.980,3.158,0.856,0.207,hard
1450.000,275.900,75.850,27.150,682.400,127.100,29.550,11.150,-0.382,0.421,0.147,0.035,11.050,3.137,0.850,0.207,hard
1451.000,278.200,75.800,27.280,687.900,127.800,29.830,11.170,-0.307,0.446,0.150,0.036,11.020,3.147,0.853,0.207,hard
1449.000,274.900,75.970,27.120,685.100,127.100,29.610,11.170,-0.342,0.428,0.149,0.036,10.960,3.144,0.858,0.208,hard
1450.000,279.500,76.090,27.200,684.000,127.800,29.850,11.170,-0.437,0.435,0.149,0.036,11.040,3.158,0.861,0.210,hard
1455.000,278.500,76.480,27.200,694.200,127.500,29.890,11.180,-0.415,0.431,0.151,0.036,11.080,3.158,0.857,0.209,hard
1456.000,279.400,76.640,27.120,693.700,128.100,29.950,11.190,-0.490,0.443,0.151,0.036,11.020,3.178,0.860,0.211,hard
1461.000,279.600,77.270,27.440,694.600,127.300,29.970,11.260,-0.456,0.448,0.152,0.036,11.080,3.155,0.866,0.212,hard
1464.000,280.500,76.360,27.580,694.800,128.200,29.820,11.320,-0.440,0.436,0.151,0.036,11.030,3.177,0.861,0.211,hard
1466.000,281.200,76.960,27.590,689.600,127.900,29.930,11.290,-0.377,0.427,0.152,0.036,11.030,3.169,0.863,0.209,hard
1453.000,278.400,76.170,27.200,688.600,126.500,29.660,11.210,-0.488,0.425,0.148,0.035,10.970,3.153,0.851,0.209,hard
1450.000,278.000,75.660,27.190,687.400,127.400,29.610,11.250,-0.422,0.426,0.149,0.036,10.960,3.139,0.854,0.209,hard
1450.000,276.700,76.060,27.000,684.900,127.200,29.640,11.210,-0.409,0.428,0.151,0.036,10.940,3.143,0.855,0.207,hard
1448.000,278.000,76.210,27.100,683.400,126.800,29.710,11.210,-0.379,0.425,0.147,0.036,10.990,3.145,0.856,0.205,hard
1450.000,277.900,75.900,27.270,685.800,127.600,29.740,11.280,-0.390,0.437,0.148,0.036,10.990,3.143,0.855,0.208,hard
1453.000,278.100,76.760,27.220,693.500,127.300,29.330,11.230,-0.375,0.456,0.149,0.036,10.980,3.145,0.863,0.209,hard
1455.000,281.300,76.360,27.380,693.600,127.500,30.020,11.250,-0.450,0.432,0.148,0.036,11.080,3.144,0.861,0.210,hard
1459.000,280.200,77.140,27.580,686.700,127.500,30.030,11.270,-0.486,0.450,0.152,0.036,10.940,3.163,0.866,0.211,hard
1462.000,281.100,77.340,27.460,695.100,128.100,30.020,11.270,-0.472,0.427,0.151,0.036,11.030,3.171,0.862,0.211,hard
1464.000,279.200,77.230,27.360,682.400,127.600,29.640,11.260,-0.451,0.432,0.148,0.036,11.040,3.150,0.860,0.209,hard
1450.000,276.600,76.160,27.080,692.300,127.100,29.690,11.210,-0.558,0.434,0.147,0.035,10.910,3.135,0.847,0.207,hard
1446.000,276.700,76.260,27.020,684.800,127.000,29.650,11.220,-0.525,0.424,0.149,0.035,10.980,3.133,0.848,0.206,hard
1446.000,276.000,75.140,27.110,689.000,128.500,29.790,11.200,-0.397,0.425,0.149,0.036,10.910,3.130,0.848,0.208,hard
1445.000,277.700,76.240,27.160,685.400,127.200,29.530,11.180,-0.326,0.428,0.147,0.036,10.930,3.111,0.851,0.205,hard
1446.000,275.900,76.040,27.090,683.000,128.400,29.690,11.270,-0.308,0.433,0.149,0.036,10.910,3.132,0.854,0.208,hard
1449.000,277.200,75.990,27.240,689.600,126.700,29.950,11.200,-0.331,0.432,0.148,0.036,10.950,3.125,0.855,0.209,hard
1451.000,278.100,76.070,27.470,691.400,127.400,29.830,11.230,-0.389,0.440,0.148,0.036,10.900,3.136,0.855,0.209,hard
1455.000,276.800,76.470,27.370,689.800,127.700,29.990,11.350,-0.369,0.434,0.149,0.036,10.960,3.151,0.862,0.211,hard
1458.000,280.200,77.140,27.440,692.500,127.600,30.120,11.350,-0.490,0.450,0.151,0.036,11.030,3.137,0.866,0.210,hard
1462.000,282.100,78.000,27.560,690.800,128.100,29.890,11.230,-0.415,0.433,0.150,0.036,11.010,3.143,0.861,0.211,hard
1454.000,279.200,75.620,27.070,685.000,127.000,29.780,11.210,-0.399,0.419,0.149,0.036,10.920,3.132,0.846,0.207,hard
1445.000,276.700,75.820,27.030,686.900,127.400,29.680,11.130,-0.465,0.420,0.150,0.035,10.930,3.113,0.849,0.207,hard
1445.000,276.500,76.470,27.010,689.400,126.800,29.750,11.220,-0.439,0.419,0.149,0.035,10.910,3.128,0.850,0.205,hard
1444.000,276.700,75.650,27.050,685.500,127.900,29.550,11.220,-0.457,0.424,0.148,0.035,10.920,3.119,0.847,0.206,hard
1445.000,275.900,75.410,26.990,685.600,127.800,29.920,11.250,-0.376,0.422,0.151,0.036,10.920,3.108,0.849,0.207,hard
1451.000,280.000,75.760,27.120,686.900,127.400,29.570,11.230,-0.491,0.433,0.148,0.035,10.930,3.127,0.853,0.208,bogus
1444.000,278.000,74.900,27.070,688.900,127.500,29.770,11.200,-0.488,0.417,0.149,0.035,10.890,3.121,0.851,0.208,bogus
1444.000,278.000,76.030,27.080,689.900,127.900,29.770,11.230,-0.454,0.423,0.147,0.036,10.910,3.124,0.847,0.208,bogus
1445.000,277.000,76.090,26.950,691.500,127.500,29.660,11.270,-0.407,0.425,0.149,0.036,10.880,3.121,0.851,0.207,bogus
1446.000,276.100,75.970,27.050,690.400,127.500,29.740,11.180,-0.372,0.418,0.149,0.035,10.900,3.121,0.858,0.207,bogus
1463.000,281.400,77.310,27.530,697.500,129.500,30.180,11.510,-0.529,0.445,0.150,0.036,11.010,3.168,0.874,0.215,hard
1467.000,282.500,77.960,27.780,694.500,129.400,30.330,11.480,-0.427,0.437,0.152,0.036,11.000,3.175,0.871,0.215,hard
1471.000,282.600,77.770,27.870,702.100,128.800,30.510,11.470,-0.426,0.447,0.152,0.036,11.080,3.172,0.874,0.216,hard
1476.000,287.300,78.970,28.210,702.700,129.800,30.490,11.520,-0.523,0.432,0.151,0.036,11.030,3.185,0.878,0.217,hard
1476.000,283.000,77.960,27.620,697.400,129.200,30.560,11.330,-0.318,0.426,0.151,0.036,10.980,3.156,0.863,0.213,hard
1462.000,280.000,77.110,27.540,696.600,129.100,30.190,11.440,-0.422,0.441,0.151,0.036,10.960,3.152,0.866,0.211,hard
1461.000,280.400,77.740,27.630,690.200,129.000,30.380,11.310,-0.430,0.431,0.152,0.036,10.980,3.161,0.867,0.214,hard
1465.000,282.200,77.390,27.490,695.800,129.700,30.130,11.370,-0.389,0.432,0.150,0.037,11.020,3.145,0.870,0.213,hard
1462.000,281.600,77.120,27.660,692.200,128.700,30.230,11.360,-0.284,0.435,0.151,0.036,10.970,3.151,0.874,0.213,hard
1468.000,282.400,77.460,27.650,699.800,128.900,30.330,11.420,-0.398,0.440,0.150,0.037,10.990,3.167,0.874,0.215,hard
1471.000,282.000,77.960,27.790,697.400,128.900,30.500,11.430,-0.345,0.440,0.150,0.036,11.030,3.189,0.870,0.215,hard
1475.000,284.900,78.070,27.930,694.800,130.300,30.560,11.440,-0.408,0.434,0.152,0.037,11.070,3.179,0.877,0.214,hard
1480.000,283.600,79.020,28.120,700.900,130.900,30.570,11.490,-0.421,0.434,0.152,0.036,11.090,3.200,0.887,0.217,hard
1481.000,284.400,78.830,27.760,701.400,129.800,30.400,11.390,-0.450,0.442,0.153,0.036,11.100,3.179,0.876,0.213,hard
1466.000,282.400,77.380,27.660,698.700,129.400,30.470,11.330,-0.504,0.433,0.149,0.036,11.030,3.174,0.868,0.212,hard
1466.000,282.300,77.210,27.790,696.300,129.200,30.350,11.450,-0.459,0.422,0.152,0.036,11.030,3.171,0.866,0.214,hard
1466.000,281.900,77.540,27.790,694.300,130.000,30.160,11.340,-0.445,0.438,0.151,0.036,10.990,3.164,0.867,0.211,hard
1465.000,280.000,77.650,27.670,695.400,128.800,30.540,11.400,-0.443,0.436,0.153,0.036,10.960,3.150,0.868,0.214,hard
1468.000,281.600,77.430,27.770,696.100,128.900,30.500,11.450,-0.436,0.417,0.150,0.036,11.040,3.149,0.864,0.214,hard
1473.000,282.200,78.410,28.020,694.500,130.200,30.510,11.500,-0.326,0.426,0.149,0.036,11.030,3.177,0.874,0.214,hard
1479.000,284.200,78.350,28.010,696.200,129.700,30.740,11.490,-0.367,0.440,0.153,0.037,11.100,3.185,0.871,0.215,hard
1482.000,286.200,79.520,28.140,702.000,130.000,30.950,11.510,-0.352,0.443,0.150,0.037,11.110,3.199,0.879,0.217,hard
1485.000,285.400,78.320,27.870,696.400,129.200,30.510,11.380,-0.380,0.440,0.154,0.037,11.080,3.175,0.878,0.212,hard
1466.000,280.200,77.020,27.650,698.800,128.700,30.350,11.330,-0.390,0.446,0.151,0.037,10.960,3.147,0.864,0.211,hard
1460.000,280.100,76.470,27.500,698.300,129.100,30.200,11.340,-0.505,0.431,0.149,0.036,11.010,3.131,0.861,0.210,hard
1460.000,280.500,76.930,27.330,695.300,129.100,30.120,11.300,-0.489,0.435,0.149,0.036,10.960,3.146,0.865,0.209,hard
1457.000,278.200,77.100,27.360,697.400,128.900,30.450,11.240,-0.490,0.425,0.151,0.036,11.000,3.140,0.856,0.210,hard
1458.000,283.300,77.140,27.390,693.200,128.700,30.190,11.390,-0.394,0.432,0.154,0.036,10.940,3.150,0.862,0.210,hard
1463.000,279.100,77.340,27.490,691.500,129.400,30.510,11.340,-0.369,0.435,0.153,0.036,10.990,3.152,0.867,0.212,hard
1466.000,280.900,77.350,27.730,688.800,130.100,30.550,11.390,-0.381,0.432,0.151,0.036,10.940,3.163,0.869,0.213,hard
1469.000,285.900,78.120,27.720,693.400,129.600,30.590,11.390,-0.303,0.435,0.150,0.036,11.030,3.165,0.873,0.214,hard
1472.000,285.600,78.600,27.930,695.500,129.000,30.480,11.360,-0.296,0.433,0.152,0.037,11.070,3.172,0.872,0.213,hard
1473.000,280.500,76.980,27.620,693.000,128.600,30.480,11.240,-0.351,0.435,0.151,0.037,10.990,3.123,0.861,0.208,hard
1452.000,280.100,76.470,27.050,689.500,128.800,30.240,11.200,-0.398,0.448,0.150,0.036,10.940,3.129,0.853,0.207,hard
1449.000,277.100,76.710,27.030,692.600,128.100,29.970,11.340,-0.564,0.444,0.151,0.036,10.900,3.106,0.856,0.207,hard
1447.000,276.500,76.210,27.030,692.500,128.600,30.330,11.210,-0.510,0.432,0.150,0.036,10.860,3.124,0.853,0.207,hard
1444.000,277.500,75.880,27.090,689.300,127.500,30.230,11.290,-0.464,0.435,0.151,0.036,10.890,3.117,0.853,0.207,hard
1447.000,277.400,76.150,27.120,694.700,128.000,29.940,11.280,-0.418,0.427,0.152,0.036,10.950,3.116,0.857,0.208,hard
1449.000,279.200,76.340,27.100,692.500,129.200,30.280,11.290,-0.385,0.426,0.153,0.036,10.930,3.121,0.854,0.210,hard
1453.000,278.400,76.700,27.240,692.300,129.400,30.320,11.360,-0.369,0.428,0.149,0.036,10.930,3.127,0.861,0.209,hard
1457.000,280.200,76.760,27.390,692.200,129.000,30.350,11.340,-0.340,0.425,0.154,0.036,11.000,3.108,0.855,0.208,hard
1460.000,279.400,77.590,27.640,693.700,128.400,30.250,11.340,-0.356,0.424,0.152,0.037,10.960,3.122,0.863,0.212,hard
1467.000,281.800,77.540,27.720,695.000,128.900,30.380,11.310,-0.319,0.433,0.153,0.037,10.950,3.164,0.862,0.207,hard
1456.000,279.300,76.730,27.140,693.200,128.100,30.090,11.210,-0.442,0.433,0.151,0.036,10.820,3.120,0.851,0.205,hard
1442.000,276.800,75.980,26.850,690.200,126.300,30.070,11.230,-0.430,0.434,0.149,0.036,10.840,3.097,0.851,0.204,hard
1438.000,274.000,75.490,26.830,685.200,128.000,29.890,11.170,-0.409,0.436,0.150,0.036,10.860,3.107,0.845,0.204,hard
1436.000,274.900,74.810,26.780,688.000,127.300,29.910,11.120,-0.445,0.441,0.152,0.036,10.780,3.093,0.853,0.204,hard
1435.000,274.800,75.030,26.930,689.600,127.400,29.790,11.240,-0.357,0.433,0.150,0.036,10.830,3.082,0.848,0.205,hard
1436.000,273.900,75.660,26.850,697.600,127.700,30.160,11.240,-0.502,0.430,0.149,0.036,10.830,3.085,0.849,0.206,hard
1440.000,275.900,75.960,26.980,691.600,127.300,30.070,11.200,-0.443,0.441,0.150,0.036,10.900,3.110,0.845,0.207,hard
1444.000,274.700,75.600,26.900,688.200,127.600,29.860,11.230,-0.386,0.430,0.152,0.036,10.840,3.111,0.858,0.207,hard
1447.000,278.200,76.650,27.160,696.400,128.500,30.030,11.240,-0.412,0.429,0.151,0.036,10.840,3.113,0.852,0.208,hard
1452.000,278.700,76.890,27.220,693.900,128.100,30.250,11.330,-0.393,0.430,0.152,0.036,10.960,3.145,0.860,0.209,hard
1457.000,280.500,76.810,27.280,689.900,128.200,30.000,11.210,-0.341,0.439,0.150,0.036,10.920,3.113,0.854,0.207,hard
1443.000,275.700,75.640,26.690,685.800,127.300,29.860,11.190,-0.335,0.442,0.150,0.036,10.790,3.088,0.845,0.205,hard
1432.000,273.500,74.860,26.550,689.000,126.900,29.950,11.210,-0.460,0.427,0.148,0.036,10.780,3.068,0.843,0.204,hard
1432.000,276.100,74.840,26.700,687.900,126.500,29.570,11.100,-0.403,0.424,0.150,0.036,10.840,3.076,0.845,0.205,hard
1428.000,273.900,74.700,26.410,691.100,127.400,29.820,11.180,-0.575,0.434,0.150,0.035,10.810,3.083,0.839,0.205,hard
1428.000,272.200,75.050,26.560,686.800,127.200,29.620,11.180,-0.476,0.434,0.150,0.036,10.760,3.071,0.842,0.205,hard
1432.000,274.100,75.460,26.770,691.400,126.400,29.940,11.170,-0.394,0.427,0.150,0.036,10.800,3.088,0.843,0.206,hard
1437.000,277.700,75.410,26.870,689.000,127.400,29.800,11.140,-0.409,0.422,0.149,0.036,10.850,3.097,0.851,0.206,hard
1437.000,275.400,76.030,26.930,689.800,127.200,30.230,11.220,-0.462,0.425,0.150,0.036,10.840,3.096,0.854,0.207,hard
1442.000,279.400,76.640,27.130,690.700,128.300,30.160,11.250,-0.455,0.420,0.151,0.036,10.880,3.113,0.854,0.207,hard
1447.000,277.700,76.660,27.130,688.300,127.700,30.030,11.250,-0.331,0.430,0.150,0.037,10.910,3.132,0.855,0.209,hard
1453.000,278.300,76.200,27.070,690.300,128.200,30.070,11.180,-0.380,0.424,0.150,0.036,10.860,3.109,0.845,0.206,hard
1435.000,273.800,74.760,26.670,684.900,127.000,29.910,11.150,-0.356,0.425,0.147,0.037,10.810,3.068,0.841,0.204,hard
1429.000,273.000,74.870,26.700,690.300,125.800,29.670,11.110,-0.384,0.429,0.150,0.036,10.800,3.081,0.838,0.205,hard
1429.000,272.500,74.880,26.630,685.800,126.600,29.840,11.130,-0.465,0.438,0.148,0.036,10.790,3.081,0.845,0.204,hard
1426.000,272.500,74.550,26.480,688.000,127.000,29.730,11.120,-0.436,0.437,0.149,0.036,10.780,3.083,0.844,0.204,hard
1428.000,273.800,74.690,26.760,684.800,126.700,29.850,11.190,-0.368,0.419,0.148,0.036,10.760,3.065,0.847,0.205,hard
1432.000,274.500,75.210,26.730,688.900,127.400,30.030,11.130,-0.384,0.437,0.150,0.036,10.800,3.070,0.844,0.206,hard
1435.000,277.800,74.950,26.830,688.500,127.600,29.890,11.150,-0.475,0.427,0.147,0.036,10.880,3.087,0.847,0.205,hard
1438.000,274.600,76.070,26.920,691.700,127.900,29.960,11.260,-0.465,0.428,0.150,0.036,10.810,3.105,0.854,0.208,hard
1442.000,277.300,76.540,27.160,689.100,129.100,30.000,11.270,-0.378,0.433,0.151,0.036,10.800,3.111,0.855,0.208,hard
1447.000,276.700,75.930,26.930,687.800,127.500,29.790,11.160,-0.420,0.427,0.150,0.036,10.830,3.096,0.844,0.205,hard
1430.000,271.800,74.570,26.580,685.400,126.800,29.990,11.070,-0.335,0.416,0.150,0.036,10.790,3.094,0.840,0.205,hard
1426.000,270.800,74.920,26.510,685.000,127.600,29.970,11.150,-0.318,0.431,0.151,0.036,10.780,3.082,0.838,0.204,hard
1427.000,273.400,74.380,26.710,685.500,127.200,29.950,11.070,-0.336,0.426,0.148,0.035,10.740,3.064,0.837,0.205,hard
1425.000,273.100,74.030,26.460,683.700,127.200,29.930,11.110,-0.445,0.418,0.148,0.036,10.800,3.076,0.843,0.205,hard
1427.000,274.700,75.490,26.730,687.300,127.100,30.080,11.150,-0.390,0.435,0.149,0.036,10.860,3.086,0.843,0.205,hard
1431.000,274.600,75.010,26.870,686.300,127.700,29.670,11.160,-0.469,0.438,0.150,0.036,10.810,3.092,0.849,0.206,hard
1434.000,274.200,74.860,26.980,691.000,128.100,29.900,11.210,-0.492,0.434,0.149,0.036,10.840,3.102,0.847,0.208,hard
1438.000,275.000,75.970,26.940,690.800,128.300,29.950,11.180,-0.462,0.442,0.149,0.036,10.820,3.113,0.858,0.209,hard
1444.000,277.500,75.960,27.130,693.800,127.700,29.960,11.230,-0.477,0.434,0.150,0.036,10.790,3.110,0.857,0.209,hard
1442.000,277.300,75.570,26.840,682.200,127.300,29.750,11.130,-0.425,0.425,0.150,0.035,10.790,3.073,0.843,0.206,hard
1422.000,272.700,75.270,26.430,680.500,126.600,29.500,11.110,-0.439,0.423,0.151,0.035,10.740,3.091,0.841,0.204,hard
1419.000,269.800,74.200,26.510,689.200,126.600,29.650,11.090,-0.419,0.431,0.150,0.036,10.720,3.060,0.836,0.203,hard
1420.000,271.400,73.930,26.430,680.400,126.600,29.620,11.030,-0.405,0.424,0.146,0.036,10.790,3.059,0.847,0.204,hard
1418.000,270.100,74.240,26.470,682.500,126.600,29.820,11.070,-0.347,0.415,0.148,0.036,10.670,3.058,0.846,0.205,hard
1419.000,272.000,74.710,26.600,686.700,126.200,29.670,11.140,-0.450,0.428,0.149,0.036,10.760,3.068,0.843,0.204,hard
1424.000,273.000,74.940,26.700,686.000,127.300,29.710,11.100,-0.368,0.432,0.146,0.036,10.790,3.085,0.848,0.206,hard
1426.000,276.100,74.830,26.720,687.700,126.100,29.850,11.020,-0.415,0.428,0.149,0.036,10.800,3.093,0.851,0.206,hard
1428.000,272.100,75.510,26.900,687.700,128.100,29.880,11.150,-0.490,0.432,0.150,0.036,10.840,3.084,0.852,0.208,hard
1432.000,274.500,74.960,26.960,687.400,127.900,29.830,11.160,-0.507,0.438,0.150,0.035,10.770,3.112,0.854,0.208,hard
1436.000,273.300,75.680,26.800,683.500,127.000,29.860,11.060,-0.392,0.436,0.150,0.036,10.790,3.089,0.844,0.205,hard
1417.000,271.000,73.930,26.230,684.300,126.700,29.490,10.980,-0.427,0.425,0.149,0.036,10.680,3.042,0.836,0.204,hard
1411.000,268.100,74.390,26.400,683.100,126.700,29.340,11.010,-0.414,0.432,0.148,0.036,10.750,3.057,0.837,0.203,hard
1412.000,270.500,73.660,26.280,682.300,127.100,29.680,11.000,-0.465,0.418,0.148,0.035,10.670,3.061,0.838,0.203,hard
1409.000,270.100,73.930,26.160,677.500,126.100,29.490,11.080,-0.421,0.429,0.148,0.035,10.710,3.065,0.836,0.204,hard
1409.000,269.300,74.300,26.350,682.600,126.200,29.460,11.040,-0.342,0.415,0.148,0.035,10.730,3.070,0.840,0.203,hard
1413.000,271.000,74.140,26.290,681.500,126.300,29.500,11.080,-0.367,0.413,0.150,0.036,10.720,3.066,0.844,0.205,hard
1415.000,271.100,74.080,26.480,688.400,126.100,29.700,11.070,-0.509,0.423,0.149,0.035,10.720,3.067,0.844,0.205,hard
1419.000,271.300,74.640,26.710,685.900,127.300,29.740,11.080,-0.403,0.439,0.147,0.035,10.770,3.090,0.847,0.206,hard
1422.000,272.800,74.610,26.720,688.500,127.100,29.490,11.120,-0.510,0.432,0.149,0.035,10.850,3.078,0.853,0.207,hard
1426.000,273.700,75.390,26.760,684.900,126.600,29.620,11.140,-0.566,0.424,0.150,0.036,10.750,3.066,0.846,0.206,hard
1413.000,269.200,73.740,26.200,681.100,124.900,29.340,10.990,-0.483,0.432,0.150,0.035,10.670,3.056,0.835,0.204,hard
1405.000,271.000,72.570,26.070,684.700,126.000,29.280,10.940,-0.533,0.424,0.148,0.035,10.720,3.049,0.836,0.202,hard
1404.000,268.300,73.690,26.190,682.200,125.900,29.500,11.000,-0.515,0.417,0.147,0.035,10.740,3.065,0.834,0.202,hard
1402.000,265.100,72.920,26.020,679.900,126.200,29.180,11.010,-0.462,0.404,0.149,0.035,10.700,3.041,0.832,0.201,hard
1402.000,266.900,73.380,26.030,683.700,125.400,29.290,11.090,-0.350,0.421,0.148,0.035,10.630,3.064,0.834,0.204,hard
1403.000,266.600,73.280,26.210,677.500,126.800,29.390,11.020,-0.336,0.418,0.145,0.035,10.770,3.050,0.833,0.201,hard
1406.000,269.000,73.820,26.310,681.200,126.100,29.490,11.040,-0.475,0.412,0.145,0.036,10.690,3.061,0.838,0.204,hard
1411.000,270.100,73.380,26.320,675.800,126.500,29.600,11.030,-0.427,0.421,0.149,0.036,10.710,3.078,0.842,0.204,hard
1413.000,270.800,73.690,26.440,684.700,125.600,29.670,11.110,-0.316,0.431,0.147,0.036,10.760,3.062,0.845,0.208,hard
1418.000,271.300,74.570,26.650,680.400,126.300,29.390,11.030,-0.456,0.429,0.147,0.036,10.740,3.056,0.850,0.206,hard
1416.000,270.300,73.850,26.220,683.000,125.800,29.280,10.950,-0.514,0.421,0.149,0.035,10.670,3.058,0.840,0.203,hard
1399.000,266.500,72.290,25.950,678.900,125.900,29.360,10.870,-0.479,0.430,0.147,0.035,10.640,3.057,0.833,0.203,hard
1399.000,265.000,73.310,26.100,677.000,126.100,29.370,10.960,-0.456,0.429,0.147,0.035,10.670,3.048,0.834,0.202,hard
1397.000,264.600,72.180,26.010,679.900,126.000,29.410,10.860,-0.465,0.422,0.147,0.036,10.680,3.045,0.833,0.202,hard
1396.000,265.700,72.390,25.880,680.000,125.900,29.310,10.950,-0.411,0.418,0.147,0.035,10.650,3.048,0.834,0.202,hard
1399.000,264.900,72.800,26.030,680.700,125.100,29.360,10.980,-0.421,0.413,0.147,0.036,10.740,3.053,0.837,0.203,hard
1403.000,266.000,72.840,26.150,684.500,125.700,29.430,11.000,-0.385,0.415,0.148,0.035,10.690,3.046,0.838,0.205,hard
1404.000,268.900,73.740,26.120,679.500,126.100,29.370,11.010,-0.433,0.417,0.147,0.036,10.750,3.068,0.839,0.204,hard
1410.000,269.600,73.920,26.300,682.900,127.000,29.770,11.020,-0.371,0.421,0.150,0.035,10.780,3.066,0.845,0.208,hard
1412.000,269.100,74.180,26.450,680.500,126.400,29.530,11.020,-0.404,0.426,0.147,0.035,10.770,3.081,0.851,0.207,hard
1411.000,270.200,74.130,26.330,683.600,125.900,29.370,11.000,-0.472,0.418,0.146,0.036,10.740,3.060,0.841,0.204,hard
1398.000,265.100,72.510,26.150,681.800,125.400,29.430,10.960,-0.456,0.413,0.147,0.035,10.720,3.044,0.834,0.204,hard
1397.000,267.000,73.160,26.020,678.100,125.900,29.330,10.960,-0.499,0.427,0.146,0.035,10.750,3.037,0.840,0.204,hard
1397.000,266.700,73.250,25.980,681.200,125.400,29.380,11.000,-0.545,0.420,0.146,0.035,10.700,3.046,0.835,0.204,hard
1396.000,268.100,72.600,26.050,679.800,125.600,29.280,11.000,-0.477,0.419,0.147,0.036,10.690,3.044,0.837,0.206,hard
1398.000,266.800,73.590,26.150,678.700,126.600,29.330,10.950,-0.404,0.417,0.146,0.036,10.710,3.038,0.840,0.206,hard
1403.000,265.300,73.520,26.290,680.800,126.500,29.560,11.040,-0.384,0.419,0.147,0.035,10.770,3.075,0.841,0.206,hard
1407.000,269.100,73.400,26.360,682.300,126.000,29.550,11.100,-0.356,0.413,0.149,0.036,10.700,3.066,0.842,0.206,hard
1409.000,270.400,73.830,26.340,682.200,126.400,29.530,11.110,-0.388,0.415,0.147,0.035,10.760,3.078,0.849,0.208,hard
1415.000,270.400,74.670,26.630,678.500,127.800,29.600,11.060,-0.447,0.413,0.150,0.035,10.780,3.083,0.850,0.208,hard
1410.000,270.000,73.740,26.200,679.000,126.300,29.450,11.000,-0.414,0.426,0.148,0.035,10.770,3.064,0.839,0.206,hard
1397.000,264.600,73.030,26.120,677.200,125.400,29.500,10.960,-0.405,0.432,0.146,0.036,10.670,3.045,0.840,0.203,hard
1397.000,265.400,73.120,26.060,675.100,126.000,29.530,10.950,-0.481,0.411,0.146,0.035,10.680,3.031,0.842,0.206,hard
1396.000,267.400,72.830,26.130,675.800,125.800,29.410,10.960,-0.534,0.419,0.146,0.035,10.750,3.039,0.842,0.203,hard
1395.000,266.100,72.460,26.020,682.300,126.000,29.420,11.030,-0.506,0.426,0.146,0.035,10.700,3.038,0.840,0.205,hard
1398.000,264.900,73.460,26.120,678.800,126.100,29.470,11.000,-0.477,0.430,0.148,0.035,10.710,3.053,0.841,0.204,hard
1401.000,266.100,72.940,26.150,686.300,126.000,29.600,11.010,-0.490,0.413,0.146,0.035,10.760,3.065,0.842,0.206,hard
1403.000,269.400,74.030,26.360,682.700,125.700,29.430,11.050,-0.510,0.427,0.148,0.035,10.670,3.071,0.848,0.207,hard
1407.000,268.700,73.930,26.210,679.600,126.200,29.620,11.080,-0.408,0.422,0.148,0.035,10.750,3.088,0.846,0.207,hard
1411.000,270.100,74.380,26.610,677.300,126.900,29.600,11.130,-0.375,0.407,0.147,0.035,10.770,3.085,0.854,0.209,hard
1415.000,271.900,74.280,26.660,680.800,127.100,29.730,11.030,-0.407,0.428,0.148,0.035,10.770,3.088,0.848,0.207,hard
1402.000,267.700,73.110,26.170,679.500,125.700,29.360,10.980,-0.328,0.415,0.147,0.036,10.720,3.070,0.844,0.205,hard
1397.000,265.000,72.880,26.110,686.500,126.000,29.360,10.990,-0.348,0.424,0.146,0.035,10.710,3.056,0.844,0.205,hard
1397.000,264.600,72.400,26.140,681.900,126.400,29.190,10.980,-0.441,0.425,0.146,0.035,10.790,3.058,0.842,0.205,hard
1395.000,266.100,72.880,26.130,677.300,125.300,29.520,11.030,-0.483,0.417,0.144,0.036,10.710,3.048,0.844,0.206,hard
1397.000,266.300,73.540,26.270,679.600,125.600,29.500,10.920,-0.526,0.423,0.148,0.035,10.750,3.071,0.846,0.206,hard
1400.000,266.500,73.400,26.360,681.400,126.400,29.730,11.060,-0.590,0.435,0.148,0.036,10.770,3.064,0.845,0.208,hard
1403.000,267.800,73.820,26.460,675.800,125.800,29.620,11.070,-0.424,0.416,0.147,0.035,10.770,3.057,0.850,0.207,hard
1406.000,269.700,73.790,26.370,683.200,127.500,29.270,11.120,-0.406,0.415,0.147,0.035,10.780,3.084,0.852,0.209,hard
1410.000,270.100,74.260,26.580,683.800,126.900,29.640,11.110,-0.375,0.422,0.150,0.036,10.760,3.080,0.851,0.208,hard
1414.000,271.800,74.240,26.710,683.300,126.800,29.660,11.130,-0.433,0.415,0.149,0.036,10.800,3.108,0.857,0.210,hard
1420.000,272.500,74.810,26.740,681.800,126.800,29.700,11.040,-0.273,0.428,0.148,0.036,10.810,3.083,0.855,0.208,hard
1409.000,268.200,73.360,26.320,682.200,126.500,29.580,11.030,-0.467,0.421,0.148,0.036,10.740,3.069,0.848,0.206,hard
1402.000,266.700,73.300,26.390,678.000,126.100,29.360,11.060,-0.324,0.430,0.147,0.036,10.740,3.065,0.848,0.206,hard
1401.000,268.300,73.580,26.290,678.800,125.100,29.800,11.000,-0.414,0.429,0.149,0.036,10.690,3.063,0.848,0.208,hard
1401.000,266.500,72.510,26.250,682.500,125.400,29.430,10.990,-0.453,0.427,0.149,0.036,10.740,3.043,0.844,0.208,hard
1403.000,265.300,73.490,26.150,681.100,125.800,29.720,10.980,-0.523,0.422,0.150,0.036,10.810,3.078,0.847,0.208,hard
1405.000,267.800,73.440,26.420,687.900,126.200,29.590,11.140,-0.539,0.426,0.150,0.035,10.800,3.086,0.853,0.209,hard
1408.000,269.100,73.690,26.530,679.500,127.100,29.690,11.140,-0.443,0.422,0.151,0.036,10.770,3.091,0.855,0.210,hard
1413.000,268.300,74.010,26.640,678.000,126.300,29.650,11.080,-0.427,0.416,0.151,0.036,10.850,3.110,0.850,0.210,hard
1415.000,270.800,74.910,26.710,681.700,126.700,29.620,11.140,-0.484,0.422,0.149,0.036,10.820,3.111,0.860,0.211,hard
1420.000,271.400,74.710,26.790,679.200,126.600,29.960,11.160,-0.364,0.410,0.151,0.036,10.840,3.110,0.863,0.213,hard
1425.000,272.100,74.920,26.770,684.200,126.700,29.840,11.090,-0.362,0.420,0.148,0.036,10.840,3.103,0.863,0.212,hard
1414.000,267.400,74.200,26.430,683.000,126.300,29.630,11.070,-0.403,0.416,0.149,0.036,10.800,3.106,0.855,0.209,hard
1407.000,270.000,73.930,26.370,677.700,126.300,29.530,11.070,-0.378,0.418,0.148,0.036,10.770,3.080,0.855,0.209,hard
1409.000,269.100,73.930,26.490,681.000,126.100,29.620,11.130,-0.452,0.426,0.147,0.036,10.810,3.078,0.852,0.210,hard
1409.000,269.000,73.140,26.410,678.000,126.200,29.660,11.100,-0.406,0.440,0.147,0.035,10.790,3.075,0.853,0.210,hard
1408.000,267.700,73.630,26.490,686.600,125.700,29.940,11.170,-0.439,0.422,0.147,0.036,10.830,3.080,0.853,0.211,hard
1412.000,270.000,73.790,26.490,682.900,127.000,29.980,11.160,-0.394,0.440,0.146,0.036,10.820,3.112,0.853,0.209,hard
1415.000,270.300,74.330,26.730,683.700,127.300,29.730,11.110,-0.484,0.434,0.151,0.035,10.850,3.109,0.857,0.212,hard
1419.000,272.600,75.000,26.850,681.200,126.500,30.200,11.120,-0.458,0.409,0.149,0.036,10.810,3.094,0.862,0.212,hard
1422.000,272.800,75.110,26.900,683.400,127.400,29.940,11.240,-0.373,0.429,0.152,0.036,10.860,3.122,0.862,0.213,hard
1424.000,271.200,75.020,26.980,685.600,126.800,29.900,11.200,-0.411,0.424,0.150,0.036,10.910,3.116,0.868,0.213,hard
1425.000,272.200,74.840,26.690,682.700,126.500,29.650,11.130,-0.424,0.427,0.149,0.036,10.830,3.119,0.859,0.210,hard
1413.000,266.700,74.380,26.680,681.100,127.200,29.860,11.150,-0.348,0.418,0.149,0.036,10.820,3.082,0.855,0.209,hard
1413.000,270.700,74.260,26.720,682.900,126.000,30.010,11.090,-0.382,0.425,0.150,0.036,10.780,3.104,0.859,0.209,hard
1413.000,269.800,74.170,26.630,680.400,127.000,29.770,11.190,-0.454,0.441,0.148,0.036,10.810,3.085,0.860,0.209,hard
1411.000,270.800,73.840,26.730,678.500,126.300,29.590,11.150,-0.457,0.436,0.150,0.036,10.800,3.101,0.857,0.210,hard
1415.000,271.600,74.470,26.730,686.800,126.600,29.980,11.120,-0.447,0.430,0.150,0.036,10.790,3.098,0.858,0.212,hard
1420.000,270.000,74.650,26.860,689.300,126.900,29.910,11.190,-0.471,0.438,0.150,0.036,10.850,3.101,0.861,0.213,hard
1421.000,272.700,75.070,27.010,679.800,126.900,29.960,11.190,-0.428,0.435,0.151,0.036,10.830,3.117,0.866,0.214,hard
1425.000,271.200,75.750,27.130,689.000,127.300,30.080,11.350,-0.455,0.427,0.151,0.036,10.880,3.120,0.863,0.216,hard
1428.000,274.200,75.510,27.240,686.900,127.900,30.080,11.270,-0.469,0.426,0.151,0.036,10.830,3.128,0.871,0.216,hard
1432.000,275.300,75.800,27.200,686.600,127.100,29.840,11.220,-0.363,0.436,0.152,0.036,10.890,3.121,0.864,0.214,hard
1423.000,272.000,74.740,26.660,681.500,127.400,29.570,11.200,-0.397,0.428,0.150,0.037,10.830,3.102,0.855,0.212,hard
1416.000,272.800,74.800,26.640,682.400,126.500,29.570,11.200,-0.423,0.416,0.150,0.036,10.800,3.089,0.863,0.211,hard
1414.000,271.500,74.030,26.700,685.600,126.800,29.800,11.130,-0.385,0.423,0.148,0.036,10.800,3.101,0.854,0.212,hard
1414.000,269.700,74.610,26.790,684.500,126.900,29.680,11.130,-0.326,0.435,0.150,0.036,10.840,3.089,0.863,0.211,hard
1414.000,271.800,74.720,26.830,679.000,127.000,29.720,11.120,-0.469,0.424,0.151,0.036,10.790,3.100,0.861,0.211,hard
1417.000,271.200,75.480,26.840,683.500,127.200,29.900,11.220,-0.400,0.431,0.150,0.036,10.800,3.101,0.863,0.212,hard
1420.000,271.600,74.600,26.880,682.200,126.800,29.900,11.220,-0.467,0.440,0.151,0.036,10.840,3.109,0.867,0.213,hard
1422.000,273.600,75.350,26.890,686.300,127.700,30.030,11.250,-0.467,0.435,0.150,0.036,10.860,3.120,0.867,0.216,hard
1425.000,274.200,75.270,27.210,691.000,127.300,29.970,11.250,-0.417,0.430,0.152,0.037,10.840,3.121,0.873,0.212,hard
1427.000,273.600,76.000,27.230,684.900,127.300,29.750,11.280,-0.398,0.442,0.151,0.036,10.870,3.151,0.878,0.216,hard
1433.000,275.700,76.070,27.410,691.500,128.600,29.850,11.270,-0.441,0.433,0.154,0.037,10.900,3.131,0.867,0.214,hard
1423.000,270.900,75.010,26.810,687.200,127.000,30.000,11.180,-0.446,0.423,0.151,0.036,10.830,3.102,0.860,0.212,hard
1415.000,271.000,74.810,26.840,684.900,127.500,29.900,11.130,-0.352,0.420,0.152,0.036,10.790,3.099,0.857,0.212,hard
1414.000,270.200,74.460,26.770,681.800,126.800,29.780,11.130,-0.393,0.431,0.152,0.036,10.840,3.095,0.862,0.211,hard
1412.000,268.000,73.910,26.770,679.300,126.400,29.960,11.210,-0.365,0.422,0.151,0.036,10.830,3.095,0.860,0.212,hard
1413.000,270.800,74.380,26.750,681.400,126.400,29.910,11.250,-0.440,0.423,0.151,0.036,10.760,3.092,0.863,0.212,hard
1417.000,271.800,74.920,26.930,685.700,127.100,30.100,11.230,-0.499,0.426,0.152,0.036,10.770,3.113,0.862,0.212,hard
1418.000,272.300,74.660,26.860,687.400,127.000,30.160,11.240,-0.403,0.448,0.152,0.037,10.830,3.119,0.868,0.213,hard
1421.000,270.900,75.080,27.020,686.400,127.200,30.030,11.240,-0.511,0.443,0.150,0.037,10.870,3.116,0.868,0.215,hard
1424.000,273.300,75.830,27.140,687.200,126.400,30.120,11.280,-0.409,0.428,0.154,0.036,10.890,3.125,0.872,0.215,hard
1427.000,275.500,75.460,27.080,684.700,127.700,30.120,11.310,-0.435,0.438,0.152,0.037,10.890,3.139,0.877,0.217,hard
1433.000,276.900,75.780,27.400,684.000,128.200,30.020,11.280,-0.393,0.435,0.154,0.036,10.900,3.145,0.870,0.214,hard
1426.000,272.600,75.640,26.970,684.200,126.300,29.850,11.260,-0.422,0.422,0.151,0.036,10.860,3.137,0.864,0.213,hard
1415.000,269.600,75.180,26.810,681.600,127.200,29.700,11.240,-0.363,0.420,0.154,0.036,10.780,3.104,0.864,0.213,hard
1415.000,269.300,74.860,26.800,687.600,127.500,29.940,11.220,-0.241,0.426,0.150,0.036,10.870,3.117,0.864,0.213,hard
1414.000,271.600,74.030,26.890,674.900,126.800,29.830,11.200,-0.239,0.425,0.150,0.036,10.800,3.108,0.862,0.211,hard
1413.000,270.600,73.950,26.880,686.800,127.200,29.910,11.280,-0.389,0.422,0.150,0.036,10.820,3.119,0.867,0.211,hard
1415.000,270.500,74.570,26.810,681.500,127.200,29.820,11.250,-0.467,0.434,0.154,0.036,10.850,3.111,0.868,0.212,hard
1418.000,271.000,74.600,26.960,687.200,126.800,29.970,11.250,-0.409,0.432,0.152,0.037,10.810,3.123,0.863,0.214,hard
1421.000,274.800,75.600,27.070,686.700,127.600,30.040,11.290,-0.500,0.440,0.151,0.036,10.840,3.120,0.869,0.214,hard
1424.000,273.800,75.890,27.270,684.700,127.300,29.910,11.330,-0.556,0.423,0.152,0.036,10.860,3.101,0.872,0.217,hard
1427.000,275.700,75.920,27.220,685.000,128.100,30.100,11.330,-0.446,0.434,0.153,0.036,10.910,3.135,0.875,0.217,hard
1431.000,276.500,75.740,27.220,684.300,127.900,30.090,11.230,-0.462,0.430,0.153,0.036,10.900,3.144,0.867,0.213,hard
1419.000,269.800,74.490,26.880,685.900,127.600,30.300,11.230,-0.439,0.424,0.153,0.036,10.870,3.115,0.865,0.211,hard
1415.000,274.000,75.050,26.910,684.500,127.300,30.100,11.210,-0.431,0.422,0.151,0.036,10.840,3.128,0.861,0.211,hard
1418.000,269.300,74.940,26.910,686.000,127.200,29.910,11.210,-0.386,0.426,0.149,0.036,10.820,3.123,0.865,0.212,hard
1414.000,270.900,74.230,26.810,683.800,127.200,29.930,11.300,-0.340,0.427,0.152,0.036,10.840,3.110,0.861,0.212,hard
1416.000,272.500,74.640,27.050,682.400,126.800,30.030,11.210,-0.384,0.427,0.151,0.036,10.850,3.100,0.864,0.213,hard
1419.000,271.500,75.320,27.050,686.200,126.700,30.170,11.270,-0.395,0.425,0.149,0.037,10.870,3.134,0.869,0.213,hard
1422.000,274.100,75.150,27.020,682.200,128.000,30.270,11.320,-0.368,0.429,0.151,0.036,10.870,3.132,0.869,0.214,hard
1425.000,274.600,75.890,27.100,687.300,127.400,30.320,11.310,-0.506,0.445,0.149,0.036,10.870,3.128,0.874,0.215,hard
1428.000,275.400,75.320,27.310,684.300,128.700,30.210,11.300,-0.394,0.427,0.150,0.036,10.920,3.131,0.871,0.216,hard
1433.000,276.000,76.310,27.520,693.400,128.500,30.260,11.400,-0.456,0.443,0.152,0.036,10.980,3.145,0.880,0.216,hard
1429.000,273.200,76.150,26.970,686.800,128.100,30.090,11.310,-0.428,0.422,0.151,0.036,10.900,3.114,0.863,0.211,hard
1415.000,272.300,75.040,26.900,681.600,128.100,29.880,11.280,-0.456,0.434,0.153,0.036,10.850,3.122,0.859,0.211,hard
1414.000,272.100,74.800,26.890,687.000,127.000,29.710,11.310,-0.352,0.420,0.152,0.036,10.820,3.124,0.861,0.212,hard
1413.000,270.600,74.470,26.810,683.600,127.600,30.000,11.270,-0.339,0.423,0.151,0.036,10.770,3.127,0.857,0.210,hard
1413.000,269.800,74.560,26.910,688.100,127.300,29.710,11.290,-0.362,0.437,0.151,0.036,10.870,3.114,0.862,0.210,hard
1415.000,273.000,74.390,27.060,688.300,126.300,29.910,11.260,-0.350,0.412,0.150,0.037,10.810,3.107,0.869,0.211,hard
1417.000,271.000,74.990,27.010,681.400,127.700,30.060,11.310,-0.354,0.429,0.148,0.037,10.830,3.117,0.871,0.212,hard
1419.000,271.900,74.850,27.150,681.400,127.800,30.230,11.350,-0.360,0.425,0.150,0.036,10.870,3.129,0.871,0.211,hard
1424.000,273.100,75.910,27.240,681.800,128.400,30.130,11.320,-0.384,0.443,0.152,0.036,10.900,3.124,0.870,0.213,hard
1426.000,273.700,76.100,27.440,687.800,127.700,30.370,11.430,-0.420,0.441,0.150,0.036,10.930,3.145,0.872,0.214,hard
1431.000,274.200,75.560,27.260,689.800,128.600,30.260,11.400,-0.476,0.438,0.153,0.036,10.950,3.150,0.873,0.214,hard
1430.000,273.600,75.340,27.140,688.300,127.200,30.040,11.320,-0.426,0.424,0.151,0.036,10.920,3.110,0.864,0.210,hard
1414.000,269.200,74.770,26.860,686.700,128.300,30.110,11.270,-0.500,0.435,0.151,0.036,10.820,3.104,0.858,0.211,hard
1412.000,270.900,74.860,26.880,686.400,127.900,29.990,11.260,-0.417,0.418,0.152,0.037,10.800,3.110,0.859,0.208,hard
1412.000,271.200,74.860,26.910,682.000,127.000,30.110,11.290,-0.371,0.437,0.151,0.036,10.790,3.108,0.854,0.212,hard
1412.000,269.500,74.730,26.920,678.900,126.600,29.920,11.270,-0.375,0.424,0.151,0.036,10.790,3.113,0.859,0.210,hard
1413.000,270.500,75.260,26.950,684.600,127.100,30.120,11.290,-0.343,0.429,0.151,0.037,10.880,3.105,0.862,0.211,hard
1415.000,271.500,74.990,26.970,685.100,128.200,29.990,11.320,-0.404,0.422,0.151,0.036,10.830,3.102,0.862,0.211,hard
1419.000,271.600,75.190,27.050,685.000,128.400,30.250,11.360,-0.362,0.427,0.151,0.037,10.860,3.105,0.861,0.211,hard
1421.000,272.500,75.090,27.220,688.800,128.700,30.100,11.370,-0.405,0.435,0.149,0.037,10.900,3.117,0.874,0.213,hard
1425.000,272.900,75.220,27.300,684.200,128.400,30.240,11.410,-0.407,0.432,0.151,0.037,10.930,3.135,0.875,0.214,hard
1431.000,275.000,75.990,27.440,688.500,128.300,30.280,11.390,-0.467,0.425,0.152,0.036,10.910,3.134,0.867,0.215,hard
1426.000,273.000,75.810,27.060,684.500,127.100,29.870,11.300,-0.452,0.430,0.151,0.036,10.860,3.113,0.863,0.211,hard
1416.000,270.600,74.480,26.900,680.800,128.600,30.220,11.260,-0.423,0.438,0.152,0.036,10.840,3.119,0.860,0.210,hard
1415.000,271.200,74.480,26.910,682.700,127.000,29.870,11.270,-0.381,0.432,0.152,0.036,10.830,3.113,0.856,0.211,hard
1415.000,272.000,74.680,26.790,685.100,127.100,30.180,11.330,-0.340,0.435,0.151,0.036,10.810,3.120,0.863,0.207,hard
1413.000,270.300,75.350,26.950,682.700,127.700,30.160,11.360,-0.368,0.417,0.153,0.036,10.850,3.111,0.856,0.211,hard
1417.000,270.300,75.110,27.080,687.100,127.500,30.010,11.390,-0.354,0.428,0.151,0.036,10.830,3.112,0.858,0.211,hard
1420.000,274.200,75.650,27.090,685.900,128.000,30.160,11.350,-0.318,0.441,0.153,0.037,10.850,3.122,0.861,0.211,hard
1423.000,272.900,75.320,27.200,686.900,127.600,30.340,11.360,-0.327,0.432,0.150,0.037,10.880,3.116,0.873,0.211,hard
1424.000,276.300,75.930,27.310,691.100,129.000,30.590,11.440,-0.369,0.432,0.151,0.037,10.930,3.133,0.865,0.213,hard
1431.000,274.900,76.890,27.540,690.000,128.600,30.440,11.410,-0.493,0.437,0.148,0.037,10.950,3.120,0.877,0.212,hard
1430.000,272.800,76.330,27.250,688.600,127.400,30.460,11.360,-0.460,0.440,0.150,0.037,10.890,3.115,0.862,0.210,hard
1419.000,274.100,74.740,26.930,686.000,127.100,30.330,11.310,-0.430,0.432,0.152,0.037,10.870,3.101,0.856,0.209,hard
1417.000,271.900,75.040,27.010,686.100,127.100,30.130,11.380,-0.435,0.435,0.151,0.036,10.880,3.105,0.858,0.211,hard
1418.000,274.600,75.040,27.040,690.300,127.700,30.160,11.350,-0.453,0.426,0.152,0.036,10.830,3.104,0.856,0.211,hard
1416.000,270.900,75.740,26.990,685.000,128.200,30.000,11.360,-0.443,0.413,0.151,0.037,10.860,3.132,0.861,0.210,hard
1420.000,271.600,75.430,27.090,683.000,127.600,30.270,11.370,-0.420,0.434,0.150,0.037,10.780,3.106,0.862,0.211,hard
1422.000,276.300,75.580,27.180,687.900,128.100,30.260,11.320,-0.397,0.425,0.153,0.036,10.920,3.137,0.865,0.210,hard
1427.000,274.500,75.770,27.240,689.500,127.700,30.390,11.430,-0.340,0.422,0.151,0.036,10.930,3.129,0.866,0.212,hard
1429.000,276.700,76.190,27.280,686.100,127.600,30.410,11.460,-0.374,0.424,0.151,0.037,10.930,3.117,0.868,0.212,hard
1434.000,274.500,76.200,27.700,687.200,128.500,30.250,11.470,-0.375,0.432,0.152,0.037,10.950,3.140,0.872,0.214,hard
1437.000,276.100,76.900,27.700,688.600,128.500,30.480,11.460,-0.312,0.434,0.151,0.037,10.930,3.132,0.871,0.212,hard
1428.000,272.300,75.700,27.160,684.600,128.200,30.310,11.400,-0.385,0.440,0.151,0.036,10.870,3.115,0.855,0.209,hard
1420.000,273.800,75.290,27.050,684.000,127.400,30.210,11.310,-0.522,0.437,0.151,0.036,10.890,3.092,0.855,0.210,hard
1418.000,271.400,75.260,27.050,689.300,127.400,30.330,11.380,-0.539,0.423,0.153,0.036,10.850,3.107,0.862,0.209,hard
1418.000,270.500,74.940,26.980,685.300,128.500,30.090,11.350,-0.360,0.433,0.151,0.036,10.840,3.107,0.855,0.208,hard
1419.000,273.000,75.440,27.080,687.700,127.700,30.160,11.350,-0.456,0.431,0.151,0.037,10.880,3.107,0.857,0.209,hard
1422.000,271.600,75.340,27.180,687.200,127.700,30.160,11.390,-0.430,0.426,0.152,0.037,10.900,3.109,0.861,0.211,hard
1422.000,275.300,75.500,27.140,687.700,127.900,30.260,11.430,-0.415,0.421,0.151,0.037,10.860,3.132,0.864,0.211,hard
1427.000,272.800,75.440,27.320,685.800,128.800,30.410,11.470,-0.316,0.420,0.151,0.037,10.900,3.125,0.865,0.211,hard
1431.000,276.000,76.120,27.380,688.700,128.700,30.280,11.460,-0.331,0.447,0.153,0.037,10.920,3.121,0.866,0.212,hard
1435.000,274.400,76.620,27.660,686.100,129.400,30.550,11.510,-0.417,0.431,0.151,0.037,10.980,3.126,0.874,0.214,hard
1440.000,274.900,77.030,27.730,686.700,128.600,30.390,11.460,-0.525,0.430,0.153,0.037,11.000,3.150,0.872,0.213,hard
1432.000,274.300,76.600,27.360,686.400,128.100,30.090,11.350,-0.443,0.438,0.149,0.036,10.840,3.113,0.860,0.210,hard
1421.000,274.300,75.000,27.170,685.000,127.600,30.490,11.380,-0.465,0.433,0.151,0.036,10.900,3.102,0.851,0.209,hard
1420.000,272.600,75.230,27.080,687.300,127.300,30.210,11.380,-0.539,0.430,0.152,0.035,10.900,3.099,0.857,0.210,hard
1421.000,272.300,75.120,26.950,688.500,127.500,30.210,11.370,-0.429,0.438,0.149,0.036,10.850,3.116,0.852,0.208,hard
1419.000,272.600,74.860,27.150,693.200,127.700,30.260,11.470,-0.399,0.430,0.150,0.036,10.910,3.115,0.859,0.211,hard
1423.000,273.600,75.860,27.270,686.800,128.500,30.380,11.450,-0.440,0.429,0.153,0.036,10.970,3.118,0.866,0.211,hard
1427.000,273.300,76.170,27.360,682.000,128.700,30.220,11.360,-0.325,0.426,0.153,0.036,10.920,3.135,0.863,0.213,hard
1430.000,274.900,75.990,27.420,689.700,128.600,30.270,11.430,-0.352,0.432,0.151,0.036,10.920,3.153,0.867,0.211,hard
1433.000,275.200,76.180,27.500,686.700,128.200,30.300,11.500,-0.367,0.431,0.153,0.037,10.940,3.145,0.872,0.213,hard
1436.000,275.600,76.990,27.720,691.100,129.100,30.710,11.580,-0.380,0.435,0.152,0.037,10.960,3.149,0.871,0.214,hard
1442.000,277.400,76.910,27.710,691.200,128.700,30.360,11.510,-0.352,0.428,0.153,0.037,10.960,3.133,0.872,0.213,hard
1430.000,275.000,75.360,27.210,686.500,128.000,30.430,11.400,-0.379,0.440,0.151,0.037,10.860,3.114,0.863,0.210,hard
1424.000,275.200,75.070,27.210,690.900,126.900,30.120,11.370,-0.458,0.430,0.149,0.036,10.840,3.119,0.863,0.210,hard
1427.000,274.600,75.890,27.230,687.500,128.600,30.060,11.330,-0.473,0.432,0.151,0.036,10.950,3.125,0.864,0.212,hard
1424.000,273.300,75.520,27.250,685.500,127.400,30.400,11.370,-0.445,0.438,0.150,0.036,10.910,3.126,0.858,0.211,hard
1426.000,275.700,76.070,27.200,685.600,128.700,30.430,11.500,-0.478,0.433,0.153,0.036,10.900,3.102,0.856,0.212,hard
1430.000,274.300,76.280,27.510,685.400,128.600,30.190,11.490,-0.402,0.429,0.151,0.037,10.900,3.130,0.858,0.212,hard
1432.000,276.700,76.340,27.550,690.000,128.700,30.270,11.470,-0.297,0.432,0.153,0.037,10.950,3.134,0.867,0.212,hard
1435.000,274.800,76.100,27.660,694.200,128.600,30.380,11.500,-0.390,0.429,0.151,0.037,10.950,3.123,0.864,0.214,hard
1441.000,275.200,77.220,27.810,690.000,129.500,31.000,11.510,-0.363,0.435,0.150,0.037,10.950,3.158,0.868,0.213,hard
1443.000,277.100,77.430,27.710,686.900,129.400,30.550,11.400,-0.453,0.436,0.153,0.036,10.910,3.129,0.873,0.212,hard
1431.000,275.500,76.080,27.420,686.600,128.100,30.400,11.470,-0.402,0.417,0.150,0.037,10.930,3.125,0.863,0.210,hard
1426.000,277.300,75.900,27.210,687.400,129.000,30.460,11.450,-0.413,0.428,0.151,0.037,10.910,3.132,0.861,0.210,hard
1429.000,275.300,76.430,27.320,690.700,127.800,30.220,11.460,-0.414,0.436,0.150,0.036,10.940,3.100,0.861,0.211,hard
1427.000,273.800,76.140,27.440,680.200,127.500,30.190,11.490,-0.548,0.432,0.153,0.036,10.910,3.115,0.863,0.211,hard
1428.000,276.300,76.420,27.400,686.500,128.200,30.390,11.470,-0.380,0.427,0.153,0.037,10.900,3.125,0.870,0.211,hard
1434.000,276.300,76.250,27.490,691.100,128.600,30.440,11.490,-0.416,0.423,0.151,0.036,10.960,3.142,0.868,0.211,hard
1437.000,275.600,76.310,27.610,691.800,129.000,30.210,11.530,-0.413,0.431,0.154,0.037,10.960,3.149,0.867,0.213,hard
1438.000,279.100,76.920,27.750,690.400,129.900,30.480,11.510,-0.413,0.426,0.152,0.037,10.920,3.152,0.867,0.215,hard
1442.000,275.900,77.270,27.890,693.100,128.000,30.640,11.590,-0.340,0.426,0.155,0.037,10.980,3.162,0.876,0.214,hard
1448.000,280.100,77.910,27.860,689.400,129.300,30.560,11.490,-0.335,0.427,0.154,0.037,10.980,3.133,0.869,0.212,hard
1434.000,278.200,76.020,27.350,689.400,128.500,30.430,11.390,-0.389,0.429,0.153,0.036,10.970,3.121,0.860,0.211,hard
1428.000,271.800,76.010,27.370,687.300,128.000,30.180,11.410,-0.386,0.430,0.149,0.036,10.870,3.127,0.860,0.208,hard
1428.000,274.500,76.020,27.360,686.200,128.400,30.320,11.450,-0.428,0.434,0.151,0.037,10.940,3.110,0.865,0.210,hard
1427.000,275.000,75.730,27.200,694.100,128.200,30.440,11.520,-0.501,0.434,0.151,0.036,10.850,3.105,0.854,0.211,hard
1428.000,273.300,75.110,27.470,690.800,128.500,30.520,11.530,-0.368,0.422,0.151,0.037,10.910,3.116,0.867,0.211,hard
1431.000,276.400,75.900,27.440,690.500,128.100,30.390,11.580,-0.518,0.426,0.150,0.036,10.940,3.125,0.864,0.210,hard
1434.000,278.200,76.010,27.650,686.800,128.500,30.340,11.560,-0.403,0.436,0.151,0.036,10.930,3.127,0.863,0.213,hard
1438.000,278.500,76.890,27.620,694.100,128.800,30.520,11.500,-0.388,0.426,0.153,0.037,10.950,3.114,0.864,0.214,hard
1441.000,275.300,77.780,27.820,687.700,129.200,30.600,11.550,-0.459,0.423,0.153,0.037,10.930,3.125,0.872,0.214,hard
1446.000,279.500,77.640,27.930,688.300,129.100,30.560,11.580,-0.392,0.436,0.153,0.037,10.960,3.157,0.871,0.214,hard
