A-DC1,A-DC2,A-DC3,A-DC4,A-DC5,A-DC6,A-DC7,A-DC8,B-DC1,B-DC2,B-DC3,B-DC4,B-DC5,B-DC6,B-DC7,B-DC8,condition
1453.000,315.400,77.780,16.540,1253.000,217.600,49.000,9.656,183.200,34.110,7.823,2.353,361.200,86.570,24.470,7.731,baseline
1461.000,319.200,78.530,16.600,1257.000,219.300,49.360,9.751,183.500,34.230,7.945,2.386,368.800,88.580,25.080,7.938,baseline
1470.000,323.300,79.780,16.950,1268.000,224.600,50.710,9.967,184.100,34.480,8.065,2.423,379.200,91.450,25.500,8.113,baseline
1481.000,325.000,79.980,16.880,1263.000,224.000,50.320,9.906,184.600,34.770,8.050,2.439,369.200,88.460,24.860,7.922,baseline
1472.000,322.200,79.920,16.850,1264.000,222.800,50.190,9.850,180.800,34.390,7.975,2.451,367.300,88.150,24.740,7.901,baseline
1470.000,321.200,79.450,16.890,1261.000,221.500,50.150,9.862,185.300,34.540,8.107,2.443,370.600,89.180,25.190,7.952,baseline
1472.000,324.300,79.890,16.950,1267.000,221.100,50.210,9.869,183.000,34.750,8.125,2.442,372.400,89.350,25.100,7.944,baseline
1473.000,324.100,79.730,16.960,1259.000,221.700,50.200,9.872,182.500,35.220,8.142,2.453,374.300,89.990,25.470,8.027,baseline
1475.000,323.700,80.280,17.050,1268.000,220.800,50.200,9.895,188.200,35.070,8.122,2.478,381.300,91.530,25.710,8.116,baseline
1479.000,325.600,80.180,17.210,1264.000,221.600,50.360,9.903,184.100,35.260,8.235,2.479,387.000,92.900,26.110,8.228,baseline
1485.000,325.100,80.670,17.190,1271.000,220.600,50.040,9.895,187.000,35.720,8.187,2.472,383.600,91.700,25.600,8.035,baseline
1480.000,322.900,79.430,16.990,1269.000,220.100,50.040,9.895,182.800,34.610,8.160,2.462,374.700,90.070,25.240,7.971,baseline
1476.000,322.500,79.500,16.970,1265.000,220.000,49.920,9.867,181.800,35.230,8.157,2.452,376.700,90.620,25.560,8.058,baseline
1479.000,324.200,79.970,16.970,1269.000,220.700,50.040,9.885,183.200,35.420,8.205,2.470,381.000,91.510,25.720,8.115,baseline
1482.000,323.900,80.420,17.070,1265.000,220.900,49.860,9.911,184.200,35.060,8.194,2.458,381.600,91.980,25.690,8.188,baseline
1485.000,324.700,80.600,17.140,1276.000,221.200,50.110,9.960,185.900,35.180,8.195,2.483,386.800,93.080,25.820,8.272,baseline
1489.000,327.000,80.890,17.330,1276.000,221.500,50.300,9.985,186.600,35.540,8.231,2.486,390.600,94.190,26.340,8.331,baseline
1497.000,328.000,81.240,17.340,1276.000,221.500,50.290,9.964,187.900,36.000,8.315,2.502,393.000,94.130,26.330,8.293,baseline
1494.000,325.600,80.630,17.210,1274.000,221.500,50.270,9.947,185.600,35.130,8.166,2.465,380.100,90.780,25.470,8.087,baseline
1489.000,325.600,80.780,17.230,1276.000,221.200,50.200,9.938,183.400,35.060,8.180,2.465,378.100,90.640,25.520,8.128,baseline
1491.000,324.800,81.110,17.290,1275.000,221.400,50.350,9.944,184.300,35.170,8.220,2.487,382.400,91.540,25.680,8.174,baseline
1493.000,327.200,81.040,17.260,1279.000,221.900,50.250,10.030,184.800,35.250,8.219,2.476,382.500,91.340,25.870,8.173,baseline
1495.000,325.100,80.830,17.300,1287.000,221.900,50.380,10.080,186.800,35.340,8.196,2.481,384.600,92.450,25.950,8.269,baseline
1499.000,328.500,81.710,17.400,1280.000,222.400,50.540,10.100,184.900,35.550,8.307,2.492,390.100,93.950,26.380,8.305,baseline
1505.000,329.700,81.720,17.550,1280.000,222.800,50.620,10.060,188.800,35.550,8.316,2.507,394.300,94.720,26.370,8.315,baseline
1502.000,329.200,80.930,17.360,1277.000,221.600,50.560,10.000,185.500,35.090,8.259,2.481,380.500,91.130,25.520,8.130,baseline
1496.000,326.300,81.110,17.350,1277.000,221.700,50.360,9.981,184.100,35.120,8.172,2.481,376.800,90.790,25.560,8.136,baseline
1497.000,325.900,81.000,17.350,1277.000,221.800,50.380,10.030,183.800,35.010,8.206,2.469,380.400,91.460,25.800,8.180,baseline
1498.000,325.100,81.240,17.340,1273.000,222.000,50.520,10.020,183.800,35.400,8.231,2.481,381.900,91.460,25.790,8.184,baseline
1499.000,327.500,81.590,17.400,1278.000,221.600,50.640,10.010,183.500,35.190,8.229,2.494,383.100,92.280,25.900,8.202,baseline
1500.000,327.900,81.500,17.480,1283.000,221.600,50.830,10.030,185.600,35.080,8.264,2.511,388.800,93.400,26.190,8.334,baseline
1505.000,331.200,81.860,17.550,1277.000,221.800,50.750,10.080,186.500,35.690,8.328,2.521,392.700,94.530,26.480,8.339,baseline
1506.000,328.300,81.410,17.390,1281.000,221.800,50.340,9.999,187.000,35.210,8.252,2.485,381.500,90.600,25.650,8.084,baseline
1497.000,325.300,81.150,17.330,1279.000,221.300,50.240,10.020,182.400,35.090,8.204,2.460,378.000,90.650,25.540,8.055,baseline
1494.000,325.500,80.910,17.330,1277.000,221.300,50.580,10.060,184.600,35.510,8.175,2.451,378.700,90.860,25.660,8.125,baseline
1495.000,326.700,80.970,17.340,1276.000,221.800,50.360,9.993,181.700,35.010,8.168,2.480,380.800,90.990,25.580,8.145,baseline
1495.000,326.500,81.310,17.320,1273.000,221.100,50.460,10.030,184.000,35.260,8.230,2.481,381.900,91.620,25.830,8.171,baseline
1498.000,327.700,81.450,17.470,1277.000,222.000,50.610,10.070,184.200,35.270,8.180,2.480,386.800,92.870,26.000,8.244,baseline
1500.000,326.400,81.770,17.470,1273.000,222.100,50.640,10.030,184.700,35.350,8.298,2.506,390.800,93.870,26.390,8.354,baseline
1503.000,328.800,81.640,17.490,1277.000,221.200,50.400,9.989,183.300,35.530,8.308,2.510,384.300,91.780,25.800,8.118,baseline
1494.000,323.600,80.720,17.230,1274.000,220.100,50.370,9.977,180.300,35.130,8.233,2.452,378.100,90.360,25.400,8.080,baseline
1491.000,323.500,80.510,17.240,1274.000,221.100,50.310,9.959,183.900,35.070,8.141,2.457,378.200,90.160,25.510,8.073,baseline
1491.000,324.900,80.770,17.300,1266.000,220.000,50.350,9.982,183.600,35.130,8.210,2.478,380.400,90.820,25.640,8.072,baseline
1490.000,324.800,80.600,17.380,1275.000,221.300,50.440,10.000,181.400,35.060,8.161,2.479,381.300,91.150,25.650,8.121,baseline
1490.000,325.300,80.580,17.370,1273.000,220.800,50.270,10.020,183.900,35.360,8.192,2.472,385.400,92.030,25.770,8.215,baseline
1494.000,325.600,80.610,17.400,1272.000,220.800,50.450,10.030,185.200,35.210,8.275,2.493,388.100,93.450,26.260,8.290,baseline
1496.000,326.100,81.420,17.490,1275.000,221.100,50.400,10.100,185.500,35.500,8.308,2.495,393.400,94.510,26.560,8.388,baseline
1499.000,326.400,81.590,17.410,1274.000,220.400,50.210,10.030,185.000,35.980,8.347,2.514,388.800,92.710,25.870,8.201,baseline
1492.000,325.300,80.560,17.310,1272.000,220.200,50.000,9.961,185.300,35.150,8.135,2.480,379.600,90.410,25.550,8.088,baseline
1487.000,324.200,80.440,17.280,1272.000,220.300,50.060,10.000,185.000,34.970,8.133,2.448,379.500,90.780,25.650,8.115,baseline
1487.000,324.900,80.290,17.260,1266.000,220.500,50.270,9.981,183.500,34.800,8.204,2.466,381.900,91.290,25.710,8.137,baseline
1487.000,324.500,80.410,17.250,1268.000,220.400,50.180,9.963,180.200,34.860,8.226,2.489,382.500,91.550,25.710,8.144,baseline
1489.000,324.700,80.560,17.300,1270.000,219.900,50.450,9.978,185.500,35.000,8.159,2.472,384.700,92.490,26.000,8.236,baseline
1490.000,324.900,80.930,17.430,1274.000,220.200,50.400,9.990,186.500,35.310,8.319,2.493,388.400,93.950,26.180,8.308,baseline
1494.000,326.000,80.710,17.470,1273.000,220.000,50.270,10.050,186.700,35.540,8.331,2.515,394.100,94.780,26.620,8.394,baseline
1498.000,326.500,81.220,17.560,1271.000,221.300,50.360,10.050,186.900,35.310,8.345,2.520,398.600,96.060,26.890,8.443,baseline
1500.000,329.200,81.630,17.510,1274.000,219.700,50.200,9.989,185.400,35.680,8.337,2.497,392.100,93.400,26.180,8.268,baseline
1492.000,325.100,80.690,17.260,1270.000,219.900,50.130,9.988,182.800,35.010,8.223,2.480,383.200,91.430,25.920,8.141,baseline
1488.000,325.600,81.030,17.200,1271.000,220.600,50.220,10.000,183.500,35.020,8.188,2.469,383.400,91.840,25.920,8.185,baseline
1488.000,325.500,81.060,17.300,1265.000,221.100,50.080,9.986,183.900,34.700,8.247,2.483,385.900,92.380,25.970,8.224,baseline
1488.000,324.200,80.340,17.280,1271.000,220.200,50.160,10.040,182.300,35.380,8.302,2.475,386.200,92.810,26.030,8.234,baseline
1491.000,325.600,80.660,17.340,1271.000,221.200,50.260,9.989,182.800,35.380,8.280,2.487,391.100,93.400,26.220,8.280,baseline
1494.000,326.500,80.920,17.430,1272.000,220.300,50.280,10.040,183.900,35.660,8.341,2.520,395.200,95.310,26.650,8.377,baseline
1497.000,326.200,81.530,17.480,1271.000,220.700,50.430,10.000,186.300,35.790,8.302,2.503,399.200,96.310,26.850,8.493,baseline
1500.000,328.700,81.430,17.650,1273.000,221.400,50.660,10.020,188.300,35.690,8.380,2.531,404.300,97.330,27.180,8.531,baseline
1502.000,328.700,81.540,17.430,1274.000,220.700,50.440,10.050,187.300,35.850,8.407,2.506,391.400,93.510,26.210,8.296,baseline
1495.000,327.800,80.940,17.370,1275.000,221.700,50.290,10.020,185.400,35.130,8.217,2.502,387.600,93.110,26.060,8.257,baseline
1493.000,324.500,80.720,17.350,1275.000,220.900,50.230,10.020,186.300,35.150,8.229,2.479,390.300,93.570,26.210,8.287,baseline
1494.000,327.100,80.860,17.410,1272.000,220.700,50.470,9.984,183.800,35.400,8.249,2.484,392.900,93.990,26.280,8.292,baseline
1494.000,326.000,80.850,17.400,1274.000,222.000,50.220,10.050,185.600,35.170,8.279,2.490,394.100,94.200,26.390,8.418,baseline
1496.000,327.700,81.440,17.490,1275.000,221.000,50.330,10.020,187.200,35.610,8.290,2.506,397.200,95.440,26.680,8.456,baseline
1500.000,326.700,81.740,17.500,1277.000,222.100,50.450,10.080,186.600,36.120,8.331,2.516,402.800,96.960,26.980,8.594,baseline
1503.000,328.400,81.770,17.640,1282.000,221.900,50.600,10.050,188.200,35.970,8.354,2.529,407.500,98.160,27.330,8.603,baseline
1505.000,327.600,81.250,17.470,1267.000,221.100,50.470,10.000,189.200,35.980,8.389,2.507,395.600,94.120,26.340,8.294,baseline
1496.000,324.900,80.950,17.370,1271.000,220.700,50.030,9.971,185.100,35.450,8.219,2.479,390.200,93.610,26.250,8.308,baseline
1493.000,326.500,80.770,17.380,1272.000,220.300,50.400,10.030,187.200,35.150,8.229,2.484,392.200,93.980,26.410,8.349,baseline
1495.000,325.500,80.620,17.440,1266.000,220.900,50.290,10.030,189.300,35.520,8.243,2.508,395.600,94.560,26.350,8.379,baseline
1494.000,326.200,80.590,17.420,1274.000,220.500,50.310,9.989,187.200,35.530,8.321,2.507,396.500,94.680,26.560,8.391,baseline
1495.000,327.300,81.150,17.450,1279.000,221.000,50.520,10.010,186.300,35.810,8.308,2.509,399.000,95.880,26.830,8.461,baseline
1498.000,327.800,81.320,17.500,1273.000,221.500,50.430,10.060,190.100,35.870,8.373,2.531,404.200,97.530,27.110,8.625,baseline
1502.000,329.100,81.740,17.630,1274.000,221.600,50.360,10.050,189.400,35.970,8.436,2.539,406.300,97.970,27.110,8.578,baseline
1500.000,327.100,80.660,17.390,1273.000,220.300,50.310,10.010,190.000,36.070,8.313,2.504,393.600,93.530,26.370,8.325,baseline
1492.000,324.500,80.530,17.250,1270.000,220.400,50.090,10.010,186.300,35.320,8.202,2.489,391.300,93.590,26.100,8.251,baseline
1490.000,325.000,80.330,17.370,1271.000,219.500,50.260,9.986,185.700,35.500,8.211,2.497,392.800,94.220,26.350,8.328,baseline
1490.000,325.200,80.540,17.270,1275.000,220.500,50.130,10.000,186.700,35.610,8.256,2.506,394.000,94.660,26.340,8.315,baseline
1490.000,325.600,80.330,17.370,1271.000,220.300,50.270,9.978,183.400,35.810,8.326,2.507,396.400,95.370,26.550,8.422,baseline
1491.000,326.500,80.440,17.420,1269.000,220.200,50.290,9.988,189.700,36.000,8.321,2.494,399.700,96.270,26.760,8.496,baseline
1494.000,326.800,80.990,17.400,1275.000,221.200,50.240,9.986,188.600,36.040,8.334,2.539,406.200,97.880,27.200,8.570,baseline
1497.000,329.600,80.570,17.480,1274.000,220.300,50.030,9.936,190.500,36.350,8.432,2.529,401.700,96.450,26.630,8.381,baseline
1491.000,325.400,80.460,17.130,1272.000,219.800,49.700,9.932,188.400,35.690,8.257,2.495,391.600,93.800,26.100,8.292,baseline
1483.000,324.600,79.940,17.110,1271.000,220.200,50.000,9.950,184.300,35.560,8.245,2.476,392.300,93.830,26.200,8.325,baseline
1483.000,321.900,80.070,17.240,1269.000,219.300,49.800,9.916,188.000,35.330,8.210,2.493,394.300,94.620,26.230,8.282,baseline
1484.000,323.400,79.880,17.160,1265.000,220.700,50.010,9.935,184.800,35.870,8.299,2.488,394.700,94.310,26.330,8.296,baseline
1483.000,323.200,79.720,17.130,1266.000,219.900,49.990,9.948,184.700,35.750,8.252,2.491,398.900,95.690,26.530,8.418,baseline
1485.000,324.300,80.260,17.310,1273.000,220.900,50.110,9.947,185.800,35.720,8.370,2.511,403.200,96.950,26.880,8.495,baseline
1489.000,325.100,80.590,17.410,1271.000,220.500,50.270,9.932,189.600,36.010,8.344,2.534,407.300,97.980,27.220,8.528,baseline
1490.000,324.000,80.140,17.190,1271.000,219.000,50.020,9.900,185.700,35.680,8.291,2.494,394.600,94.610,26.210,8.288,baseline
1481.000,321.900,79.150,16.970,1263.000,219.000,49.760,9.848,186.400,35.490,8.231,2.486,391.700,93.510,26.010,8.228,baseline
1478.000,319.500,79.220,17.060,1267.000,218.400,49.670,9.893,185.800,35.120,8.251,2.497,394.000,93.640,26.150,8.269,baseline
1480.000,321.200,79.150,17.050,1263.000,218.800,49.680,9.838,185.500,35.880,8.242,2.512,394.700,94.240,26.130,8.293,baseline
1478.000,321.900,79.120,16.950,1263.000,218.400,49.650,9.891,187.000,35.030,8.220,2.495,396.600,94.560,26.380,8.266,baseline
1478.000,322.200,79.720,17.040,1267.000,218.600,49.680,9.893,187.300,35.700,8.257,2.497,399.300,95.880,26.560,8.392,baseline
1480.000,320.800,79.380,17.070,1263.000,217.600,49.730,9.893,188.400,35.700,8.333,2.513,402.600,97.190,26.810,8.433,baseline
1484.000,323.700,79.810,17.170,1266.000,217.900,49.480,9.870,187.700,35.860,8.383,2.508,400.100,95.330,26.360,8.310,baseline
1477.000,319.100,78.740,16.880,1261.000,217.400,49.360,9.843,188.300,35.490,8.181,2.486,390.800,92.850,25.830,8.165,baseline
1470.000,318.200,78.710,16.800,1259.000,216.900,49.280,9.811,183.900,35.130,8.135,2.481,390.900,93.150,25.870,8.188,baseline
1468.000,318.000,78.720,16.850,1259.000,216.900,49.310,9.796,188.400,36.010,8.185,2.485,393.400,93.870,26.070,8.211,baseline
1468.000,317.400,78.700,16.860,1262.000,216.800,49.140,9.778,183.300,35.300,8.273,2.488,392.600,93.790,26.130,8.253,baseline
1468.000,318.700,78.470,16.840,1262.000,217.200,49.450,9.765,183.400,35.570,8.256,2.475,395.400,94.470,26.260,8.245,baseline
1469.000,320.100,78.530,16.950,1256.000,216.900,49.650,9.818,189.300,35.920,8.308,2.509,399.000,96.000,26.510,8.369,baseline
1472.000,319.400,78.780,17.030,1260.000,216.500,49.610,9.820,186.200,36.080,8.286,2.514,403.000,97.000,26.590,8.373,baseline
1470.000,320.100,78.250,16.700,1256.000,216.200,49.190,9.766,188.100,35.890,8.233,2.496,390.400,93.240,25.940,8.153,baseline
1462.000,315.800,78.000,16.640,1255.000,216.300,49.250,9.738,184.500,35.550,8.187,2.498,390.200,92.950,25.690,8.155,baseline
1459.000,315.800,77.500,16.780,1256.000,215.600,49.070,9.752,183.400,34.970,8.236,2.480,392.400,93.070,25.860,8.179,baseline
1459.000,317.200,78.000,16.680,1253.000,216.500,48.910,9.745,188.100,35.530,8.218,2.476,391.400,93.890,25.950,8.170,baseline
1459.000,316.100,77.770,16.700,1250.000,216.700,49.040,9.742,183.800,35.610,8.188,2.467,395.000,94.110,25.940,8.259,baseline
1460.000,317.400,77.800,16.810,1255.000,216.500,49.290,9.768,187.700,35.700,8.211,2.488,398.900,95.350,26.450,8.323,baseline
1464.000,318.100,78.530,16.750,1251.000,217.700,49.400,9.807,186.600,36.130,8.288,2.516,403.000,97.060,26.760,8.400,baseline
1466.000,318.200,78.740,16.820,1248.000,217.300,49.140,9.748,190.700,35.690,8.319,2.490,393.500,93.690,25.940,8.201,baseline
1458.000,315.600,77.980,16.610,1250.000,216.200,49.350,9.701,188.100,35.210,8.199,2.461,389.500,92.540,25.710,8.119,baseline
1454.000,315.500,77.420,16.660,1249.000,216.400,49.280,9.725,184.600,35.180,8.163,2.476,392.200,93.670,25.790,8.167,baseline
1455.000,314.100,77.320,16.690,1248.000,216.000,49.370,9.741,184.000,35.850,8.226,2.477,391.100,93.450,25.940,8.169,baseline
1454.000,316.400,77.150,16.660,1248.000,216.200,49.240,9.804,187.700,35.220,8.175,2.486,394.300,93.990,26.110,8.176,baseline
1456.000,315.800,78.200,16.660,1251.000,217.100,49.550,9.825,186.700,35.540,8.260,2.484,397.400,94.860,26.130,8.298,baseline
1461.000,316.200,78.320,16.820,1249.000,217.300,49.520,9.794,186.100,35.760,8.281,2.488,400.700,95.750,26.520,8.344,baseline
1463.000,318.500,78.190,16.790,1250.000,217.800,49.320,9.793,188.200,36.190,8.301,2.504,397.400,94.660,26.090,8.134,baseline
1456.000,314.300,77.320,16.550,1247.000,217.100,49.390,9.759,183.200,35.550,8.192,2.482,388.800,92.090,25.510,8.043,baseline
1450.000,313.400,77.320,16.570,1250.000,216.900,49.310,9.809,184.000,35.000,8.186,2.459,388.200,91.930,25.540,8.105,baseline
1449.000,315.500,77.500,16.570,1251.000,216.400,49.320,9.818,186.200,35.300,8.205,2.472,389.100,92.600,25.540,8.099,baseline
1447.000,314.300,77.230,16.650,1249.000,217.000,49.470,9.801,187.600,35.490,8.187,2.485,388.500,92.760,25.760,8.088,baseline
1449.000,315.600,77.550,16.660,1252.000,217.000,49.470,9.788,184.900,35.630,8.217,2.483,391.400,93.330,25.780,8.120,baseline
1451.000,315.500,78.040,16.780,1252.000,217.600,49.470,9.823,187.400,35.350,8.160,2.489,395.300,94.260,25.970,8.253,baseline
1454.000,315.400,78.130,16.810,1248.000,217.500,49.430,9.837,188.000,35.960,8.238,2.499,398.500,94.730,26.070,8.137,baseline
1451.000,315.700,77.240,16.560,1250.000,216.800,49.520,9.831,184.500,35.400,8.139,2.471,385.000,91.180,25.290,7.958,baseline
1442.000,312.800,76.580,16.430,1247.000,217.600,49.340,9.794,184.200,35.160,8.116,2.455,382.100,90.590,25.070,7.986,baseline
1440.000,311.000,76.840,16.520,1247.000,216.700,49.560,9.830,182.900,34.910,8.051,2.446,384.100,91.060,25.200,7.956,baseline
1439.000,311.200,76.870,16.540,1246.000,218.000,49.650,9.832,185.600,34.950,8.150,2.455,384.200,91.600,25.210,7.942,baseline
1439.000,311.700,77.000,16.520,1248.000,218.100,49.710,9.826,184.200,34.610,8.162,2.444,384.700,91.490,25.310,8.039,baseline
1441.000,311.000,77.060,16.590,1248.000,218.000,49.860,9.876,183.500,35.550,8.183,2.470,389.300,92.810,25.530,8.064,baseline
1445.000,312.800,77.750,16.630,1252.000,218.400,49.930,9.871,186.100,35.350,8.148,2.485,393.300,93.860,25.780,8.166,baseline
1447.000,314.400,77.440,16.570,1250.000,218.400,49.760,9.792,188.800,35.750,8.175,2.457,385.900,91.240,25.080,7.949,baseline
1438.000,311.300,76.580,16.420,1247.000,217.400,49.700,9.828,182.100,34.680,8.128,2.447,378.000,89.660,24.950,7.822,baseline
1433.000,310.000,76.520,16.400,1246.000,217.500,49.640,9.839,183.500,34.320,8.009,2.446,376.300,89.240,24.780,7.867,baseline
1433.000,311.700,77.000,16.380,1246.000,218.600,49.650,9.868,181.600,34.800,8.106,2.434,379.100,89.870,24.870,7.797,baseline
1432.000,311.200,76.330,16.390,1250.000,218.400,49.670,9.816,182.200,34.800,8.070,2.428,379.700,90.290,24.820,7.874,baseline
1434.000,310.900,77.080,16.460,1247.000,217.300,49.930,9.892,184.100,34.480,8.118,2.456,382.600,91.040,25.240,7.936,baseline
1437.000,311.800,77.400,16.580,1250.000,218.400,50.010,9.899,184.700,34.970,8.144,2.478,386.300,92.040,25.470,8.038,baseline
1439.000,312.500,77.440,16.660,1254.000,219.600,50.100,9.970,181.400,35.510,8.188,2.476,389.800,93.360,25.620,8.039,baseline
1442.000,312.300,77.000,16.560,1255.000,218.500,49.890,9.914,187.700,35.350,8.171,2.465,381.900,90.160,24.900,7.833,baseline
1435.000,310.800,76.900,16.390,1251.000,219.100,49.890,9.905,180.500,34.550,8.044,2.440,375.900,88.540,24.450,7.732,baseline
1430.000,310.300,77.120,16.420,1250.000,218.600,50.110,9.944,180.200,34.350,8.062,2.424,374.600,89.170,24.600,7.783,baseline
1430.000,309.700,76.700,16.440,1251.000,219.100,50.140,9.934,182.700,34.470,8.062,2.459,375.400,88.990,24.670,7.770,baseline
1431.000,309.900,77.010,16.410,1253.000,219.000,50.240,10.000,186.300,34.810,8.053,2.441,377.100,89.410,24.850,7.808,baseline
1432.000,312.200,77.190,16.500,1253.000,219.500,50.400,9.963,180.400,34.630,8.136,2.456,380.600,90.780,25.030,7.854,baseline
1436.000,312.700,77.280,16.550,1256.000,219.900,50.570,9.989,184.900,35.080,8.095,2.453,384.100,91.530,25.200,7.963,baseline
1440.000,312.100,77.670,16.660,1259.000,219.800,50.500,10.040,184.700,35.120,8.173,2.464,389.100,93.240,25.490,8.055,baseline
1444.000,314.400,77.870,16.640,1259.000,220.900,50.390,9.990,187.800,35.190,8.204,2.472,381.800,90.310,24.930,7.884,baseline
1438.000,311.100,77.020,16.520,1261.000,220.600,50.400,10.010,183.600,34.530,8.033,2.460,374.000,88.990,24.480,7.771,baseline
1433.000,311.500,76.740,16.390,1256.000,220.300,50.550,9.989,186.100,35.210,8.072,2.438,374.100,89.140,24.710,7.734,baseline
1433.000,309.900,77.220,16.380,1258.000,220.900,50.460,10.010,184.400,34.810,8.122,2.449,377.300,89.050,24.590,7.790,baseline
1434.000,312.200,77.160,16.440,1258.000,221.200,50.460,9.991,183.200,35.330,8.080,2.444,377.800,89.670,24.880,7.780,baseline
1435.000,311.100,77.300,16.530,1258.000,221.500,50.780,10.060,181.600,34.820,8.092,2.438,381.000,90.700,25.000,7.854,baseline
1439.000,314.400,78.340,16.670,1267.000,222.100,50.770,10.090,184.900,35.110,8.201,2.446,383.900,91.570,25.200,7.997,baseline
1443.000,314.900,77.940,16.620,1263.000,222.000,50.740,10.130,184.900,35.450,8.216,2.474,389.700,93.130,25.550,8.073,baseline
1449.000,315.100,78.440,16.820,1270.000,223.000,50.980,10.140,185.600,35.430,8.257,2.502,391.000,92.900,25.440,7.986,baseline
1446.000,313.000,77.540,16.610,1273.000,222.200,50.820,10.070,183.700,35.600,8.142,2.444,375.800,89.820,24.700,7.811,baseline
1441.000,312.400,77.310,16.580,1271.000,223.000,50.950,10.090,181.900,34.890,8.092,2.447,377.000,89.290,24.700,7.811,baseline
1441.000,312.900,77.260,16.610,1273.000,222.600,50.840,10.110,181.900,34.960,8.079,2.454,378.800,90.360,24.810,7.852,baseline
1442.000,314.600,77.580,16.610,1276.000,223.100,51.080,10.140,185.600,35.080,8.178,2.457,379.200,90.280,25.010,7.852,baseline
1443.000,313.700,77.440,16.610,1274.000,223.500,51.060,10.170,182.600,35.220,8.150,2.469,380.700,90.830,25.030,7.931,baseline
1446.000,315.100,78.290,16.800,1272.000,223.300,51.040,10.180,185.100,35.070,8.153,2.477,384.600,92.470,25.420,7.981,baseline
1451.000,316.800,78.490,16.790,1273.000,224.300,51.410,10.200,182.600,35.370,8.203,2.493,391.400,93.360,25.750,8.099,baseline
1456.000,317.900,79.100,16.870,1283.000,224.300,51.240,10.170,183.200,35.360,8.259,2.508,388.600,92.730,25.320,7.958,baseline
1452.000,316.000,78.310,16.720,1278.000,223.800,51.150,10.180,183.500,34.930,8.092,2.472,378.000,89.480,24.760,7.839,baseline
1447.000,312.600,78.170,16.680,1281.000,224.500,51.500,10.180,181.800,34.900,8.109,2.455,376.200,89.230,24.680,7.849,baseline
1448.000,314.900,78.150,16.710,1279.000,224.600,51.300,10.190,180.100,34.880,8.092,2.473,376.900,90.380,24.940,7.870,baseline
1449.000,314.500,78.060,16.700,1281.000,224.500,51.410,10.240,185.300,35.220,8.159,2.469,378.900,89.930,25.010,7.857,baseline
1451.000,315.500,78.720,16.770,1280.000,225.600,51.530,10.220,182.300,35.130,8.191,2.473,380.900,91.020,25.130,7.913,baseline
1453.000,316.800,78.670,16.870,1282.000,226.000,51.630,10.280,184.100,35.510,8.207,2.469,386.100,91.990,25.530,8.059,baseline
1458.000,317.000,78.660,16.940,1283.000,226.800,51.820,10.270,183.400,35.360,8.266,2.490,389.800,93.670,25.840,8.115,baseline
1463.000,318.300,79.010,16.890,1282.000,224.800,51.610,10.230,185.800,35.760,8.279,2.490,380.500,90.470,25.010,7.914,baseline
1454.000,317.000,78.490,16.710,1285.000,225.400,51.470,10.190,180.200,35.180,8.148,2.459,374.300,88.750,24.680,7.797,baseline
1452.000,314.700,77.980,16.660,1285.000,225.700,51.460,10.200,183.700,35.320,8.088,2.454,374.100,89.390,24.850,7.833,baseline
1452.000,315.500,78.650,16.730,1292.000,226.200,51.390,10.230,183.700,35.220,8.076,2.465,375.900,89.730,24.840,7.827,baseline
1453.000,313.900,78.580,16.760,1285.000,225.400,51.640,10.270,184.700,34.560,8.192,2.460,376.600,89.570,24.940,7.864,baseline
1455.000,316.300,78.780,16.810,1289.000,225.800,51.530,10.270,185.500,35.240,8.143,2.462,379.400,90.830,25.170,7.954,baseline
1459.000,317.400,78.810,16.860,1284.000,226.200,51.800,10.260,182.800,35.010,8.262,2.473,383.700,92.180,25.430,8.025,baseline
1462.000,319.100,79.000,17.080,1292.000,226.600,51.940,10.270,185.700,35.540,8.276,2.497,388.600,93.140,25.770,8.088,baseline
1464.000,318.700,78.850,16.810,1288.000,226.500,51.630,10.260,186.900,35.790,8.176,2.479,377.100,89.540,24.750,7.830,baseline
1456.000,317.100,78.060,16.700,1290.000,225.800,51.610,10.190,182.200,34.740,8.122,2.475,372.300,88.240,24.620,7.747,baseline
1453.000,316.800,78.280,16.760,1291.000,224.600,51.590,10.260,182.000,34.890,8.149,2.452,372.400,88.700,24.640,7.811,baseline
1454.000,315.700,78.360,16.750,1294.000,225.100,51.710,10.270,183.800,34.910,8.140,2.455,374.300,88.710,24.740,7.812,baseline
1454.000,316.500,78.300,16.750,1289.000,225.100,51.540,10.280,183.800,35.020,8.195,2.456,375.500,89.010,24.800,7.839,baseline
1457.000,317.200,78.690,16.780,1293.000,225.900,51.830,10.270,183.500,35.330,8.140,2.465,378.300,90.380,25.190,7.955,baseline
1460.000,316.900,78.720,16.930,1295.000,226.300,51.890,10.300,182.800,35.550,8.270,2.490,383.600,91.720,25.590,8.049,baseline
1465.000,319.400,79.210,17.000,1299.000,226.500,51.720,10.320,185.800,35.470,8.334,2.504,388.800,92.740,25.680,8.076,baseline
1466.000,317.800,78.730,16.780,1294.000,225.200,51.770,10.260,186.700,35.210,8.255,2.485,375.300,88.850,24.740,7.814,baseline
1458.000,317.600,78.040,16.750,1291.000,226.000,51.570,10.260,182.300,35.080,8.154,2.471,370.800,87.920,24.560,7.737,baseline
1455.000,316.000,78.280,16.740,1293.000,226.400,51.660,10.230,181.800,34.630,8.205,2.460,372.200,88.430,24.670,7.801,baseline
1456.000,316.900,78.750,16.770,1289.000,225.800,52.060,10.320,183.200,34.880,8.220,2.477,372.500,88.630,24.650,7.823,baseline
1457.000,315.600,78.080,16.770,1296.000,225.800,51.740,10.350,183.600,34.860,8.165,2.474,373.600,88.770,24.850,7.872,baseline
1459.000,318.300,78.820,16.880,1297.000,225.800,51.900,10.300,183.400,34.820,8.151,2.489,377.300,89.930,25.080,7.957,baseline
1463.000,319.100,78.960,16.990,1291.000,226.600,51.970,10.330,183.800,35.610,8.242,2.505,381.900,91.570,25.560,8.025,baseline
1467.000,320.400,79.620,17.040,1301.000,226.000,52.330,10.330,185.300,35.690,8.289,2.506,387.100,92.530,25.580,8.020,baseline
1467.000,318.500,79.290,16.850,1300.000,226.400,51.890,10.310,185.400,35.710,8.227,2.490,373.100,88.750,24.680,7.771,baseline
1457.000,316.200,78.450,16.770,1297.000,225.900,51.780,10.280,181.800,34.810,8.201,2.475,371.200,87.910,24.600,7.745,baseline
1457.000,316.400,78.240,16.790,1297.000,225.400,51.760,10.310,181.600,34.930,8.165,2.483,370.700,88.360,24.740,7.801,baseline
1459.000,316.400,78.510,16.780,1296.000,224.900,51.490,10.310,183.900,35.210,8.196,2.480,372.600,88.440,24.620,7.789,baseline
1459.000,316.800,78.410,16.890,1295.000,226.100,51.800,10.290,181.600,35.100,8.243,2.491,373.000,88.810,24.910,7.901,baseline
1461.000,317.900,79.030,17.000,1296.000,226.600,52.020,10.330,183.400,35.020,8.311,2.493,378.600,90.180,25.070,7.947,baseline
1463.000,319.700,78.810,17.020,1302.000,227.000,52.170,10.350,184.900,35.230,8.328,2.508,383.200,91.610,25.550,8.037,baseline
1469.000,319.700,79.110,17.060,1300.000,226.500,52.250,10.330,187.200,35.620,8.337,2.515,388.200,92.450,25.650,8.049,baseline
1469.000,320.500,78.990,16.930,1302.000,226.700,52.050,10.280,186.300,35.260,8.280,2.491,373.400,88.600,24.800,7.843,baseline
1461.000,316.400,78.730,16.800,1300.000,226.000,51.830,10.280,185.100,34.820,8.229,2.495,370.100,87.730,24.650,7.778,baseline
1459.000,317.300,78.510,16.780,1294.000,226.300,52.040,10.320,183.200,34.870,8.234,2.508,372.500,88.870,24.840,7.824,baseline
1461.000,316.400,78.550,16.850,1299.000,226.300,51.800,10.320,184.900,34.880,8.287,2.501,372.800,88.840,24.740,7.882,baseline
1462.000,316.200,78.660,16.860,1298.000,226.500,52.150,10.340,181.800,34.970,8.249,2.486,375.100,89.100,24.960,7.887,baseline
1465.000,318.000,78.980,16.990,1298.000,227.600,51.970,10.410,185.000,35.180,8.302,2.511,379.800,90.780,25.400,8.025,baseline
1467.000,321.500,79.190,17.070,1299.000,227.700,52.190,10.410,186.000,35.470,8.393,2.519,385.000,92.020,25.700,8.122,baseline
1472.000,321.700,79.580,17.140,1303.000,228.400,52.130,10.360,187.800,35.790,8.428,2.538,388.400,92.680,25.540,8.039,baseline
1470.000,319.100,78.860,16.910,1304.000,227.000,51.940,10.330,187.500,35.520,8.308,2.510,374.600,89.140,24.810,7.836,baseline
1463.000,319.200,78.330,16.870,1301.000,227.200,52.010,10.300,183.500,35.250,8.302,2.504,372.100,88.610,24.870,7.844,baseline
1464.000,319.500,78.880,16.930,1295.000,226.800,52.070,10.330,182.700,35.550,8.317,2.520,375.400,89.280,24.960,7.884,baseline
1463.000,319.300,78.610,16.860,1300.000,226.700,52.160,10.330,184.700,35.500,8.294,2.512,376.100,89.170,25.020,7.905,baseline
1464.000,318.300,79.220,16.990,1309.000,226.800,52.070,10.390,182.600,35.250,8.339,2.540,378.300,90.280,25.150,7.990,baseline
1467.000,318.200,79.380,17.040,1304.000,227.300,52.190,10.380,186.200,35.990,8.384,2.544,382.500,91.560,25.510,8.078,baseline
1471.000,319.700,79.610,17.040,1302.000,227.300,52.350,10.410,187.500,36.050,8.446,2.538,387.700,92.900,25.700,8.141,baseline
1475.000,321.700,79.920,17.140,1303.000,227.100,52.120,10.410,188.600,36.210,8.450,2.566,384.700,91.760,25.360,7.986,baseline
1468.000,317.800,79.070,16.910,1303.000,227.200,52.040,10.350,184.200,35.450,8.405,2.543,373.300,88.580,24.840,7.913,baseline
1463.000,317.800,78.730,16.850,1303.000,227.700,52.170,10.360,185.600,35.120,8.352,2.542,373.200,89.220,25.010,7.903,baseline
1464.000,317.800,79.010,16.930,1303.000,226.700,52.270,10.310,183.600,35.580,8.335,2.522,375.100,89.540,25.070,7.971,baseline
1463.000,318.300,78.780,16.970,1301.000,226.300,52.210,10.340,186.100,35.920,8.410,2.523,375.600,89.750,25.190,7.965,baseline
1465.000,318.200,78.920,16.980,1297.000,227.100,52.090,10.350,185.800,35.170,8.373,2.544,379.800,90.890,25.410,8.038,baseline
1467.000,321.500,79.310,17.020,1303.000,227.400,52.290,10.400,186.600,35.920,8.468,2.545,383.800,92.220,25.740,8.091,baseline
1473.000,320.800,79.370,17.120,1304.000,227.600,52.020,10.470,186.700,36.200,8.471,2.554,389.000,93.240,25.970,8.187,baseline
1474.000,319.900,79.210,17.090,1302.000,227.200,52.070,10.360,187.500,36.210,8.448,2.560,377.300,89.670,25.050,7.886,baseline
1463.000,318.600,78.430,16.890,1306.000,226.300,51.970,10.370,182.600,35.820,8.311,2.523,371.600,88.380,24.780,7.880,baseline
1461.000,317.100,78.190,16.890,1300.000,226.400,52.160,10.340,183.400,35.060,8.298,2.534,373.100,88.920,24.860,7.917,baseline
1460.000,317.200,78.960,16.910,1301.000,226.300,51.910,10.370,186.600,35.320,8.386,2.529,373.800,89.020,25.020,7.888,baseline
1461.000,317.500,78.380,16.930,1296.000,226.500,51.940,10.360,185.500,35.840,8.372,2.541,374.000,89.200,24.980,7.962,baseline
1462.000,316.200,79.100,16.970,1304.000,227.000,51.960,10.370,184.000,35.080,8.374,2.549,380.100,90.260,25.420,8.062,baseline
1464.000,319.500,79.450,17.000,1302.000,227.600,52.330,10.380,187.400,35.500,8.488,2.562,383.500,92.070,25.510,8.123,baseline
1469.000,320.100,79.850,17.080,1299.000,228.000,52.180,10.390,188.600,35.980,8.445,2.563,387.300,92.500,25.870,8.098,baseline
1467.000,318.000,78.810,16.940,1300.000,227.000,51.910,10.340,185.200,35.830,8.412,2.557,372.900,88.930,24.930,7.859,baseline
1457.000,315.400,78.500,16.800,1299.000,226.400,52.120,10.320,184.400,35.520,8.299,2.518,369.500,87.930,24.790,7.865,baseline
1455.000,315.400,78.400,16.760,1299.000,226.000,51.950,10.290,185.400,35.510,8.328,2.530,371.800,88.680,24.820,7.909,baseline
1456.000,317.500,77.960,16.880,1300.000,226.000,51.830,10.330,185.200,35.260,8.372,2.546,371.600,88.520,24.920,7.896,baseline
1456.000,316.500,77.850,16.890,1296.000,226.000,51.880,10.370,186.400,35.700,8.375,2.540,373.900,89.450,25.020,7.954,baseline
1456.000,318.000,78.300,16.940,1299.000,226.300,51.950,10.360,188.300,35.670,8.443,2.560,379.000,90.120,25.420,8.035,baseline
1459.000,319.500,78.710,16.950,1298.000,226.800,51.940,10.400,187.200,35.540,8.470,2.564,382.400,91.490,25.620,8.100,baseline
1464.000,318.300,78.860,17.020,1302.000,227.400,52.010,10.330,188.100,36.140,8.509,2.558,386.800,92.670,25.650,8.103,baseline
1463.000,317.000,78.990,16.860,1298.000,226.900,51.860,10.340,183.000,36.220,8.434,2.546,372.000,88.560,24.690,7.891,baseline
1455.000,315.200,77.820,16.720,1299.000,226.200,51.920,10.280,185.200,35.260,8.373,2.522,368.700,87.860,24.740,7.831,baseline
1449.000,315.100,77.650,16.820,1298.000,225.900,51.720,10.330,185.500,35.400,8.322,2.537,371.100,88.270,24.730,7.871,baseline
1452.000,315.700,77.690,16.770,1293.000,226.100,51.830,10.250,185.000,35.510,8.377,2.547,371.700,88.280,24.830,7.837,baseline
1450.000,314.900,78.050,16.890,1294.000,226.200,51.930,10.320,185.400,35.480,8.400,2.548,373.400,89.030,25.030,7.925,baseline
1453.000,316.800,78.760,16.840,1297.000,226.600,52.070,10.320,185.400,35.870,8.433,2.539,376.500,90.020,25.350,7.989,baseline
1455.000,317.100,78.930,17.020,1299.000,226.500,51.950,10.360,185.200,35.900,8.511,2.575,381.700,91.410,25.450,8.101,baseline
1460.000,318.100,79.150,17.000,1299.000,226.600,52.150,10.340,188.700,35.960,8.499,2.578,383.800,91.340,25.360,7.938,baseline
1456.000,315.900,78.050,16.760,1299.000,225.900,52.000,10.260,185.600,35.440,8.376,2.532,369.700,88.040,24.550,7.830,baseline
1449.000,313.500,77.890,16.780,1296.000,226.000,51.840,10.270,183.200,35.150,8.372,2.524,367.800,87.690,24.590,7.850,baseline
1447.000,313.600,78.060,16.750,1295.000,225.800,51.560,10.290,184.300,35.410,8.425,2.535,370.000,88.230,24.720,7.826,baseline
1447.000,315.600,78.290,16.680,1295.000,225.800,51.610,10.310,184.800,35.670,8.364,2.548,372.100,88.690,24.770,7.863,baseline
1449.000,315.700,78.400,16.800,1299.000,227.000,52.060,10.330,184.700,35.630,8.368,2.541,373.900,89.010,25.050,7.945,baseline
1453.000,317.800,78.360,16.890,1294.000,226.600,52.030,10.320,185.100,35.770,8.436,2.559,378.600,90.630,25.420,8.032,baseline
1455.000,317.000,78.790,16.910,1298.000,226.800,52.000,10.360,185.600,35.990,8.522,2.576,382.500,91.920,25.710,8.145,baseline
1459.000,318.700,78.420,16.960,1297.000,226.200,51.950,10.320,187.200,36.160,8.510,2.582,378.400,90.070,24.990,7.922,baseline
1453.000,316.300,77.940,16.710,1297.000,225.400,51.760,10.290,184.600,35.790,8.418,2.542,368.900,87.710,24.680,7.846,baseline
1450.000,314.200,77.900,16.730,1297.000,225.700,51.810,10.260,183.900,35.450,8.368,2.556,369.900,87.660,24.680,7.834,baseline
1450.000,315.700,78.180,16.810,1299.000,226.400,51.960,10.320,184.500,35.720,8.407,2.535,371.900,88.240,24.870,7.873,baseline
1450.000,316.400,78.230,16.800,1298.000,226.400,51.910,10.320,185.000,35.740,8.413,2.561,372.700,88.450,24.930,7.912,baseline
1453.000,316.300,77.960,16.810,1300.000,227.100,52.240,10.310,185.500,35.750,8.384,2.560,375.800,89.750,25.050,8.019,baseline
1456.000,316.700,78.760,16.870,1297.000,227.400,52.000,10.390,189.500,36.220,8.505,2.581,380.100,90.920,25.390,8.057,baseline
1460.000,318.500,78.990,16.990,1301.000,227.500,52.190,10.370,190.400,36.410,8.542,2.592,385.400,92.390,25.790,8.143,baseline
1463.000,318.100,78.930,16.920,1298.000,227.600,52.020,10.340,190.900,36.060,8.566,2.560,376.300,88.940,25.030,7.905,baseline
1455.000,315.600,78.420,16.750,1301.000,227.100,51.840,10.340,186.500,35.580,8.390,2.552,370.500,87.970,24.780,7.840,baseline
1454.000,315.200,78.530,16.800,1299.000,227.300,52.030,10.310,185.800,35.950,8.366,2.559,373.000,88.810,25.050,7.906,baseline
1456.000,316.300,78.540,16.940,1304.000,227.200,52.220,10.350,185.800,35.840,8.458,2.572,373.400,89.130,25.060,7.960,baseline
1458.000,318.100,78.700,16.870,1307.000,227.500,52.020,10.340,183.500,35.710,8.398,2.569,374.800,89.860,25.210,7.978,baseline
1461.000,318.800,79.010,17.010,1300.000,227.900,52.360,10.350,187.700,36.170,8.484,2.589,379.600,90.630,25.490,8.075,baseline
1465.000,319.200,78.760,17.050,1306.000,228.900,52.460,10.390,188.300,36.280,8.529,2.598,383.200,92.270,25.740,8.204,baseline
1469.000,320.400,79.990,17.170,1305.000,228.000,52.450,10.410,189.400,36.790,8.592,2.613,386.500,92.810,25.870,8.126,baseline
1469.000,319.200,79.410,16.900,1304.000,227.000,52.170,10.370,187.200,35.740,8.427,2.574,372.700,88.540,25.030,7.919,baseline
1461.000,316.900,78.660,16.930,1301.000,227.300,52.220,10.360,186.000,35.640,8.454,2.568,371.200,88.360,24.870,7.897,baseline
1461.000,319.400,78.720,16.940,1303.000,227.400,52.190,10.370,184.700,35.980,8.445,2.572,374.200,89.040,25.050,7.932,baseline
1465.000,317.400,79.210,16.960,1305.000,227.400,52.610,10.340,185.900,35.950,8.439,2.563,372.900,88.940,25.160,7.971,baseline
1465.000,318.500,78.950,17.000,1305.000,228.300,52.360,10.430,186.400,36.100,8.426,2.586,375.500,89.590,25.180,8.060,baseline
1470.000,319.700,79.760,17.170,1305.000,228.500,52.550,10.430,183.400,36.550,8.521,2.592,379.200,90.630,25.590,8.119,baseline
1474.000,320.100,79.920,17.100,1310.000,228.400,52.490,10.470,188.300,36.110,8.547,2.603,384.400,92.200,25.940,8.213,baseline
1478.000,323.000,80.030,17.280,1309.000,228.000,52.620,10.430,187.200,36.190,8.553,2.628,384.900,91.690,25.570,8.106,baseline
1474.000,319.900,79.630,17.050,1308.000,228.100,52.230,10.380,189.400,35.870,8.458,2.588,371.100,88.570,24.960,7.902,baseline
1468.000,319.200,79.290,16.980,1307.000,227.100,52.310,10.370,186.000,35.760,8.530,2.563,369.700,87.800,24.790,7.936,baseline
1468.000,319.400,79.290,17.040,1307.000,228.900,52.270,10.420,185.700,35.670,8.524,2.572,372.400,88.650,25.100,7.977,baseline
1471.000,319.000,79.650,17.060,1307.000,228.000,52.400,10.390,185.800,35.610,8.473,2.582,371.700,88.840,25.220,7.967,baseline
1472.000,321.000,79.750,17.130,1306.000,228.300,52.570,10.480,186.100,36.220,8.569,2.581,375.800,89.600,25.320,8.045,baseline
1475.000,320.900,80.120,17.260,1312.000,229.200,52.370,10.440,188.300,36.300,8.462,2.603,380.500,90.940,25.570,8.155,baseline
1480.000,323.400,80.390,17.280,1311.000,228.300,52.580,10.470,189.600,36.510,8.591,2.612,384.700,91.990,25.890,8.251,baseline
1483.000,323.500,80.610,17.320,1315.000,229.300,52.550,10.430,187.800,36.850,8.667,2.624,384.600,91.880,25.600,8.095,baseline
1480.000,321.100,79.600,17.200,1308.000,228.100,52.610,10.450,187.800,35.920,8.484,2.592,370.900,88.130,24.980,7.943,baseline
1474.000,320.700,79.740,17.180,1312.000,229.000,52.450,10.400,187.300,35.810,8.492,2.571,369.800,87.830,24.920,7.939,baseline
1475.000,319.200,79.940,17.200,1315.000,228.700,52.400,10.440,184.900,35.940,8.481,2.578,372.600,88.680,25.170,7.951,baseline
1476.000,321.100,79.660,17.120,1312.000,228.100,52.690,10.420,187.400,36.170,8.534,2.601,372.300,89.320,25.290,8.013,baseline
1478.000,321.500,80.090,17.280,1315.000,228.400,52.500,10.450,182.900,35.850,8.533,2.602,376.300,90.070,25.420,8.079,baseline
1481.000,323.400,80.240,17.310,1313.000,227.400,52.650,10.500,185.300,36.350,8.597,2.603,382.000,91.530,25.810,8.170,baseline
1485.000,323.100,80.730,17.390,1310.000,229.300,52.850,10.470,190.000,36.360,8.590,2.618,385.700,92.890,26.050,8.255,baseline
1489.000,325.400,81.230,17.420,1319.000,229.100,52.690,10.540,190.000,36.450,8.655,2.642,390.400,93.720,26.350,8.321,baseline
1490.000,324.100,80.920,17.300,1315.000,229.100,52.680,10.430,191.800,37.040,8.652,2.618,376.400,89.890,25.110,8.035,baseline
1482.000,322.000,80.180,17.200,1311.000,228.500,52.430,10.410,189.200,35.960,8.500,2.606,371.600,88.790,25.010,7.999,baseline
1480.000,322.200,79.930,17.190,1306.000,228.500,52.560,10.470,188.600,35.850,8.477,2.596,371.800,89.300,25.410,8.030,baseline
1481.000,323.200,80.160,17.150,1317.000,228.400,52.420,10.420,189.400,36.270,8.502,2.587,375.100,89.400,25.280,8.027,baseline
1481.000,321.800,80.560,17.260,1311.000,228.100,52.470,10.440,186.200,36.440,8.563,2.599,376.900,90.000,25.540,8.082,baseline
1483.000,322.200,80.550,17.310,1311.000,228.700,52.690,10.470,185.900,36.110,8.578,2.609,381.500,91.530,25.640,8.211,baseline
1486.000,323.400,80.820,17.370,1313.000,228.400,52.840,10.500,190.800,36.490,8.679,2.630,385.800,92.730,26.200,8.297,baseline
1489.000,325.800,81.360,17.500,1313.000,230.000,52.610,10.490,191.700,36.710,8.642,2.647,390.900,94.080,26.340,8.360,baseline
1493.000,326.000,81.240,17.500,1320.000,229.000,52.790,10.500,191.800,37.340,8.753,2.638,392.700,93.970,26.170,8.257,baseline
1489.000,323.500,80.600,17.310,1310.000,227.700,52.630,10.450,189.400,36.210,8.596,2.613,375.400,89.790,25.210,8.055,baseline
1483.000,323.800,80.200,17.290,1314.000,227.100,52.400,10.420,185.300,36.280,8.503,2.597,375.500,89.490,25.410,8.049,baseline
1480.000,324.200,80.990,17.190,1312.000,228.100,52.360,10.420,189.300,36.270,8.506,2.620,376.800,90.600,25.440,8.113,baseline
1480.000,320.400,79.770,17.280,1311.000,227.800,52.220,10.420,189.300,36.050,8.598,2.607,378.500,90.680,25.450,8.125,baseline
1480.000,321.900,80.200,17.300,1313.000,228.300,52.370,10.440,187.500,36.170,8.544,2.615,381.200,91.260,25.800,8.184,baseline
1483.000,323.800,80.440,17.350,1312.000,228.400,52.560,10.410,187.600,36.690,8.639,2.636,385.400,92.490,26.050,8.245,baseline
1487.000,322.900,81.080,17.400,1309.000,228.100,52.490,10.460,188.400,37.080,8.736,2.647,390.700,94.000,26.490,8.389,baseline
1490.000,325.400,81.620,17.520,1313.000,229.100,52.780,10.460,188.100,36.870,8.722,2.652,397.000,95.860,26.650,8.459,baseline
1493.000,326.700,81.040,17.430,1309.000,228.500,52.320,10.410,191.600,36.920,8.713,2.634,384.700,91.860,25.650,8.196,baseline
1483.000,323.100,80.240,17.240,1312.000,227.400,52.160,10.400,188.100,36.770,8.545,2.591,376.800,90.020,25.450,8.059,baseline
1480.000,321.500,80.290,17.230,1303.000,227.600,52.220,10.420,189.500,36.350,8.550,2.596,378.700,90.810,25.650,8.152,baseline
1478.000,322.400,80.380,17.280,1307.000,226.600,52.200,10.400,187.800,36.070,8.572,2.625,381.900,91.200,25.820,8.136,baseline
1478.000,322.100,79.950,17.200,1306.000,226.700,52.260,10.420,190.500,36.530,8.596,2.614,381.500,91.510,25.870,8.212,baseline
1479.000,321.800,80.450,17.280,1308.000,228.600,52.150,10.350,186.600,36.680,8.627,2.621,386.700,92.980,25.940,8.314,baseline
1481.000,324.900,80.760,17.390,1310.000,228.300,52.390,10.410,191.500,37.070,8.612,2.615,392.600,94.710,26.470,8.389,baseline
1485.000,325.600,80.820,17.430,1309.000,228.300,52.290,10.380,192.700,36.960,8.674,2.644,396.700,95.750,26.610,8.469,baseline
1489.000,324.300,81.150,17.510,1307.000,227.900,52.120,10.380,191.200,37.160,8.715,2.647,397.100,94.680,26.240,8.340,baseline
1485.000,323.600,80.230,17.260,1308.000,226.900,52.100,10.340,189.500,36.560,8.617,2.604,380.400,91.690,25.700,8.173,baseline
1478.000,321.700,80.480,17.270,1299.000,226.900,51.930,10.310,188.100,36.570,8.581,2.598,381.200,90.850,25.650,8.180,baseline
1478.000,322.800,79.850,17.240,1307.000,226.700,51.790,10.310,188.700,36.680,8.600,2.604,386.000,92.150,25.830,8.257,baseline
1477.000,320.300,79.820,17.280,1301.000,227.000,51.830,10.340,188.600,36.850,8.620,2.610,384.500,92.470,25.990,8.246,baseline
1476.000,322.200,79.790,17.220,1304.000,227.100,52.080,10.330,187.300,36.240,8.595,2.623,388.200,93.310,26.210,8.347,baseline
1479.000,323.500,80.510,17.300,1306.000,226.800,51.870,10.320,189.100,36.560,8.620,2.630,394.700,94.820,26.480,8.405,baseline
1483.000,323.200,80.340,17.380,1302.000,226.800,52.050,10.290,189.800,37.180,8.668,2.643,397.200,96.010,26.840,8.546,baseline
1485.000,323.900,80.850,17.360,1306.000,226.800,51.750,10.310,191.800,36.810,8.743,2.647,398.700,95.820,26.620,8.387,baseline
1481.000,322.200,80.170,17.200,1301.000,226.800,51.560,10.270,192.200,36.700,8.605,2.620,382.800,91.900,25.710,8.208,baseline
1472.000,318.200,79.810,17.100,1304.000,225.900,51.620,10.250,188.200,36.150,8.526,2.597,382.000,91.250,25.830,8.161,baseline
1472.000,319.700,79.310,17.100,1303.000,226.500,51.580,10.260,188.600,36.680,8.569,2.607,385.700,92.710,25.980,8.280,baseline
1472.000,321.000,79.390,17.200,1299.000,225.300,51.560,10.200,188.200,36.330,8.596,2.602,384.200,92.430,25.970,8.267,baseline
1471.000,321.700,80.050,17.120,1300.000,226.500,51.490,10.220,189.400,36.470,8.656,2.608,387.600,93.240,26.190,8.323,baseline
1473.000,320.500,79.460,17.180,1302.000,226.400,51.450,10.190,190.000,36.570,8.647,2.610,391.800,94.680,26.560,8.442,baseline
1477.000,321.700,79.690,17.280,1303.000,225.500,51.780,10.240,190.500,37.070,8.669,2.626,396.600,95.490,26.720,8.486,baseline
1480.000,323.200,80.210,17.240,1298.000,227.100,51.590,10.220,190.600,37.040,8.736,2.621,395.300,94.410,26.280,8.273,baseline
1474.000,319.500,79.370,17.030,1297.000,226.100,51.390,10.190,192.500,36.260,8.544,2.592,381.100,90.980,25.550,8.185,baseline
1465.000,319.100,78.740,16.930,1298.000,225.100,51.500,10.180,184.900,36.260,8.506,2.573,380.700,90.880,25.450,8.107,baseline
1462.000,317.200,79.070,16.980,1293.000,225.400,51.540,10.160,186.800,36.060,8.575,2.585,382.600,91.270,25.650,8.190,baseline
1462.000,318.300,78.870,16.920,1296.000,224.300,51.400,10.120,190.100,36.290,8.515,2.608,382.700,91.230,25.730,8.220,baseline
1464.000,319.000,79.170,16.990,1296.000,224.900,51.380,10.150,190.400,36.270,8.599,2.585,384.500,92.220,26.060,8.272,baseline
1465.000,318.300,79.480,16.980,1294.000,224.900,51.050,10.150,191.000,36.830,8.611,2.604,390.500,93.700,26.120,8.324,baseline
1454.000,317.400,77.720,16.780,1288.000,223.700,50.910,10.070,187.300,35.710,8.471,2.573,379.000,90.870,25.510,8.110,hard
1452.000,314.800,77.810,16.700,1288.000,223.700,50.950,10.050,186.100,35.940,8.445,2.555,379.000,90.210,25.470,8.063,hard
1453.000,315.800,78.040,16.670,1289.000,223.600,50.980,10.050,186.900,35.960,8.465,2.560,382.000,91.520,25.680,8.148,hard
1454.000,315.100,78.520,16.750,1286.000,223.200,50.700,10.100,185.800,36.220,8.467,2.589,386.500,92.620,25.930,8.223,hard
1456.000,316.200,78.520,16.790,1287.000,223.700,51.030,10.070,189.500,36.390,8.561,2.591,391.400,94.080,26.160,8.325,hard
1460.000,319.300,79.240,16.870,1289.000,224.000,50.810,10.080,191.500,36.920,8.623,2.596,394.700,94.550,26.160,8.288,hard
1458.000,315.600,78.360,16.610,1288.000,222.500,50.710,10.020,189.400,36.820,8.494,2.562,378.000,90.230,25.300,8.034,hard
1447.000,314.300,77.590,16.540,1283.000,223.100,50.630,9.989,185.000,35.620,8.430,2.558,374.400,88.930,25.100,8.016,hard
1443.000,313.400,77.430,16.490,1278.000,223.300,50.630,9.983,187.800,35.950,8.411,2.540,376.000,90.000,25.140,8.034,hard
1443.000,313.700,77.430,16.520,1282.000,222.400,50.450,9.978,184.200,35.850,8.400,2.553,375.200,89.910,25.130,7.985,hard
1441.000,311.800,76.860,16.480,1281.000,222.600,50.610,9.974,183.000,35.930,8.429,2.547,377.300,89.810,25.400,8.031,hard
1445.000,313.300,76.990,16.580,1280.000,222.500,50.400,9.985,186.900,35.980,8.428,2.562,380.500,90.840,25.570,8.094,hard
1450.000,313.700,77.430,16.640,1285.000,221.800,50.230,9.998,187.700,36.180,8.509,2.577,385.400,92.300,25.860,8.215,hard
1452.000,314.900,77.720,16.620,1282.000,220.600,50.220,9.985,189.200,36.110,8.496,2.571,387.100,93.320,26.030,8.289,hard
1456.000,313.400,77.220,16.620,1281.000,221.200,50.050,9.923,191.100,36.710,8.519,2.569,383.500,91.450,25.420,8.052,hard
1446.000,309.900,76.680,16.310,1277.000,220.600,49.630,9.817,185.500,35.350,8.339,2.523,369.500,88.490,24.710,7.899,hard
1438.000,308.300,75.870,16.290,1275.000,218.600,49.680,9.804,184.600,35.430,8.323,2.538,367.900,88.140,24.700,7.858,hard
1433.000,309.200,76.090,16.130,1272.000,218.300,49.380,9.811,184.200,35.760,8.332,2.522,369.500,88.030,24.630,7.854,hard
1432.000,306.700,75.840,16.170,1274.000,218.900,49.310,9.749,185.000,35.460,8.346,2.523,369.400,88.060,24.690,7.849,hard
1431.000,308.000,75.610,16.150,1269.000,219.000,49.530,9.800,183.900,35.270,8.312,2.547,371.000,88.910,24.930,7.955,hard
1432.000,308.400,75.950,16.240,1271.000,217.900,49.680,9.799,183.200,35.260,8.363,2.535,374.900,90.120,25.200,8.014,hard
1433.000,308.500,75.710,16.210,1274.000,218.200,49.480,9.799,184.300,35.920,8.415,2.532,379.100,91.120,25.470,8.061,hard
1436.000,310.200,76.440,16.370,1272.000,218.700,49.530,9.764,186.200,36.120,8.393,2.564,382.100,91.590,25.560,8.073,hard
1434.000,309.000,75.740,16.130,1267.000,217.500,49.400,9.727,185.800,35.490,8.281,2.541,367.300,87.540,24.770,7.786,hard
1423.000,304.400,75.110,15.980,1267.000,217.800,49.000,9.723,185.000,35.430,8.245,2.517,363.200,86.450,24.220,7.715,hard
1417.000,305.100,74.840,15.940,1268.000,217.800,49.410,9.705,181.900,35.010,8.260,2.481,363.500,86.840,24.390,7.787,hard
1418.000,306.600,74.980,15.900,1262.000,218.200,49.110,9.689,182.800,34.990,8.256,2.499,364.300,86.900,24.390,7.760,hard
1416.000,304.600,75.190,15.910,1263.000,217.900,49.150,9.697,182.500,35.190,8.287,2.496,364.700,87.220,24.450,7.779,hard
1418.000,306.600,75.070,15.950,1266.000,217.100,49.140,9.736,181.100,35.130,8.216,2.504,368.900,88.360,24.650,7.839,hard
1422.000,305.900,75.300,16.080,1262.000,217.200,49.020,9.752,185.300,35.570,8.370,2.514,372.700,89.310,25.040,7.915,hard
1428.000,306.600,75.140,16.080,1261.000,217.600,49.190,9.717,186.300,35.990,8.308,2.521,377.600,90.490,25.100,7.931,hard
1427.000,305.400,74.660,15.930,1259.000,215.900,48.610,9.643,185.200,35.390,8.260,2.480,362.000,85.980,24.080,7.644,hard
1416.000,302.100,74.230,15.740,1258.000,216.300,48.770,9.574,181.400,34.790,8.179,2.473,357.400,85.270,23.990,7.621,hard
1410.000,303.000,74.270,15.720,1259.000,215.700,48.700,9.606,181.000,34.990,8.199,2.472,359.300,85.990,24.220,7.621,hard
1411.000,302.600,73.940,15.740,1255.000,216.500,48.760,9.624,179.900,34.700,8.165,2.464,360.700,85.880,24.050,7.620,hard
1409.000,300.100,74.030,15.720,1256.000,215.600,48.870,9.629,183.000,34.760,8.198,2.478,361.000,86.210,24.080,7.663,hard
1411.000,302.200,74.160,15.720,1257.000,216.300,48.940,9.651,184.100,34.840,8.168,2.482,365.100,86.930,24.330,7.736,hard
1413.000,302.300,74.230,15.820,1258.000,216.500,48.910,9.631,181.200,35.140,8.260,2.499,368.100,88.400,24.600,7.844,hard
1417.000,305.100,74.870,15.820,1255.000,217.300,48.630,9.609,184.900,35.370,8.261,2.521,366.700,87.320,24.170,7.644,hard
1412.000,300.800,73.860,15.600,1259.000,216.000,48.410,9.571,183.300,34.610,8.098,2.451,354.800,84.140,23.440,7.469,hard
1403.000,298.600,73.700,15.520,1249.000,214.700,48.390,9.576,178.900,34.480,8.133,2.459,351.800,84.120,23.660,7.424,hard
1401.000,298.400,73.360,15.520,1253.000,215.300,48.510,9.589,178.200,34.540,8.084,2.446,354.500,84.050,23.620,7.474,hard
1398.000,299.200,73.110,15.550,1250.000,214.300,48.520,9.569,180.900,34.560,8.056,2.468,351.700,84.000,23.650,7.483,hard
1396.000,298.400,73.040,15.480,1250.000,215.700,48.760,9.621,179.900,34.230,8.129,2.444,354.900,84.450,23.760,7.505,hard
1398.000,300.700,73.530,15.710,1253.000,215.900,48.810,9.611,181.700,34.500,8.123,2.475,356.300,85.300,23.990,7.558,hard
1401.000,301.700,74.110,15.670,1254.000,215.900,48.840,9.663,182.000,34.690,8.182,2.468,360.800,86.170,24.120,7.598,hard
1400.000,301.100,73.200,15.500,1245.000,215.500,48.650,9.604,181.100,34.530,8.055,2.446,348.200,82.610,23.280,7.307,hard
1388.000,296.400,72.570,15.360,1253.000,215.000,48.550,9.649,178.100,34.410,7.987,2.433,341.900,81.590,22.840,7.268,hard
1385.000,296.800,72.900,15.360,1249.000,215.100,48.610,9.615,176.200,34.030,8.054,2.426,342.400,81.530,23.020,7.302,hard
1384.000,296.400,72.950,15.360,1249.000,214.700,48.790,9.637,176.800,33.840,8.121,2.440,342.900,81.380,22.880,7.271,hard
1384.000,297.800,72.830,15.380,1245.000,216.100,49.050,9.633,176.800,33.910,8.040,2.423,343.200,81.770,22.980,7.313,hard
1387.000,295.500,73.540,15.420,1249.000,216.800,48.840,9.682,180.500,33.810,8.071,2.434,346.600,82.660,23.210,7.336,hard
1391.000,297.300,73.250,15.590,1250.000,216.000,48.940,9.674,179.300,34.270,8.013,2.461,351.300,83.410,23.590,7.440,hard
1395.000,299.100,73.590,15.450,1252.000,215.600,48.860,9.654,179.600,34.490,8.059,2.445,343.500,80.880,22.800,7.180,hard
1383.000,295.600,72.380,15.220,1248.000,215.000,48.790,9.624,175.400,33.980,7.954,2.401,334.100,79.210,22.510,7.046,hard
1378.000,292.700,72.000,15.120,1245.000,215.100,48.600,9.596,174.600,33.740,7.904,2.402,330.800,78.690,22.290,7.036,hard
1377.000,294.500,72.230,15.240,1243.000,214.700,48.800,9.563,175.100,33.470,7.902,2.421,332.400,78.740,22.410,7.067,hard
1375.000,293.200,72.170,15.190,1243.000,214.900,48.710,9.647,174.900,33.660,7.922,2.408,332.700,79.080,22.450,7.091,hard
1377.000,295.000,72.390,15.260,1244.000,215.400,49.060,9.687,173.800,33.810,7.989,2.429,335.300,79.820,22.550,7.154,hard
1379.000,295.500,72.420,15.320,1249.000,216.700,49.130,9.755,174.800,33.940,8.004,2.442,338.100,80.280,22.850,7.198,hard
1382.000,296.500,73.030,15.490,1252.000,216.400,49.100,9.724,176.100,33.840,8.071,2.459,340.500,80.810,22.780,7.172,hard
1381.000,295.300,72.160,15.190,1242.000,216.300,48.970,9.673,173.800,33.660,7.980,2.422,327.300,77.460,22.020,6.962,hard
1371.000,293.100,71.330,15.150,1248.000,215.800,49.090,9.696,170.800,32.990,7.891,2.424,322.700,76.230,21.720,6.879,hard
1366.000,292.300,71.660,15.210,1244.000,216.200,49.000,9.721,169.500,32.970,7.907,2.403,322.500,76.470,21.760,6.901,hard
1368.000,292.000,71.980,15.190,1244.000,215.700,48.960,9.741,169.700,33.160,7.920,2.431,323.600,76.810,22.040,6.939,hard
1368.000,293.400,72.100,15.180,1243.000,216.600,49.410,9.791,171.800,33.440,7.968,2.438,325.900,77.200,22.000,6.985,hard
1372.000,294.400,72.330,15.260,1249.000,217.800,49.440,9.799,170.900,33.680,8.008,2.441,329.300,78.190,22.440,7.101,hard
1376.000,294.800,72.700,15.400,1254.000,218.000,49.470,9.840,173.000,33.760,8.071,2.463,334.300,79.840,22.680,7.195,hard
1381.000,295.000,73.010,15.500,1256.000,218.900,49.610,9.817,175.200,34.050,8.132,2.500,338.300,80.280,22.650,7.125,hard
1378.000,293.900,72.110,15.240,1251.000,217.300,49.460,9.770,173.200,33.500,7.967,2.474,322.600,76.940,21.830,6.885,hard
1370.000,293.000,71.660,15.100,1252.000,218.300,49.440,9.760,171.700,32.940,7.926,2.415,318.700,76.090,21.530,6.845,hard
1366.000,291.900,71.960,15.140,1250.000,217.000,49.570,9.822,171.400,33.140,7.944,2.422,320.300,75.960,21.660,6.884,hard
1369.000,291.900,71.630,15.140,1251.000,217.500,49.400,9.818,171.700,33.310,7.983,2.453,321.600,76.460,21.760,6.886,hard
1369.000,293.700,72.230,15.180,1251.000,218.500,49.560,9.858,171.300,33.300,7.983,2.441,322.700,76.710,21.950,6.942,hard
1372.000,294.200,72.140,15.260,1250.000,219.300,49.790,9.883,173.300,33.560,7.973,2.469,327.000,77.770,22.160,7.040,hard
1376.000,295.600,72.590,15.350,1254.000,219.300,49.900,9.920,173.100,33.960,8.034,2.481,331.500,79.180,22.500,7.106,hard
1381.000,297.000,72.970,15.510,1257.000,219.500,49.970,9.951,176.000,33.970,8.112,2.490,335.400,79.600,22.330,7.017,hard
1379.000,296.200,72.080,15.190,1260.000,218.400,50.000,9.855,173.100,33.520,8.025,2.435,323.100,76.400,21.800,6.855,hard
1372.000,293.000,72.130,15.170,1259.000,218.000,49.740,9.877,171.000,33.670,7.927,2.448,319.900,75.880,21.550,6.827,hard
1372.000,293.400,72.090,15.200,1259.000,218.600,49.930,9.927,171.100,33.810,7.983,2.458,321.200,76.350,21.790,6.918,hard
1376.000,294.300,71.550,15.210,1256.000,218.000,49.710,9.873,169.400,33.660,8.046,2.460,324.100,76.470,21.870,6.928,hard
1377.000,294.600,72.280,15.350,1260.000,219.400,50.040,9.930,172.000,33.640,8.040,2.471,326.200,77.650,21.970,7.022,hard
1380.000,295.500,72.280,15.440,1258.000,220.600,50.070,9.953,174.800,33.890,8.073,2.493,330.600,78.580,22.370,7.078,hard
1384.000,295.500,72.710,15.510,1264.000,219.800,50.350,10.020,176.800,34.160,8.076,2.506,334.300,79.810,22.700,7.206,hard
1387.000,297.500,73.280,15.570,1264.000,220.200,50.060,9.956,177.000,34.280,8.194,2.522,334.600,79.110,22.370,7.017,hard
1381.000,293.300,71.950,15.280,1259.000,219.200,49.750,9.956,174.900,33.570,8.079,2.487,322.700,76.380,21.760,6.872,hard
1375.000,292.100,72.160,15.190,1261.000,219.700,49.970,9.947,173.200,33.560,7.991,2.466,322.000,76.090,21.620,6.912,hard
1372.000,292.400,72.080,15.260,1266.000,219.800,50.010,9.985,173.100,33.740,8.032,2.467,324.900,77.170,21.950,6.954,hard
1375.000,292.300,72.360,15.370,1266.000,220.100,50.360,10.000,171.300,34.020,8.078,2.502,327.000,77.610,22.000,6.996,hard
1376.000,294.400,72.500,15.320,1263.000,220.400,50.300,10.030,173.900,34.490,8.083,2.509,329.400,78.860,22.230,7.097,hard
1382.000,294.900,72.780,15.460,1265.000,221.000,50.190,10.040,174.800,34.360,8.237,2.515,334.000,79.710,22.650,7.159,hard
1385.000,297.000,72.900,15.490,1273.000,221.500,50.450,10.070,177.100,34.520,8.278,2.546,341.100,81.810,22.970,7.273,hard
1388.000,298.900,72.950,15.410,1270.000,221.200,50.390,10.000,177.200,34.370,8.223,2.523,331.300,78.470,22.240,7.007,hard
1378.000,295.200,72.320,15.240,1267.000,220.400,50.120,10.030,175.300,33.860,8.118,2.491,325.100,77.000,21.910,6.948,hard
1373.000,292.600,71.940,15.240,1267.000,219.900,50.170,10.050,174.500,33.810,8.091,2.504,324.600,76.990,21.810,6.930,hard
1374.000,293.600,72.210,15.300,1269.000,221.200,50.600,10.030,172.600,34.090,8.181,2.507,328.700,77.880,22.250,6.994,hard
1375.000,292.800,72.280,15.330,1266.000,221.100,50.350,10.040,174.500,34.370,8.130,2.525,331.900,78.960,22.270,7.089,hard
1379.000,294.600,72.230,15.410,1274.000,221.900,50.770,10.040,175.700,34.570,8.233,2.531,336.500,79.900,22.650,7.148,hard
1384.000,296.000,73.250,15.480,1279.000,221.800,50.740,10.100,176.000,35.010,8.315,2.552,342.500,81.520,22.980,7.253,hard
1389.000,298.100,73.220,15.580,1274.000,222.300,50.960,10.040,180.800,35.190,8.408,2.563,348.500,82.770,23.010,7.276,hard
1387.000,296.500,72.300,15.310,1277.000,220.600,50.390,10.020,179.100,34.600,8.272,2.545,333.800,78.630,22.110,7.066,hard
1377.000,294.200,72.100,15.260,1271.000,220.300,50.560,9.992,176.800,34.080,8.156,2.517,329.300,78.040,22.020,6.981,hard
1372.000,293.100,72.100,15.180,1270.000,221.300,50.420,10.080,176.100,34.690,8.192,2.512,329.600,78.290,22.180,7.047,hard
1375.000,292.400,72.090,15.280,1274.000,221.100,50.780,10.060,175.400,34.230,8.153,2.522,334.100,79.070,22.350,7.112,hard
1376.000,294.300,72.460,15.250,1275.000,221.200,50.720,10.080,178.100,34.390,8.258,2.544,335.700,79.870,22.560,7.100,hard
1379.000,294.600,72.510,15.360,1277.000,222.100,50.820,10.130,177.600,34.920,8.308,2.559,341.200,81.570,22.920,7.227,hard
1386.000,297.800,73.230,15.440,1274.000,222.000,51.070,10.130,180.000,35.090,8.425,2.588,349.300,83.200,23.300,7.376,hard
1391.000,298.900,73.560,15.570,1283.000,223.100,51.030,10.170,181.400,35.260,8.425,2.602,353.900,84.660,23.780,7.472,hard
1395.000,297.600,73.140,15.480,1285.000,222.600,50.730,10.080,182.200,35.370,8.399,2.578,343.400,81.240,22.620,7.182,hard
1383.000,294.800,72.530,15.290,1280.000,221.900,50.680,10.060,177.800,35.040,8.305,2.532,336.900,79.510,22.240,7.069,hard
1378.000,294.000,71.980,15.220,1283.000,222.600,50.800,10.090,179.800,34.850,8.292,2.536,335.600,79.040,22.330,7.114,hard
1380.000,293.400,72.230,15.280,1279.000,222.600,50.890,10.080,176.700,34.910,8.284,2.553,338.100,80.380,22.590,7.157,hard
1383.000,295.200,72.240,15.380,1279.000,223.000,50.900,10.120,180.500,35.250,8.328,2.554,341.900,81.340,22.860,7.196,hard
1385.000,296.700,72.550,15.460,1282.000,222.600,51.010,10.110,183.000,35.540,8.417,2.591,347.500,82.400,23.100,7.352,hard
1391.000,297.700,73.280,15.500,1283.000,223.900,51.310,10.170,182.700,35.830,8.444,2.583,352.500,84.180,23.550,7.406,hard
1397.000,300.400,73.690,15.610,1289.000,224.800,51.550,10.250,181.600,36.240,8.492,2.627,358.300,85.950,24.050,7.529,hard
1404.000,299.900,74.350,15.710,1293.000,224.000,51.170,10.180,183.300,36.420,8.569,2.623,362.600,87.390,23.960,7.515,hard
1400.000,299.100,73.430,15.500,1289.000,224.200,51.230,10.170,182.300,35.960,8.446,2.578,346.900,82.110,22.950,7.286,hard
1392.000,297.600,73.170,15.430,1285.000,224.000,51.170,10.180,179.700,35.670,8.382,2.576,343.900,81.300,22.770,7.251,hard
1389.000,297.700,73.360,15.400,1286.000,223.500,51.200,10.140,182.600,35.260,8.386,2.570,344.900,81.830,23.070,7.351,hard
1393.000,297.700,73.010,15.560,1285.000,224.500,51.360,10.180,181.200,35.550,8.411,2.585,350.200,82.850,23.170,7.415,hard
1397.000,299.000,73.570,15.590,1290.000,224.300,51.510,10.180,182.700,35.550,8.445,2.595,353.700,84.150,23.550,7.441,hard
1403.000,299.700,73.910,15.670,1295.000,225.700,51.610,10.250,182.800,35.700,8.547,2.597,356.700,85.570,23.850,7.531,hard
1405.000,302.100,74.450,15.840,1296.000,225.700,51.800,10.300,187.600,36.190,8.572,2.625,364.700,87.340,24.280,7.689,hard
1414.000,303.400,75.100,15.940,1300.000,226.900,52.040,10.300,188.100,36.520,8.580,2.646,371.900,89.230,24.700,7.792,hard
1417.000,303.300,74.710,15.830,1295.000,225.600,51.560,10.240,187.800,36.480,8.573,2.631,358.600,84.690,23.590,7.434,hard
1406.000,301.400,73.200,15.630,1294.000,225.300,51.630,10.260,182.500,35.780,8.460,2.579,349.800,82.930,23.350,7.386,hard
1403.000,299.700,73.800,15.740,1299.000,225.200,51.720,10.280,184.600,35.490,8.444,2.585,350.100,83.220,23.480,7.407,hard
1406.000,300.800,74.270,15.800,1294.000,225.100,51.690,10.290,182.300,35.760,8.461,2.601,355.800,84.230,23.660,7.454,hard
1409.000,301.100,74.000,15.760,1300.000,224.800,51.630,10.290,184.000,35.450,8.508,2.607,358.700,85.120,23.960,7.573,hard
1413.000,303.400,74.370,15.930,1300.000,225.800,51.670,10.310,183.200,36.060,8.558,2.615,363.400,86.740,24.200,7.689,hard
1418.000,303.600,75.290,15.980,1303.000,226.300,52.200,10.350,186.600,36.510,8.588,2.628,368.900,88.660,24.620,7.777,hard
1425.000,305.000,75.750,16.100,1307.000,226.500,52.110,10.400,191.000,36.850,8.675,2.661,375.600,89.770,24.900,7.883,hard
1427.000,304.800,75.050,16.000,1300.000,225.300,51.750,10.320,187.200,36.540,8.643,2.646,361.800,85.420,23.880,7.566,hard
1415.000,303.600,74.600,15.870,1297.000,226.800,51.530,10.270,185.800,35.900,8.467,2.592,353.800,83.900,23.650,7.449,hard
1413.000,301.700,74.340,15.830,1300.000,225.500,51.930,10.310,183.500,35.900,8.486,2.592,355.500,84.770,23.780,7.547,hard
1414.000,303.200,74.690,15.950,1306.000,226.300,51.740,10.340,184.100,36.020,8.554,2.621,360.600,85.890,24.090,7.604,hard
1417.000,305.500,75.010,16.000,1302.000,225.500,52.100,10.360,184.100,36.140,8.562,2.634,363.700,86.300,24.340,7.710,hard
1420.000,305.300,75.670,16.100,1306.000,225.800,52.120,10.380,189.100,36.600,8.596,2.628,369.200,88.470,24.630,7.802,hard
1425.000,306.500,76.080,16.190,1309.000,227.100,52.130,10.400,189.700,36.800,8.619,2.648,375.800,90.010,25.000,7.929,hard
1432.000,310.300,76.240,16.290,1310.000,227.700,52.320,10.430,188.700,37.110,8.711,2.676,380.800,91.140,25.350,7.950,hard
1432.000,306.000,75.340,16.120,1308.000,226.500,51.960,10.340,189.500,36.520,8.616,2.622,362.400,86.430,24.190,7.626,hard
1422.000,304.400,75.260,15.970,1308.000,226.400,51.950,10.350,184.900,36.190,8.502,2.609,359.300,85.560,23.820,7.618,hard
1419.000,303.000,75.230,16.020,1305.000,226.300,51.920,10.360,183.500,36.180,8.507,2.599,360.900,86.050,24.190,7.675,hard
1421.000,306.000,75.340,16.100,1304.000,226.800,51.780,10.350,188.100,36.040,8.577,2.629,366.800,87.540,24.400,7.741,hard
1425.000,305.200,75.880,16.230,1306.000,226.600,51.920,10.350,188.000,36.340,8.644,2.629,369.400,88.060,24.680,7.820,hard
1429.000,307.500,75.940,16.300,1310.000,226.800,52.210,10.360,186.200,36.960,8.675,2.636,376.100,90.030,25.100,7.927,hard
1435.000,308.200,75.980,16.360,1310.000,227.000,52.350,10.430,189.200,37.180,8.742,2.659,380.200,91.740,25.580,8.047,hard
1440.000,311.700,76.560,16.460,1314.000,227.000,52.040,10.380,189.400,37.410,8.706,2.680,384.000,92.120,25.350,7.906,hard
1436.000,306.800,75.690,16.200,1309.000,226.700,51.960,10.380,188.800,36.550,8.617,2.634,366.200,87.050,24.260,7.719,hard
1429.000,305.900,75.700,16.110,1309.000,225.000,51.910,10.390,186.600,36.360,8.522,2.608,363.700,86.370,24.310,7.684,hard
1427.000,306.500,76.010,16.250,1305.000,226.200,52.020,10.340,185.900,36.260,8.569,2.616,369.500,87.960,24.640,7.818,hard
1430.000,307.300,75.990,16.190,1309.000,226.000,51.800,10.360,187.700,36.620,8.646,2.638,371.700,88.680,24.750,7.844,hard
1433.000,307.800,76.050,16.310,1308.000,225.800,51.810,10.370,189.700,36.750,8.670,2.642,375.100,89.890,25.050,7.903,hard
1436.000,307.100,76.720,16.320,1310.000,226.300,52.250,10.370,191.300,37.170,8.676,2.663,380.500,91.250,25.390,8.008,hard
1440.000,310.300,77.080,16.580,1310.000,226.900,52.320,10.380,188.900,37.330,8.798,2.664,386.400,93.220,25.860,8.173,hard
1448.000,312.600,77.030,16.520,1310.000,227.200,52.070,10.340,192.200,37.230,8.779,2.682,386.400,91.530,25.170,7.922,hard
1441.000,308.600,76.210,16.250,1306.000,226.300,51.980,10.340,188.200,36.550,8.603,2.626,370.000,87.910,24.660,7.741,hard
1434.000,307.300,76.050,16.260,1306.000,225.300,51.930,10.330,187.500,36.240,8.523,2.604,367.800,87.800,24.650,7.792,hard
1434.000,305.900,76.080,16.330,1306.000,227.500,51.980,10.320,190.500,36.430,8.632,2.630,374.300,89.550,25.050,7.922,hard
1437.000,307.700,76.730,16.400,1308.000,225.800,51.760,10.350,188.100,36.860,8.638,2.635,377.400,90.150,25.230,7.934,hard
1440.000,309.400,76.710,16.320,1307.000,225.600,52.070,10.340,191.600,36.800,8.666,2.657,381.300,91.330,25.440,7.990,hard
1443.000,312.700,77.140,16.550,1313.000,225.900,51.890,10.420,194.300,37.190,8.746,2.666,388.200,93.200,25.780,8.134,hard
1449.000,312.100,77.410,16.570,1314.000,226.300,52.130,10.390,191.000,37.130,8.766,2.688,392.800,95.010,26.220,8.274,hard
1456.000,310.900,77.510,16.550,1309.000,226.000,51.810,10.300,193.400,37.720,8.822,2.672,383.900,91.920,25.380,8.006,hard
1443.000,310.500,76.270,16.290,1305.000,225.900,51.780,10.320,189.200,36.870,8.608,2.636,372.100,88.910,24.880,7.866,hard
1441.000,307.800,76.180,16.310,1306.000,225.600,51.720,10.270,187.300,36.890,8.601,2.621,375.000,89.340,25.100,7.945,hard
1442.000,308.800,76.710,16.430,1313.000,225.200,51.550,10.310,189.700,37.050,8.642,2.646,379.300,91.500,25.320,8.041,hard
1446.000,310.100,76.910,16.390,1303.000,225.200,51.750,10.310,191.000,37.170,8.728,2.647,381.700,91.940,25.610,8.072,hard
1449.000,310.500,76.700,16.570,1313.000,225.000,51.730,10.320,189.200,37.320,8.770,2.632,386.900,92.980,25.860,8.164,hard
1453.000,311.400,77.020,16.560,1311.000,224.600,51.770,10.310,193.800,37.450,8.810,2.660,390.500,94.200,26.040,8.255,hard
1457.000,312.900,77.890,16.670,1313.000,226.100,51.790,10.330,192.000,37.670,8.837,2.677,397.000,95.360,26.320,8.250,hard
1458.000,311.800,76.820,16.460,1307.000,224.300,51.520,10.210,194.800,37.290,8.718,2.640,377.600,90.160,25.140,7.960,hard
1446.000,310.600,76.460,16.270,1312.000,223.500,51.630,10.220,188.100,36.650,8.591,2.646,372.500,89.240,24.970,7.930,hard
1445.000,310.000,76.270,16.350,1304.000,224.400,51.570,10.310,190.600,36.590,8.610,2.628,375.400,90.540,25.440,8.004,hard
1447.000,310.200,76.610,16.360,1308.000,224.000,51.450,10.220,188.400,36.520,8.678,2.632,379.600,90.710,25.410,8.023,hard
1448.000,310.500,76.680,16.360,1306.000,224.100,51.530,10.270,190.500,37.000,8.683,2.631,382.400,91.820,25.530,8.135,hard
1451.000,310.600,76.980,16.500,1311.000,225.200,51.470,10.210,191.800,37.190,8.711,2.653,386.600,93.160,25.770,8.185,hard
1455.000,311.200,77.090,16.510,1304.000,224.400,51.600,10.270,193.100,36.970,8.770,2.654,392.400,94.540,26.240,8.228,hard
1459.000,312.000,77.750,16.590,1313.000,224.100,51.400,10.180,194.500,37.480,8.787,2.668,387.700,92.960,25.570,8.095,hard
1449.000,310.200,76.500,16.250,1302.000,224.000,51.380,10.130,191.300,36.830,8.623,2.623,372.300,88.970,24.770,7.910,hard
1441.000,307.400,75.800,16.230,1297.000,223.300,51.020,10.140,187.800,36.170,8.534,2.606,368.800,88.460,24.800,7.898,hard
1441.000,308.600,75.960,16.270,1303.000,223.500,51.400,10.150,187.300,36.020,8.562,2.619,376.000,90.230,25.030,7.936,hard
1443.000,308.800,76.100,16.240,1305.000,224.200,51.190,10.150,189.500,36.540,8.603,2.627,376.900,90.150,25.170,7.981,hard
1442.000,309.000,76.100,16.350,1303.000,223.800,51.210,10.180,191.400,36.790,8.652,2.644,381.000,91.380,25.490,8.035,hard
1448.000,310.800,76.640,16.380,1298.000,223.400,51.230,10.170,193.000,36.940,8.724,2.627,386.000,92.980,25.870,8.140,hard
1450.000,308.700,76.900,16.430,1303.000,223.900,51.250,10.180,193.400,37.090,8.766,2.651,391.900,94.390,26.100,8.219,hard
1453.000,310.800,76.440,16.250,1297.000,223.000,50.820,10.140,191.800,37.240,8.697,2.616,374.500,89.550,24.870,7.836,hard
1441.000,308.300,75.480,16.070,1295.000,222.900,50.800,10.060,187.200,36.490,8.516,2.602,367.800,87.930,24.600,7.775,hard
1435.000,306.100,75.320,16.120,1293.000,222.100,50.660,10.040,183.900,36.330,8.541,2.599,368.700,88.570,24.770,7.823,hard
1435.000,307.000,75.260,16.120,1298.000,221.500,50.920,10.040,184.800,36.450,8.543,2.595,372.400,89.320,24.880,7.853,hard
1436.000,306.800,75.540,16.080,1292.000,222.300,50.770,9.995,187.200,36.120,8.493,2.581,374.100,90.130,25.050,7.935,hard
1438.000,308.000,75.460,16.150,1293.000,222.100,51.130,10.030,189.400,36.640,8.677,2.610,379.600,91.000,25.360,7.989,hard
1441.000,309.300,76.140,16.230,1295.000,222.800,50.880,10.100,189.100,36.900,8.640,2.630,384.900,92.790,25.800,8.114,hard
1447.000,310.200,76.410,16.380,1295.000,221.800,50.630,9.999,193.800,37.060,8.724,2.638,389.900,93.490,25.710,8.073,hard
1442.000,308.500,75.970,16.100,1293.000,221.300,50.520,9.987,190.600,37.010,8.526,2.591,369.000,87.700,24.530,7.770,hard
1431.000,305.100,74.890,15.940,1289.000,219.900,50.250,9.966,187.200,35.940,8.495,2.566,365.100,87.330,24.370,7.706,hard
1428.000,305.600,75.040,15.880,1288.000,220.400,50.490,10.020,189.400,36.030,8.428,2.573,367.000,88.310,24.690,7.758,hard
1428.000,305.500,74.780,15.970,1286.000,220.800,50.170,9.973,188.200,36.720,8.450,2.577,368.200,88.450,24.720,7.728,hard
1428.000,304.900,74.930,16.000,1289.000,220.900,50.430,9.990,188.500,36.060,8.507,2.578,373.500,89.010,24.990,7.834,hard
1429.000,306.300,75.190,16.000,1282.000,221.300,50.560,10.030,189.900,36.010,8.466,2.610,376.600,90.700,25.190,7.903,hard
1433.000,306.900,75.690,16.100,1291.000,220.600,50.550,10.000,188.300,36.800,8.582,2.624,383.100,92.120,25.540,8.034,hard
1439.000,309.200,76.100,16.150,1284.000,220.900,50.460,9.984,188.900,36.810,8.678,2.641,384.200,91.760,25.300,7.859,hard
1432.000,305.400,75.020,15.820,1282.000,219.700,50.190,9.946,188.000,36.160,8.520,2.561,365.400,86.940,24.310,7.621,hard
1422.000,303.800,73.920,15.710,1280.000,219.900,50.080,9.876,184.900,36.100,8.400,2.552,361.300,85.940,24.170,7.582,hard
1419.000,301.100,74.180,15.800,1280.000,219.800,50.150,9.965,186.900,35.580,8.373,2.560,366.100,87.460,24.350,7.686,hard
1420.000,303.600,74.380,15.740,1277.000,219.500,49.920,9.912,185.100,36.120,8.436,2.575,367.100,87.570,24.370,7.716,hard
1420.000,303.700,74.370,15.870,1280.000,220.000,49.940,9.914,186.000,35.750,8.452,2.576,369.400,88.110,24.650,7.787,hard
1423.000,304.500,74.710,15.900,1276.000,218.800,50.150,9.885,187.700,36.380,8.494,2.589,373.700,89.840,24.970,7.915,hard
1426.000,305.100,74.860,15.910,1284.000,221.300,50.240,10.000,187.200,36.800,8.582,2.611,381.200,91.410,25.280,7.937,hard
1429.000,305.800,75.320,15.920,1279.000,220.000,50.210,9.943,190.100,36.760,8.594,2.606,381.700,91.020,25.080,7.819,hard
1425.000,304.900,74.700,15.810,1273.000,219.100,49.910,9.849,189.700,36.370,8.433,2.563,362.800,86.240,24.070,7.547,hard
1416.000,302.200,73.990,15.660,1273.000,219.000,49.830,9.891,184.000,35.390,8.372,2.538,359.800,85.980,23.900,7.565,hard
1415.000,302.200,73.850,15.680,1272.000,218.500,49.850,9.866,186.000,35.780,8.415,2.563,363.700,86.740,24.220,7.584,hard
1415.000,300.700,73.850,15.670,1271.000,219.200,50.020,9.837,183.600,35.580,8.418,2.567,365.100,87.110,24.230,7.644,hard
1416.000,301.900,74.260,15.720,1274.000,219.100,49.790,9.902,184.100,36.180,8.388,2.555,367.300,87.930,24.330,7.686,hard
1417.000,303.600,74.340,15.840,1274.000,218.800,49.930,9.929,188.400,36.160,8.422,2.569,372.100,89.180,24.770,7.761,hard
1423.000,305.800,74.870,15.890,1270.000,219.500,49.900,9.946,188.100,36.890,8.465,2.586,378.200,90.600,25.010,7.885,hard
1427.000,305.100,74.530,15.860,1276.000,219.100,49.920,9.874,187.900,36.640,8.547,2.585,371.600,88.060,24.300,7.605,hard
1416.000,300.900,73.510,15.650,1271.000,217.900,49.640,9.866,183.600,35.670,8.403,2.554,357.400,84.930,23.560,7.451,hard
1409.000,299.900,73.580,15.530,1265.000,217.400,49.500,9.825,182.800,35.450,8.363,2.550,357.500,84.930,23.620,7.504,hard
1407.000,301.200,73.430,15.570,1264.000,218.300,49.690,9.796,185.600,35.350,8.326,2.535,361.100,85.880,23.820,7.492,hard
1408.000,299.200,73.920,15.510,1264.000,217.900,49.710,9.825,185.600,35.350,8.368,2.528,360.800,86.230,23.730,7.538,hard
1410.000,298.900,73.680,15.680,1265.000,218.400,49.710,9.848,186.300,35.920,8.331,2.536,363.900,87.060,24.050,7.554,hard
1412.000,302.400,73.960,15.660,1265.000,218.100,49.730,9.838,184.900,35.330,8.426,2.568,369.000,88.510,24.450,7.691,hard
1415.000,302.000,74.080,15.760,1269.000,218.600,49.670,9.940,185.700,35.760,8.499,2.560,375.000,89.520,24.610,7.757,hard
1418.000,302.600,74.040,15.660,1263.000,217.300,49.590,9.798,185.000,36.020,8.402,2.544,359.100,85.110,23.550,7.386,hard
1404.000,298.700,72.610,15.420,1254.000,217.200,49.390,9.797,182.800,35.350,8.231,2.503,350.600,83.210,23.090,7.253,hard
1397.000,297.400,72.640,15.380,1259.000,216.000,49.280,9.788,182.800,34.990,8.233,2.503,349.700,82.950,23.110,7.280,hard
1396.000,298.300,72.370,15.390,1257.000,217.100,49.150,9.778,185.000,34.870,8.219,2.505,350.500,83.910,23.230,7.288,hard
1396.000,297.500,73.030,15.350,1253.000,216.600,49.350,9.792,183.200,34.940,8.264,2.511,353.000,83.490,23.270,7.331,hard
1396.000,297.600,72.930,15.460,1255.000,216.300,49.180,9.789,182.800,35.070,8.252,2.511,355.900,84.890,23.510,7.341,hard
1399.000,300.000,73.330,15.520,1256.000,217.200,49.320,9.829,183.200,35.470,8.275,2.527,361.300,86.400,23.910,7.474,hard
1404.000,298.700,73.530,15.640,1258.000,216.500,49.440,9.809,184.600,35.680,8.335,2.559,366.100,87.100,23.790,7.449,hard
1403.000,299.000,72.760,15.360,1252.000,216.300,48.990,9.765,181.800,35.130,8.270,2.506,348.300,82.440,22.780,7.159,hard
1389.000,294.200,72.330,15.200,1248.000,215.400,49.050,9.686,181.900,34.490,8.120,2.487,341.300,80.770,22.400,7.022,hard
1383.000,294.300,71.780,15.120,1245.000,215.500,48.950,9.690,180.100,34.380,8.081,2.465,342.700,81.130,22.500,7.101,hard
1383.000,294.500,71.880,15.190,1246.000,215.200,48.980,9.691,178.900,34.610,8.175,2.491,344.300,81.510,22.570,7.081,hard
1383.000,293.800,72.060,15.200,1244.000,214.900,48.950,9.709,180.800,34.400,8.127,2.492,344.700,82.030,22.780,7.102,hard
1383.000,294.600,72.040,15.250,1248.000,215.600,49.130,9.736,178.100,34.840,8.162,2.484,348.300,82.900,22.920,7.202,hard
1386.000,296.800,72.710,15.320,1248.000,215.000,49.080,9.760,176.700,35.070,8.187,2.495,353.700,84.460,23.230,7.271,hard
1390.000,294.800,72.910,15.480,1253.000,215.900,49.160,9.767,180.200,35.280,8.275,2.539,359.100,85.290,23.270,7.282,hard
1390.000,295.900,72.500,15.160,1242.000,214.600,49.000,9.718,184.000,34.880,8.144,2.487,342.900,80.690,22.240,6.981,hard
1376.000,292.200,71.330,15.050,1247.000,214.500,49.010,9.662,177.700,33.870,8.000,2.446,335.500,79.050,21.890,6.897,hard
1372.000,292.000,71.210,15.050,1243.000,214.800,48.490,9.651,177.100,34.250,8.017,2.467,335.000,79.600,21.970,6.887,hard
1371.000,291.500,71.040,15.050,1241.000,213.600,48.790,9.724,180.200,34.040,8.033,2.443,337.600,79.470,22.020,6.936,hard
1371.000,291.900,71.050,14.950,1244.000,213.400,48.670,9.688,178.700,34.170,8.067,2.470,338.100,79.980,22.110,6.939,hard
1371.000,292.400,71.500,15.070,1239.000,215.700,49.020,9.734,175.400,34.280,8.072,2.457,341.900,80.980,22.260,7.016,hard
1376.000,293.100,71.960,15.200,1241.000,214.700,49.190,9.751,181.700,34.580,8.131,2.486,346.100,82.520,22.780,7.113,hard
1380.000,294.800,72.290,15.260,1245.000,214.900,49.150,9.749,181.200,34.800,8.150,2.509,352.800,83.460,22.970,7.212,hard
1383.000,296.900,72.320,15.260,1243.000,215.500,49.100,9.736,182.100,35.230,8.203,2.523,354.200,83.470,22.760,7.102,hard
1380.000,292.900,71.120,15.070,1244.000,214.500,48.840,9.709,179.500,34.110,8.004,2.463,334.000,78.780,21.730,6.816,hard
1369.000,290.700,71.280,15.000,1237.000,214.200,48.770,9.682,175.600,33.840,7.962,2.436,331.000,78.090,21.510,6.792,hard
1363.000,290.400,71.140,14.920,1237.000,214.400,48.750,9.670,176.700,33.800,7.972,2.424,330.600,78.490,21.710,6.773,hard
1365.000,290.700,71.560,14.960,1240.000,213.500,48.650,9.686,175.500,33.660,7.917,2.445,331.900,78.120,21.760,6.797,hard
1363.000,291.400,71.160,14.970,1241.000,214.300,48.880,9.723,174.200,33.660,7.993,2.456,333.800,78.970,21.820,6.854,hard
1369.000,289.600,71.600,15.050,1238.000,214.200,48.910,9.730,179.400,33.540,8.017,2.448,337.200,80.220,22.100,6.952,hard
1371.000,293.800,71.490,15.190,1243.000,214.900,48.900,9.775,178.300,34.400,8.055,2.481,343.800,81.890,22.460,7.058,hard
1376.000,294.500,72.200,15.300,1241.000,215.100,49.090,9.822,177.100,34.680,8.140,2.504,348.000,83.190,22.890,7.159,hard
1381.000,296.000,72.610,15.300,1244.000,215.700,49.410,9.786,181.800,34.570,8.224,2.514,353.300,84.200,22.910,7.125,hard
1381.000,293.900,71.880,15.180,1240.000,214.000,48.810,9.687,178.600,34.830,8.083,2.469,334.800,78.670,21.830,6.796,hard
1370.000,291.900,71.130,15.080,1248.000,214.100,49.040,9.749,174.800,33.640,7.940,2.456,329.500,77.570,21.520,6.746,hard
1365.000,291.300,71.580,15.090,1240.000,215.100,48.960,9.742,178.100,33.370,7.937,2.431,328.700,78.040,21.630,6.814,hard
1369.000,292.900,71.280,15.070,1240.000,215.400,49.020,9.725,175.200,33.550,7.954,2.430,331.400,78.450,21.690,6.831,hard
1368.000,291.000,71.190,15.090,1243.000,215.000,49.000,9.767,172.600,34.190,7.952,2.453,330.800,78.740,21.840,6.836,hard
1370.000,292.500,71.440,15.130,1247.000,215.300,49.020,9.749,177.300,33.980,8.057,2.459,336.900,79.940,22.060,6.921,hard
1374.000,294.400,72.490,15.240,1241.000,216.200,49.240,9.827,175.400,34.190,8.049,2.485,341.300,81.510,22.300,7.031,hard
1379.000,294.500,72.610,15.360,1248.000,216.900,49.220,9.865,179.000,34.630,8.109,2.492,347.000,82.960,22.670,7.150,hard
1384.000,296.800,72.770,15.390,1251.000,216.800,49.270,9.763,181.900,34.570,8.151,2.498,343.200,80.680,22.170,6.954,hard
1375.000,293.000,71.930,15.130,1246.000,215.200,48.900,9.765,173.100,34.210,7.972,2.438,329.500,77.490,21.490,6.782,hard
1368.000,290.700,71.830,15.080,1246.000,215.100,48.990,9.759,174.500,33.450,7.956,2.430,326.200,77.220,21.470,6.758,hard
1367.000,291.100,71.710,15.110,1240.000,215.700,49.080,9.771,174.300,33.620,7.926,2.433,329.300,77.640,21.570,6.800,hard
1369.000,291.800,71.470,15.040,1246.000,214.900,49.410,9.803,177.900,33.770,7.979,2.464,328.500,78.000,21.550,6.794,hard
1368.000,293.000,71.180,15.130,1245.000,215.100,49.350,9.820,175.100,33.790,7.974,2.457,330.300,78.430,21.890,6.863,hard
1372.000,293.400,71.850,15.210,1253.000,215.400,49.030,9.827,175.600,33.990,7.975,2.470,335.700,79.990,22.120,6.920,hard
1376.000,295.100,71.960,15.290,1245.000,216.300,49.400,9.813,177.700,34.160,8.037,2.480,339.600,81.250,22.430,7.078,hard
1382.000,297.200,72.600,15.420,1255.000,216.200,49.260,9.844,177.200,34.930,8.130,2.496,344.400,82.340,22.490,7.033,hard
1379.000,294.000,72.300,15.210,1248.000,215.600,49.210,9.828,177.900,34.100,8.068,2.439,327.200,77.190,21.500,6.730,hard
1369.000,292.500,71.600,15.010,1247.000,215.400,49.180,9.795,173.200,33.600,7.898,2.422,321.900,76.170,21.190,6.706,hard
1366.000,290.500,71.290,15.060,1246.000,214.700,49.120,9.795,172.300,33.460,7.901,2.422,323.100,76.610,21.190,6.737,hard
1367.000,290.300,71.570,15.080,1249.000,214.500,49.140,9.794,174.600,33.530,7.957,2.435,325.200,76.970,21.370,6.764,hard
1368.000,291.200,71.370,15.100,1244.000,215.900,49.330,9.781,171.700,33.460,7.915,2.437,325.800,76.910,21.550,6.816,hard
1368.000,291.700,71.740,15.100,1253.000,215.600,49.210,9.816,175.100,33.770,8.019,2.445,329.500,78.570,21.820,6.865,hard
1372.000,295.200,71.970,15.250,1249.000,215.800,49.520,9.888,177.200,34.080,7.982,2.468,336.400,80.380,22.160,6.996,hard
1378.000,295.400,72.410,15.330,1259.000,216.900,49.500,9.899,178.000,34.690,8.111,2.494,342.700,81.540,22.590,7.061,hard
1383.000,295.600,72.550,15.360,1257.000,215.500,49.060,9.827,179.600,34.220,8.106,2.503,339.400,79.860,21.750,6.866,hard
1376.000,294.000,71.790,15.060,1250.000,215.500,49.140,9.742,175.900,33.690,7.980,2.447,323.400,76.170,21.240,6.699,hard
1365.000,292.900,71.460,15.050,1250.000,215.100,49.180,9.732,172.500,33.190,7.921,2.413,319.900,75.880,21.100,6.694,hard
1364.000,291.300,71.250,15.060,1250.000,214.600,49.080,9.751,172.700,33.550,7.862,2.427,322.800,76.250,21.370,6.721,hard
1365.000,291.000,71.570,15.040,1249.000,214.600,49.180,9.784,174.000,33.320,7.902,2.443,323.100,76.590,21.300,6.747,hard
1366.000,292.300,71.560,15.050,1254.000,215.000,49.340,9.794,173.000,33.320,7.959,2.446,326.200,77.370,21.440,6.807,hard
1369.000,293.300,71.600,15.160,1246.000,216.200,49.370,9.830,175.200,33.850,7.983,2.454,330.300,78.790,21.920,6.887,hard
1373.000,293.400,72.300,15.260,1254.000,216.200,49.370,9.842,176.900,34.020,8.102,2.459,336.800,80.510,22.100,6.985,hard
1377.000,295.700,72.410,15.320,1250.000,216.500,49.530,9.869,176.100,34.460,8.167,2.489,341.200,81.530,22.510,7.110,hard
1382.000,295.500,72.760,15.340,1258.000,216.500,49.190,9.798,179.200,35.030,8.147,2.500,341.200,80.290,22.030,6.912,hard
1375.000,293.500,71.540,15.110,1250.000,215.700,49.150,9.767,176.300,33.770,7.966,2.451,323.400,76.300,21.280,6.747,hard
1367.000,291.000,70.990,14.990,1249.000,214.700,49.260,9.769,174.900,33.840,7.902,2.427,320.500,75.680,21.110,6.700,hard
1364.000,292.100,71.530,15.040,1254.000,215.700,49.220,9.786,172.000,33.200,7.878,2.437,323.300,76.180,21.340,6.777,hard
1365.000,289.300,71.050,14.990,1250.000,215.700,48.910,9.774,172.000,33.410,7.968,2.419,323.900,76.280,21.340,6.754,hard
1365.000,288.900,71.450,15.080,1255.000,215.200,49.370,9.812,172.900,33.490,7.938,2.439,324.400,77.170,21.480,6.847,hard
1368.000,293.200,71.750,15.100,1254.000,216.300,49.380,9.825,174.800,33.570,7.925,2.445,329.800,78.610,22.020,6.920,hard
1372.000,292.800,71.880,15.190,1257.000,216.400,49.600,9.835,177.100,34.170,8.055,2.474,335.800,80.110,22.290,7.022,hard
1379.000,296.500,72.400,15.280,1255.000,216.800,49.490,9.888,174.200,34.530,8.100,2.476,340.700,81.570,22.550,7.125,hard
1382.000,296.800,72.760,15.410,1260.000,217.500,49.550,9.856,176.600,34.850,8.111,2.523,348.500,83.120,22.840,7.160,hard
1384.000,294.100,71.970,15.140,1257.000,217.200,49.540,9.823,177.300,34.270,8.067,2.474,329.100,77.710,21.600,6.830,hard
1372.000,291.700,71.680,15.090,1253.000,215.800,49.300,9.839,173.100,33.340,7.988,2.456,323.000,76.840,21.310,6.775,hard
1369.000,290.600,71.400,15.030,1255.000,215.500,49.300,9.845,173.700,33.540,7.928,2.462,323.400,76.980,21.660,6.832,hard
1371.000,292.200,71.620,15.100,1256.000,216.300,49.340,9.817,173.300,33.400,7.980,2.462,324.800,77.590,21.620,6.825,hard
1370.000,293.500,71.450,15.120,1257.000,216.200,49.380,9.823,173.300,33.910,8.026,2.447,326.600,77.760,21.540,6.841,hard
1372.000,293.100,71.790,15.240,1256.000,217.000,49.420,9.869,174.800,33.790,8.028,2.480,330.200,78.760,21.970,6.977,hard
1376.000,295.500,72.010,15.210,1258.000,216.700,49.450,9.878,175.800,34.330,8.076,2.494,336.700,80.110,22.290,7.079,hard
1382.000,296.100,72.710,15.360,1264.000,217.300,49.610,9.909,175.700,34.720,8.067,2.493,341.200,81.890,22.680,7.127,hard
1386.000,297.800,72.970,15.380,1262.000,217.700,49.680,9.855,178.500,34.560,8.263,2.507,344.300,82.180,22.660,7.082,hard
1383.000,295.800,72.170,15.210,1261.000,216.800,49.420,9.836,178.600,33.830,8.012,2.458,327.400,77.270,21.470,6.854,hard
1374.000,292.600,71.520,15.120,1260.000,216.500,49.360,9.812,175.700,33.770,7.982,2.445,323.000,76.860,21.420,6.802,hard
1370.000,291.000,71.530,15.100,1259.000,216.000,49.580,9.846,174.000,33.710,7.925,2.457,324.100,77.110,21.610,6.836,hard
1373.000,293.800,71.920,15.130,1258.000,216.800,49.530,9.832,173.500,33.540,8.020,2.462,325.600,77.510,21.550,6.868,hard
1374.000,292.200,71.650,15.200,1264.000,216.800,49.590,9.855,175.000,33.830,8.019,2.457,328.100,78.030,21.650,6.896,hard
1375.000,295.000,72.140,15.270,1263.000,217.500,49.550,9.863,177.100,33.790,8.062,2.495,333.200,79.310,22.140,7.004,hard
1379.000,293.700,72.330,15.330,1262.000,216.800,49.620,9.910,175.600,34.260,8.102,2.488,336.700,80.690,22.440,7.106,hard
1386.000,297.300,72.500,15.410,1267.000,217.600,49.810,9.868,176.800,34.750,8.222,2.510,344.400,82.100,22.730,7.191,hard
1389.000,296.700,73.010,15.330,1271.000,217.700,49.820,9.862,176.000,34.610,8.184,2.505,334.700,79.000,21.830,6.932,hard
1378.000,293.300,71.590,15.160,1260.000,216.600,49.240,9.826,176.600,33.680,8.017,2.463,323.500,76.690,21.400,6.796,hard
1372.000,293.500,71.390,15.050,1261.000,215.700,49.480,9.844,174.300,33.720,8.025,2.459,321.600,76.280,21.310,6.810,hard
1370.000,291.900,71.610,15.070,1262.000,216.400,49.270,9.885,175.400,33.770,7.945,2.456,324.300,76.940,21.530,6.835,hard
1371.000,292.800,71.830,15.030,1261.000,216.400,49.210,9.803,174.000,33.650,8.000,2.454,324.800,77.390,21.610,6.855,hard
1372.000,292.800,71.580,15.070,1264.000,216.100,49.270,9.803,176.300,33.720,8.005,2.466,327.200,77.940,21.850,6.927,hard
1375.000,292.900,72.020,15.200,1266.000,216.900,49.650,9.824,175.700,34.250,8.114,2.486,332.600,79.170,22.120,7.028,hard
1380.000,295.300,72.480,15.280,1266.000,217.000,49.660,9.913,177.500,34.540,8.119,2.497,338.000,81.000,22.460,7.108,hard
1386.000,296.400,72.570,15.410,1267.000,217.400,49.740,9.871,178.400,34.790,8.196,2.525,343.000,81.860,22.630,7.119,hard
1386.000,296.200,72.130,15.150,1267.000,216.300,49.620,9.825,177.000,34.160,8.110,2.488,325.800,77.360,21.490,6.834,hard
1375.000,292.900,71.350,15.030,1261.000,216.100,49.190,9.802,172.400,33.990,7.970,2.449,319.900,76.240,21.330,6.741,hard
1369.000,292.100,71.220,14.950,1263.000,215.800,49.360,9.808,173.600,33.750,8.026,2.448,320.400,76.230,21.340,6.784,hard
1371.000,293.200,71.290,14.990,1260.000,216.300,49.260,9.846,172.400,33.620,8.069,2.461,322.200,76.680,21.360,6.816,hard
1371.000,292.200,71.510,15.050,1263.000,216.500,49.380,9.798,174.100,34.060,8.027,2.472,323.600,76.990,21.560,6.876,hard
1368.000,291.000,71.250,14.920,1261.000,215.700,49.500,9.855,174.700,33.630,8.032,2.463,320.700,76.040,21.210,6.776,bogus
1370.000,291.800,71.400,15.020,1257.000,216.400,49.640,9.829,172.100,33.660,8.031,2.464,322.500,76.880,21.610,6.782,bogus
1369.000,291.500,70.870,14.990,1260.000,217.300,49.380,9.805,175.000,33.620,8.064,2.452,323.100,76.850,21.600,6.829,bogus
1371.000,293.800,71.820,15.110,1264.000,216.500,49.560,9.814,172.300,33.950,8.046,2.485,326.300,78.200,21.820,6.972,bogus
1375.000,293.700,71.600,15.140,1263.000,216.800,49.560,9.873,178.800,34.310,8.103,2.497,333.200,79.650,22.110,7.033,bogus
1368.000,289.300,70.710,14.950,1262.000,217.200,49.490,9.763,173.200,33.220,7.995,2.439,314.100,75.200,21.110,6.703,easy
1367.000,292.200,71.300,14.810,1261.000,216.200,49.480,9.804,171.800,33.370,7.933,2.462,315.600,75.460,21.130,6.710,easy
1366.000,290.500,71.090,14.820,1259.000,216.700,49.470,9.801,173.900,33.600,7.982,2.450,315.900,75.340,21.160,6.713,easy
1366.000,291.500,71.460,14.850,1262.000,216.200,49.430,9.788,173.800,33.710,7.941,2.455,318.500,75.980,21.380,6.804,easy
1367.000,291.400,71.150,14.910,1255.000,217.200,49.510,9.827,173.400,33.880,7.996,2.463,323.500,77.370,21.620,6.887,easy
1372.000,293.500,71.530,14.960,1260.000,217.600,49.710,9.822,174.700,34.310,8.079,2.494,329.900,79.100,22.060,7.009,easy
1372.000,293.900,72.310,14.990,1266.000,218.100,49.750,9.860,176.500,34.500,8.186,2.488,333.500,80.410,22.350,7.080,easy
1378.000,295.400,72.230,15.190,1268.000,218.100,49.930,9.879,179.300,35.100,8.197,2.520,339.100,81.820,22.680,7.166,easy
1384.000,297.700,72.930,15.310,1270.000,220.400,50.020,9.881,179.800,34.970,8.303,2.512,343.600,82.850,22.820,7.196,easy
1388.000,297.100,72.530,15.090,1261.000,217.800,49.760,9.835,178.900,34.660,8.100,2.488,323.500,76.900,21.400,6.805,easy
1371.000,292.600,71.280,14.850,1261.000,217.800,49.650,9.865,174.800,34.090,7.954,2.432,314.700,74.740,20.900,6.689,easy
1366.000,292.900,70.890,14.880,1261.000,217.900,49.380,9.822,173.100,33.330,7.955,2.444,312.200,74.590,20.930,6.659,easy
1366.000,292.100,71.260,14.880,1265.000,217.400,49.630,9.835,174.300,33.540,7.941,2.449,315.500,74.790,21.050,6.682,easy
1365.000,291.800,71.280,14.850,1262.000,217.600,49.760,9.850,170.500,33.420,7.950,2.449,314.600,75.180,21.090,6.704,easy
1367.000,293.000,71.370,14.940,1263.000,218.400,49.660,9.856,172.900,33.730,7.983,2.452,317.900,76.020,21.240,6.776,easy
1370.000,293.100,71.640,15.070,1260.000,218.100,49.730,9.888,176.200,33.690,8.022,2.482,323.800,77.820,21.690,6.872,easy
1374.000,295.600,71.840,15.070,1262.000,218.200,49.940,9.957,173.800,34.320,8.108,2.480,329.200,78.710,21.940,6.978,easy
1379.000,297.900,72.430,15.230,1267.000,219.100,50.030,9.967,176.900,33.940,8.138,2.504,333.400,80.340,22.240,7.076,easy
1386.000,297.400,72.950,15.290,1266.000,219.000,50.010,9.937,177.200,34.650,8.206,2.528,338.300,81.760,22.720,7.188,easy
1390.000,300.000,73.420,15.380,1269.000,220.000,50.150,9.998,182.100,35.070,8.271,2.532,343.100,83.530,22.970,7.307,easy
1396.000,299.000,73.750,15.520,1274.000,220.600,50.090,10.040,179.800,35.420,8.383,2.570,348.600,84.710,23.330,7.415,easy
1402.000,301.000,73.940,15.500,1277.000,219.900,49.960,9.938,181.800,35.340,8.393,2.540,338.900,80.930,22.300,7.025,easy
1391.000,297.600,72.630,15.200,1272.000,219.100,49.690,9.903,177.800,34.080,8.067,2.464,318.600,76.420,21.440,6.847,easy
1382.000,295.900,72.320,15.180,1271.000,219.100,49.780,9.890,175.600,33.510,7.957,2.461,316.900,76.120,21.300,6.829,easy
1379.000,294.400,72.240,15.200,1268.000,218.100,49.750,9.859,175.200,33.880,8.029,2.475,320.000,76.510,21.470,6.890,easy
1381.000,294.100,72.070,15.140,1268.000,219.000,49.680,9.871,172.900,33.870,8.033,2.468,318.900,76.500,21.420,6.840,easy
1381.000,296.300,71.960,15.150,1269.000,218.900,49.880,9.893,174.700,34.100,8.017,2.466,320.900,77.030,21.650,6.904,easy
1383.000,297.700,72.600,15.310,1268.000,219.000,49.910,9.892,170.600,33.710,8.092,2.498,325.600,78.760,21.980,6.988,easy
1388.000,297.600,72.880,15.360,1273.000,218.600,49.910,9.949,176.800,34.100,8.129,2.493,331.600,80.060,22.230,7.097,easy
1393.000,297.200,73.070,15.460,1274.000,219.600,50.170,9.916,176.100,34.840,8.225,2.513,335.400,80.970,22.530,7.186,easy
1397.000,301.700,73.390,15.540,1272.000,220.500,50.280,9.986,180.000,35.050,8.251,2.533,341.000,82.690,22.960,7.283,easy
1400.000,300.100,73.620,15.280,1273.000,218.300,49.770,9.847,178.500,34.500,8.190,2.511,324.800,77.700,21.640,6.876,easy
1386.000,296.700,72.770,15.190,1270.000,219.100,49.610,9.874,173.500,33.610,7.997,2.474,315.100,75.540,21.270,6.778,easy
1381.000,296.400,72.340,15.050,1269.000,217.900,49.800,9.828,174.100,33.490,8.019,2.463,315.100,75.210,21.220,6.802,easy
1382.000,296.500,72.130,15.150,1272.000,218.500,49.710,9.835,174.900,33.550,8.009,2.448,317.300,76.210,21.470,6.826,easy
1382.000,295.500,72.300,15.200,1266.000,218.300,49.610,9.900,173.400,33.290,8.013,2.451,317.200,76.210,21.410,6.880,easy
1382.000,295.900,72.620,15.190,1272.000,218.200,49.710,9.846,171.500,33.980,7.972,2.465,320.800,76.840,21.570,6.911,easy
1387.000,297.800,72.690,15.260,1264.000,218.000,49.920,9.828,173.200,34.010,8.081,2.473,325.600,78.140,22.060,6.993,easy
1389.000,298.300,72.960,15.320,1266.000,218.600,50.010,9.885,176.500,34.080,8.151,2.505,331.100,79.920,22.280,7.093,easy
1394.000,300.100,73.310,15.450,1270.000,218.600,49.900,9.884,177.400,34.360,8.173,2.495,335.800,81.170,22.550,7.197,easy
1396.000,300.000,73.080,15.370,1273.000,217.900,49.590,9.788,175.600,34.280,8.086,2.497,318.600,76.240,21.320,6.809,easy
1384.000,295.200,72.280,15.040,1262.000,216.500,49.430,9.796,173.800,33.530,7.972,2.431,310.400,74.340,20.880,6.687,easy
1376.000,294.500,72.150,15.080,1267.000,217.200,49.380,9.762,169.000,32.920,7.958,2.414,309.600,74.260,20.830,6.686,easy
1375.000,294.700,71.890,15.020,1261.000,217.100,49.360,9.771,170.500,33.280,7.951,2.420,311.800,74.490,20.980,6.702,easy
1375.000,293.400,71.710,15.010,1260.000,216.900,49.470,9.746,171.900,33.200,7.982,2.429,311.200,74.420,21.020,6.738,easy
1376.000,293.600,71.820,15.050,1263.000,217.200,49.390,9.750,169.900,33.350,7.965,2.438,313.900,75.700,21.330,6.775,easy
1378.000,295.500,72.580,15.140,1263.000,216.900,49.530,9.806,171.000,33.500,7.961,2.458,318.900,76.960,21.550,6.896,easy
1381.000,296.300,72.470,15.230,1265.000,217.200,49.910,9.820,173.200,33.600,8.031,2.484,324.300,77.600,21.780,6.990,easy
1385.000,298.200,72.780,15.260,1270.000,218.400,49.560,9.827,172.400,33.950,8.108,2.479,328.600,79.340,22.150,7.045,easy
1388.000,296.800,72.470,15.160,1265.000,216.800,49.360,9.750,174.600,33.860,8.011,2.446,314.400,75.010,20.960,6.699,easy
1374.000,293.300,71.490,15.060,1254.000,216.100,49.130,9.708,167.200,33.060,7.848,2.415,303.700,72.930,20.570,6.537,easy
1366.000,294.200,71.050,14.900,1258.000,215.200,49.250,9.715,170.600,32.860,7.786,2.388,302.000,72.470,20.320,6.570,easy
1366.000,292.400,71.060,14.830,1255.000,215.700,49.060,9.665,168.100,32.920,7.811,2.406,304.700,72.620,20.570,6.613,easy
1364.000,289.600,70.990,14.790,1256.000,214.900,48.990,9.727,168.200,32.820,7.818,2.400,304.600,73.090,20.620,6.574,easy
1365.000,292.300,70.930,14.910,1254.000,216.000,48.950,9.726,170.200,32.950,7.884,2.412,306.700,73.590,20.780,6.666,easy
1367.000,292.000,71.460,14.940,1253.000,215.800,49.190,9.732,169.900,32.860,7.899,2.422,312.600,74.900,20.990,6.735,easy
1371.000,295.500,71.540,15.010,1258.000,216.900,49.130,9.740,171.500,33.180,7.965,2.439,316.600,76.170,21.370,6.832,easy
1375.000,293.900,72.150,15.130,1253.000,216.200,49.180,9.772,172.100,33.460,8.023,2.454,320.800,77.060,21.650,6.877,easy
1380.000,296.100,72.550,15.230,1257.000,216.900,49.270,9.834,174.000,34.120,7.994,2.462,326.500,78.570,21.990,6.978,easy
1385.000,297.600,72.350,15.200,1259.000,215.900,49.250,9.720,174.500,34.210,8.088,2.458,318.600,75.770,21.080,6.711,easy
1374.000,293.600,71.520,14.840,1253.000,215.100,49.150,9.673,171.600,33.210,7.835,2.408,302.400,72.380,20.430,6.530,easy
1363.000,291.600,71.140,14.750,1249.000,214.800,48.950,9.674,164.600,32.410,7.774,2.397,299.700,71.530,20.240,6.469,easy
1360.000,290.000,70.970,14.830,1250.000,214.700,48.910,9.711,165.900,32.180,7.755,2.400,300.500,71.650,20.320,6.526,easy
1360.000,291.800,70.430,14.790,1250.000,214.700,49.180,9.667,166.700,32.860,7.786,2.390,300.900,71.960,20.400,6.522,easy
1360.000,291.900,70.630,14.810,1249.000,214.200,48.860,9.695,166.500,32.930,7.825,2.407,302.300,72.410,20.510,6.572,easy
1363.000,294.600,71.180,14.910,1250.000,215.800,49.150,9.755,170.100,32.900,7.841,2.401,306.400,73.980,20.830,6.648,easy
1367.000,293.300,71.670,15.000,1248.000,214.300,49.270,9.745,169.700,33.090,7.884,2.427,311.800,74.780,21.050,6.748,easy
1370.000,293.100,71.920,14.920,1251.000,216.000,49.190,9.707,172.500,32.960,7.975,2.438,317.100,76.210,21.570,6.829,easy
1374.000,295.300,72.210,15.090,1251.000,216.500,49.240,9.785,170.900,33.490,8.037,2.462,321.300,77.650,21.640,6.934,easy
1380.000,296.700,72.920,15.200,1258.000,216.600,49.500,9.789,172.000,33.940,8.073,2.474,324.800,78.640,22.070,7.021,easy
1386.000,299.200,72.970,15.330,1260.000,217.500,49.660,9.838,178.000,33.990,8.211,2.503,332.000,80.290,22.350,7.116,easy
1392.000,298.400,72.790,15.330,1256.000,217.200,49.380,9.822,176.600,34.800,8.192,2.498,325.800,77.970,21.570,6.859,easy
1383.000,295.100,72.140,15.080,1255.000,216.300,49.250,9.714,171.500,33.420,7.931,2.436,307.800,74.220,20.930,6.693,easy
1374.000,295.500,71.390,14.910,1252.000,215.900,49.260,9.745,171.400,33.050,7.863,2.434,306.300,73.530,20.640,6.620,easy
1371.000,294.500,71.500,15.010,1256.000,215.600,49.270,9.753,170.200,32.900,7.826,2.414,306.000,73.380,20.770,6.673,easy
1372.000,294.200,71.910,15.050,1256.000,215.600,49.240,9.788,167.100,33.290,7.925,2.433,306.300,73.400,20.810,6.679,easy
1371.000,294.200,71.710,15.080,1258.000,216.600,49.460,9.808,167.600,33.230,7.939,2.438,307.200,73.870,20.960,6.688,easy
1375.000,295.700,72.270,15.040,1256.000,216.600,49.410,9.837,168.800,33.200,7.996,2.446,312.300,75.100,21.260,6.792,easy
1378.000,296.700,72.670,15.130,1257.000,216.800,49.430,9.833,170.900,33.830,7.985,2.472,316.500,76.660,21.550,6.908,easy
1383.000,297.300,72.680,15.280,1257.000,217.100,49.610,9.823,170.700,33.550,8.089,2.478,321.900,77.930,21.870,6.992,easy
1387.000,298.500,72.960,15.320,1260.000,217.700,49.580,9.869,175.800,34.270,8.079,2.497,327.300,79.170,22.160,7.067,easy
1393.000,300.200,73.270,15.440,1263.000,218.400,49.870,9.903,175.300,34.440,8.186,2.530,332.900,80.690,22.520,7.167,easy
1399.000,301.000,73.660,15.520,1263.000,217.700,49.800,9.881,178.500,34.800,8.297,2.522,331.400,79.280,22.140,7.004,easy
1392.000,299.100,72.720,15.270,1258.000,217.100,49.600,9.842,172.500,33.470,8.004,2.461,313.700,75.400,21.250,6.803,easy
1384.000,296.700,72.250,15.130,1262.000,216.300,49.640,9.812,170.800,33.380,7.993,2.442,310.700,74.380,21.020,6.748,easy
1382.000,297.000,72.330,15.180,1255.000,216.500,49.780,9.865,172.200,33.300,7.996,2.459,312.600,74.990,21.340,6.796,easy
1383.000,297.800,72.570,15.150,1258.000,216.500,49.640,9.831,173.800,33.750,8.052,2.471,310.900,75.100,21.220,6.822,easy
1383.000,296.500,72.600,15.230,1262.000,216.700,49.660,9.845,172.500,33.490,7.991,2.473,313.400,75.830,21.460,6.875,easy
1386.000,298.900,73.000,15.310,1258.000,218.000,49.650,9.888,173.700,33.490,8.073,2.489,320.300,77.210,21.770,6.921,easy
1390.000,298.200,73.300,15.300,1262.000,217.700,49.760,9.924,174.100,34.030,8.126,2.499,324.300,78.510,22.080,7.043,easy
1394.000,299.500,73.890,15.410,1263.000,218.200,49.970,9.930,176.500,34.260,8.184,2.493,329.200,79.620,22.450,7.167,easy
1399.000,301.200,74.130,15.530,1259.000,218.000,49.950,9.924,177.800,34.960,8.285,2.540,334.300,81.310,22.540,7.226,easy
1403.000,303.200,74.190,15.680,1265.000,218.500,49.850,9.907,182.400,34.600,8.279,2.541,338.200,81.870,22.870,7.280,easy
1404.000,302.300,73.880,15.440,1266.000,217.300,49.810,9.857,176.900,34.290,8.135,2.509,320.500,76.880,21.640,6.950,easy
1391.000,298.400,73.270,15.330,1260.000,217.400,49.870,9.856,175.700,33.430,8.010,2.473,313.900,75.420,21.350,6.863,easy
1388.000,298.700,72.370,15.310,1257.000,216.400,49.700,9.850,170.400,33.610,7.980,2.478,313.000,75.530,21.460,6.860,easy
1389.000,297.600,73.100,15.280,1263.000,216.400,49.530,9.861,174.500,34.000,8.076,2.474,315.200,75.810,21.490,6.889,easy
1390.000,298.900,73.100,15.230,1259.000,216.400,49.760,9.832,173.000,33.610,8.090,2.479,316.300,76.230,21.630,6.892,easy
1390.000,299.800,73.040,15.380,1261.000,216.700,49.780,9.908,175.000,33.280,8.120,2.481,320.600,77.180,21.780,6.977,easy
1393.000,298.400,73.570,15.450,1261.000,217.600,49.580,9.920,176.500,33.910,8.212,2.517,325.400,78.700,22.190,7.090,easy
1397.000,302.000,73.430,15.510,1259.000,217.500,49.870,9.940,179.200,34.530,8.188,2.515,331.800,79.950,22.580,7.184,easy
1403.000,303.300,74.320,15.600,1266.000,217.200,49.840,9.927,177.800,34.580,8.270,2.538,336.400,81.600,22.890,7.279,easy
1406.000,302.700,74.510,15.650,1268.000,217.700,49.990,9.944,177.900,35.160,8.229,2.557,341.400,82.850,23.120,7.390,easy
1410.000,303.800,74.640,15.760,1265.000,218.200,50.050,9.973,180.000,35.430,8.349,2.572,346.500,84.490,23.420,7.461,easy
1413.000,304.800,74.350,15.640,1264.000,217.800,49.770,9.816,180.500,35.140,8.311,2.543,331.100,79.200,22.130,7.086,easy
1401.000,301.300,73.600,15.410,1261.000,216.700,49.600,9.876,174.800,33.780,8.154,2.492,319.300,76.880,21.800,6.949,easy
1395.000,299.200,73.420,15.330,1263.000,216.500,49.630,9.823,175.200,34.030,8.027,2.484,317.500,76.420,21.570,6.909,easy
1393.000,297.800,73.390,15.390,1262.000,216.000,49.620,9.811,172.100,33.520,8.083,2.479,319.700,77.000,21.830,6.951,easy
1393.000,300.400,73.320,15.420,1263.000,215.900,49.540,9.869,174.500,34.090,8.120,2.510,322.000,77.070,21.750,6.931,easy
1394.000,298.700,73.220,15.420,1256.000,217.100,49.660,9.869,171.700,33.710,8.124,2.498,322.500,78.060,21.950,7.045,easy
1395.000,301.100,73.810,15.400,1264.000,216.600,49.630,9.871,172.800,34.180,8.184,2.499,328.700,79.260,22.380,7.128,easy
1399.000,301.400,73.550,15.500,1265.000,217.100,49.670,9.878,177.700,34.490,8.189,2.550,334.200,80.820,22.610,7.224,easy
1404.000,301.800,74.070,15.580,1262.000,217.000,49.760,9.903,174.400,34.620,8.297,2.558,340.200,82.270,23.030,7.297,easy
1408.000,301.700,74.420,15.700,1261.000,217.100,49.820,9.911,178.600,34.740,8.390,2.560,346.000,83.920,23.290,7.426,easy
1414.000,304.000,74.730,15.760,1267.000,218.000,49.970,9.955,179.800,35.100,8.438,2.584,350.400,85.150,23.660,7.470,easy
1418.000,305.400,74.980,15.850,1265.000,217.800,49.830,9.971,183.500,35.440,8.508,2.588,354.300,86.330,23.800,7.504,easy
1418.000,303.300,74.710,15.690,1263.000,216.600,49.620,9.845,182.300,35.310,8.391,2.559,333.900,80.120,22.480,7.161,easy
1406.000,301.700,74.010,15.480,1258.000,216.500,49.520,9.789,178.400,34.470,8.175,2.520,325.600,78.060,21.970,7.039,easy
1399.000,301.400,73.400,15.420,1262.000,216.200,49.370,9.836,177.100,34.240,8.148,2.497,324.000,77.480,21.940,7.004,easy
1398.000,298.800,73.570,15.370,1260.000,215.800,49.440,9.808,176.700,34.150,8.155,2.501,324.400,78.120,22.110,7.039,easy
1397.000,301.100,73.440,15.420,1254.000,215.900,49.430,9.848,174.100,34.140,8.164,2.508,327.000,78.740,22.100,7.099,easy
1398.000,300.100,73.290,15.420,1255.000,215.800,49.710,9.827,174.400,34.480,8.186,2.513,330.100,79.620,22.330,7.112,easy
1401.000,301.800,73.670,15.430,1259.000,215.700,49.400,9.838,175.400,34.590,8.264,2.552,335.700,80.970,22.760,7.287,easy
1405.000,301.900,73.950,15.560,1263.000,216.200,49.640,9.825,176.400,34.820,8.348,2.543,342.600,82.650,23.060,7.357,easy
1407.000,302.400,74.180,15.690,1263.000,216.700,49.510,9.849,184.200,35.240,8.363,2.561,346.800,84.050,23.460,7.446,easy
1413.000,304.100,74.800,15.760,1262.000,216.800,49.690,9.929,183.500,35.450,8.370,2.593,352.600,85.960,23.800,7.534,easy
1417.000,305.100,74.990,15.850,1265.000,217.700,49.900,9.912,183.200,35.840,8.419,2.599,358.700,87.560,24.040,7.646,easy
1423.000,307.000,75.110,15.900,1270.000,216.800,49.750,9.828,185.300,36.080,8.530,2.603,360.200,86.620,23.820,7.481,easy
1418.000,303.800,74.630,15.620,1259.000,216.600,49.450,9.796,179.300,35.350,8.388,2.543,338.000,80.990,22.600,7.173,easy
1408.000,302.000,73.720,15.450,1259.000,216.000,49.210,9.791,178.200,34.560,8.252,2.518,332.400,79.930,22.430,7.173,easy
1403.000,302.300,73.890,15.490,1257.000,215.800,49.500,9.808,176.700,34.420,8.214,2.519,333.000,80.420,22.410,7.172,easy
1403.000,301.500,73.700,15.450,1257.000,214.800,49.280,9.762,176.000,34.800,8.275,2.539,335.800,80.370,22.580,7.200,easy
1403.000,302.500,73.410,15.530,1255.000,215.700,49.370,9.797,179.300,34.420,8.250,2.522,334.800,80.980,22.620,7.230,easy
1404.000,301.600,73.720,15.480,1261.000,215.900,49.460,9.849,176.200,34.550,8.302,2.545,339.400,82.480,22.910,7.326,easy
1408.000,303.000,74.650,15.540,1258.000,215.900,49.570,9.776,181.000,35.220,8.358,2.564,345.600,83.540,23.280,7.442,easy
1412.000,303.300,74.770,15.690,1264.000,216.800,49.450,9.792,179.800,35.550,8.449,2.562,351.600,85.050,23.580,7.539,easy
1415.000,305.800,74.500,15.740,1262.000,217.100,49.260,9.877,182.700,35.460,8.480,2.593,356.200,86.680,23.970,7.635,easy
1420.000,304.900,74.850,15.720,1264.000,216.900,49.360,9.831,183.200,35.980,8.466,2.585,349.600,84.020,23.160,7.372,easy
1411.000,302.600,73.820,15.500,1259.000,215.600,49.320,9.761,179.900,35.230,8.276,2.529,334.100,80.240,22.490,7.215,easy
1403.000,301.100,73.680,15.430,1248.000,215.400,49.210,9.726,178.300,34.480,8.188,2.537,332.000,80.000,22.400,7.153,easy
1401.000,302.000,73.320,15.460,1253.000,215.000,49.300,9.711,177.600,34.660,8.225,2.518,336.500,80.880,22.580,7.203,easy
1402.000,300.700,73.590,15.450,1253.000,215.000,49.190,9.739,180.400,34.290,8.226,2.530,336.100,80.980,22.600,7.237,easy
1400.000,301.700,73.010,15.430,1257.000,215.100,49.140,9.741,177.200,35.090,8.232,2.514,338.300,81.830,22.770,7.253,easy
1402.000,300.800,73.510,15.490,1259.000,215.300,49.320,9.720,180.600,34.960,8.306,2.550,344.200,83.510,23.070,7.354,easy
1406.000,304.100,74.400,15.600,1253.000,215.300,49.350,9.751,182.300,35.390,8.426,2.558,348.700,84.590,23.470,7.468,easy
1411.000,304.900,74.330,15.640,1253.000,215.200,49.210,9.789,183.400,35.860,8.446,2.576,354.900,86.060,23.740,7.538,easy
1413.000,305.200,74.920,15.630,1256.000,214.600,49.030,9.735,184.300,35.620,8.409,2.568,347.000,83.380,22.970,7.280,easy
1403.000,299.900,73.540,15.360,1253.000,214.300,49.040,9.682,180.200,34.720,8.251,2.509,332.300,79.990,22.220,7.074,easy
1395.000,299.600,72.960,15.230,1253.000,213.100,48.810,9.657,178.000,34.330,8.158,2.516,331.300,79.620,22.220,7.065,easy
1392.000,297.500,72.660,15.210,1248.000,214.100,48.700,9.617,177.900,34.540,8.163,2.513,332.700,79.870,22.350,7.106,easy
1391.000,297.700,72.630,15.280,1246.000,212.900,48.770,9.619,179.200,34.390,8.177,2.500,333.600,79.670,22.280,7.138,easy
1390.000,299.000,72.730,15.160,1245.000,213.200,48.640,9.665,177.500,34.630,8.221,2.505,335.600,80.750,22.450,7.158,easy
1390.000,298.100,72.710,15.300,1245.000,213.800,48.790,9.621,182.900,35.000,8.212,2.529,340.100,82.510,22.880,7.253,easy
1395.000,299.600,72.940,15.340,1245.000,213.300,48.870,9.659,181.000,35.610,8.401,2.548,345.600,84.160,23.170,7.382,easy
1397.000,298.400,73.180,15.410,1246.000,213.900,48.940,9.673,180.600,35.750,8.339,2.557,352.600,85.120,23.580,7.477,easy
1401.000,300.400,73.510,15.370,1249.000,213.200,48.780,9.649,181.700,35.310,8.295,2.557,339.700,81.360,22.480,7.142,easy
1390.000,298.300,72.310,15.110,1245.000,213.000,48.320,9.602,176.300,34.360,8.119,2.513,329.200,78.700,21.970,6.973,easy
1381.000,295.200,71.700,14.940,1243.000,211.600,48.470,9.539,173.000,34.050,8.137,2.498,327.300,78.310,21.900,7.002,easy
1376.000,294.100,71.740,15.000,1239.000,211.900,48.210,9.537,173.100,34.230,8.138,2.485,329.200,79.250,22.140,6.995,easy
1375.000,294.500,71.510,14.870,1237.000,212.000,48.390,9.541,175.700,34.330,8.098,2.486,331.000,79.170,22.070,6.988,easy
1373.000,293.600,71.240,14.860,1236.000,212.700,48.380,9.544,176.100,34.310,8.110,2.504,332.500,80.030,22.280,7.079,easy
1377.000,296.100,71.370,14.940,1235.000,212.300,48.460,9.524,178.700,34.560,8.193,2.511,338.600,81.220,22.570,7.163,easy
1380.000,296.000,71.990,15.070,1236.000,211.700,48.630,9.578,177.900,34.890,8.265,2.514,344.700,83.150,22.920,7.259,easy
1384.000,296.000,72.520,15.210,1234.000,211.700,48.480,9.614,180.000,35.310,8.237,2.551,348.400,84.040,23.190,7.322,easy
1388.000,297.200,72.520,15.180,1234.000,211.800,48.620,9.562,180.000,35.720,8.397,2.552,348.700,83.130,22.690,7.159,easy
1380.000,295.800,71.720,14.860,1234.000,211.100,48.300,9.492,178.800,34.700,8.185,2.502,330.200,78.820,21.780,6.989,easy
1371.000,292.400,70.690,14.800,1233.000,211.800,48.120,9.499,174.700,34.020,8.045,2.477,326.100,77.980,21.560,6.863,easy
1363.000,290.400,70.640,14.710,1228.000,210.400,47.850,9.468,176.000,33.650,8.087,2.486,324.900,77.990,21.690,6.896,easy
1363.000,291.000,70.670,14.670,1225.000,209.000,48.070,9.441,175.900,33.920,8.066,2.476,327.700,78.180,21.520,6.848,easy
1362.000,290.500,70.700,14.710,1225.000,209.800,47.790,9.503,175.500,33.970,8.076,2.484,329.000,78.560,21.720,6.921,easy
1361.000,290.300,70.360,14.720,1227.000,210.200,47.940,9.484,176.700,34.320,8.147,2.484,332.800,79.940,21.990,7.015,easy
1364.000,290.400,70.920,14.770,1227.000,211.500,48.220,9.493,178.100,34.770,8.179,2.505,338.400,81.190,22.390,7.078,easy
1368.000,291.900,71.200,14.860,1229.000,211.100,48.100,9.499,179.300,34.630,8.169,2.520,343.600,82.760,22.560,7.190,easy
1373.000,292.600,71.140,14.940,1230.000,211.800,48.270,9.559,180.800,35.400,8.293,2.543,346.900,84.040,23.020,7.293,easy
1377.000,294.900,71.460,15.090,1233.000,212.000,48.400,9.593,181.000,35.220,8.346,2.574,353.400,85.290,23.410,7.353,easy
1383.000,295.900,72.340,15.060,1233.000,211.100,48.220,9.547,179.300,35.560,8.354,2.546,349.400,83.780,22.680,7.114,easy
1374.000,292.500,70.820,14.780,1229.000,211.000,48.210,9.452,176.100,34.480,8.152,2.496,328.200,79.050,21.830,6.859,easy
1364.000,289.900,70.410,14.590,1225.000,209.700,47.910,9.487,174.800,34.120,8.069,2.478,326.000,77.840,21.500,6.860,easy
1357.000,289.700,69.700,14.610,1223.000,210.100,47.910,9.443,178.300,34.460,8.096,2.477,326.700,78.010,21.600,6.826,easy
1356.000,290.900,69.720,14.550,1222.000,209.800,47.930,9.477,174.000,33.810,8.063,2.480,326.400,78.040,21.580,6.851,easy
1355.000,290.300,69.910,14.560,1224.000,210.200,48.050,9.480,176.100,34.120,8.095,2.489,328.200,78.630,21.720,6.884,easy
1358.000,288.900,70.520,14.560,1221.000,209.900,47.920,9.534,174.700,34.180,8.058,2.482,333.800,79.820,22.080,6.940,easy
1361.000,289.000,70.510,14.780,1229.000,210.600,48.110,9.539,176.700,34.400,8.170,2.504,339.000,81.200,22.320,7.096,easy
1365.000,290.700,71.030,14.810,1227.000,211.200,48.220,9.532,177.000,35.050,8.230,2.523,343.000,82.800,22.590,7.205,easy
1370.000,292.900,70.940,14.870,1226.000,211.800,48.440,9.561,179.700,35.000,8.234,2.521,348.500,83.810,23.050,7.249,easy
1374.000,291.600,71.240,14.970,1230.000,212.300,48.530,9.561,180.500,35.140,8.351,2.560,352.300,85.250,23.300,7.400,easy
1381.000,295.600,72.220,15.110,1228.000,212.400,48.560,9.598,180.700,35.580,8.445,2.549,358.200,86.370,23.610,7.406,easy
1382.000,294.000,71.270,14.950,1228.000,211.600,48.330,9.536,179.700,35.390,8.285,2.528,339.200,81.140,22.140,7.025,easy
1369.000,293.200,70.570,14.770,1232.000,211.500,48.080,9.524,177.900,34.340,8.079,2.493,329.500,78.990,21.700,6.943,easy
1365.000,291.400,70.460,14.750,1228.000,212.100,48.240,9.556,176.900,34.020,8.072,2.492,328.200,78.990,21.850,6.950,easy
1364.000,290.800,70.810,14.730,1223.000,212.100,48.440,9.526,178.600,34.240,8.077,2.493,332.200,79.530,21.860,6.942,easy
1364.000,290.200,70.590,14.690,1227.000,210.900,48.340,9.527,174.800,34.130,8.090,2.498,331.800,79.290,21.990,6.955,easy
1364.000,291.500,70.960,14.760,1228.000,211.500,48.350,9.581,176.900,34.310,8.127,2.498,334.900,80.550,22.160,7.002,easy
1367.000,292.300,71.340,14.830,1227.000,211.900,48.300,9.611,176.200,34.810,8.185,2.513,340.800,82.090,22.560,7.120,easy
1370.000,292.900,71.270,14.910,1230.000,212.300,48.460,9.653,180.900,34.740,8.232,2.513,346.600,83.360,22.900,7.268,easy
1375.000,293.600,71.550,14.990,1230.000,213.000,48.540,9.654,179.900,34.960,8.315,2.550,350.100,84.510,23.150,7.308,easy
1380.000,294.600,72.340,15.080,1234.000,213.300,48.770,9.681,180.700,35.390,8.342,2.567,354.700,85.410,23.320,7.287,easy
1381.000,294.500,72.130,14.890,1230.000,212.600,48.440,9.600,182.500,35.150,8.265,2.515,334.600,80.250,21.980,6.958,easy
1369.000,291.300,70.960,14.740,1232.000,212.500,48.540,9.606,178.200,34.320,8.094,2.480,329.400,78.700,21.690,6.844,easy
1364.000,289.200,70.800,14.660,1229.000,212.500,48.530,9.578,174.100,33.950,8.053,2.469,327.300,78.920,21.680,6.895,easy
1363.000,290.200,70.530,14.730,1232.000,212.100,48.620,9.621,175.800,33.640,8.124,2.492,330.300,78.800,21.740,6.891,easy
1362.000,291.700,70.620,14.770,1226.000,212.400,48.610,9.645,179.000,33.990,8.155,2.502,330.900,79.430,21.920,6.907,easy
1362.000,291.800,71.110,14.790,1231.000,211.800,48.770,9.663,176.600,34.150,8.171,2.501,333.500,80.280,22.070,6.991,easy
1366.000,293.800,71.130,14.870,1230.000,212.700,48.600,9.669,176.400,34.260,8.193,2.501,340.300,81.910,22.490,7.092,easy
1371.000,292.700,71.340,15.030,1235.000,213.000,49.060,9.725,177.300,35.100,8.287,2.525,346.400,83.310,22.840,7.192,easy
1375.000,293.700,71.960,15.030,1231.000,213.400,49.030,9.730,179.400,34.940,8.266,2.531,350.300,84.500,23.180,7.270,easy
1381.000,296.500,72.410,15.130,1236.000,213.400,48.750,9.709,184.300,35.220,8.349,2.540,348.200,82.810,22.570,7.076,easy
1372.000,292.100,71.090,14.850,1228.000,213.400,48.580,9.675,177.100,34.180,8.091,2.509,328.100,78.430,21.590,6.858,easy
1362.000,290.100,70.470,14.650,1227.000,211.700,48.490,9.607,176.900,33.670,8.010,2.490,326.300,78.150,21.570,6.771,easy
1359.000,290.100,70.470,14.690,1231.000,212.500,48.630,9.608,175.300,33.700,8.025,2.458,327.000,78.260,21.500,6.804,easy
1360.000,289.600,70.820,14.700,1229.000,211.600,48.330,9.685,173.600,34.000,8.117,2.470,327.000,78.350,21.600,6.779,easy
1359.000,289.100,70.770,14.750,1233.000,212.600,48.510,9.633,174.100,33.630,8.043,2.480,327.800,78.640,21.850,6.843,easy
1360.000,291.400,70.900,14.770,1234.000,213.400,48.930,9.667,175.700,34.680,8.145,2.486,333.800,80.230,22.130,6.970,easy
1364.000,292.200,71.320,14.910,1233.000,212.700,48.910,9.681,175.800,34.560,8.164,2.510,341.100,81.890,22.510,7.060,easy
1370.000,291.500,71.510,14.990,1236.000,213.600,48.960,9.729,179.600,34.540,8.262,2.523,345.800,83.450,22.900,7.160,easy
1375.000,294.200,72.030,15.080,1236.000,213.900,49.100,9.779,178.500,34.690,8.244,2.547,350.500,84.690,23.000,7.256,easy
1378.000,295.000,72.280,15.030,1233.000,213.900,48.940,9.692,176.900,35.200,8.295,2.520,339.800,81.180,22.060,6.941,easy
1367.000,290.400,71.170,14.720,1234.000,213.100,48.610,9.718,176.600,33.870,8.011,2.466,325.400,77.570,21.390,6.758,easy
1358.000,289.300,70.950,14.690,1225.000,212.600,48.860,9.647,174.400,33.940,8.004,2.458,322.900,77.040,21.160,6.722,easy
1354.000,287.700,70.640,14.700,1225.000,213.200,48.670,9.629,174.800,33.330,7.965,2.456,324.100,77.450,21.320,6.744,easy
1354.000,288.900,70.300,14.640,1225.000,212.900,48.700,9.700,176.700,33.860,7.964,2.454,325.700,77.530,21.410,6.747,easy
1355.000,288.700,70.380,14.680,1228.000,212.900,48.800,9.666,172.300,34.090,8.010,2.475,326.900,78.330,21.590,6.782,easy
1356.000,288.500,70.850,14.780,1230.000,213.200,48.670,9.686,175.500,34.500,8.036,2.487,332.700,80.020,21.810,6.858,easy
1360.000,292.200,70.710,14.890,1236.000,213.500,48.930,9.751,177.300,34.490,8.181,2.493,339.200,81.660,22.160,7.023,easy
1363.000,291.200,70.910,14.920,1233.000,214.100,49.030,9.746,177.400,34.700,8.230,2.527,344.100,82.780,22.580,7.087,easy
1368.000,292.100,71.750,15.030,1238.000,214.500,49.240,9.802,180.900,34.830,8.233,2.534,348.900,84.320,22.970,7.207,easy
1375.000,294.100,71.720,15.080,1237.000,214.800,49.230,9.771,182.900,35.240,8.374,2.536,352.200,84.390,22.860,7.088,easy
1371.000,293.100,71.300,14.870,1232.000,213.400,48.930,9.727,178.400,34.910,8.143,2.496,328.500,78.470,21.540,6.740,easy
1359.000,290.000,70.700,14.680,1226.000,213.400,48.680,9.682,173.500,34.110,7.962,2.455,323.600,76.880,21.120,6.663,easy
1353.000,288.700,69.980,14.690,1225.000,212.500,48.850,9.678,174.400,33.560,8.029,2.451,323.600,77.360,21.340,6.701,easy
1352.000,289.000,70.150,14.630,1231.000,213.500,48.810,9.738,174.700,33.830,8.003,2.463,323.600,77.060,21.210,6.709,easy
1352.000,288.600,69.840,14.670,1231.000,213.500,48.880,9.681,175.900,33.950,8.038,2.468,325.700,77.920,21.360,6.730,easy
1353.000,288.900,70.570,14.680,1234.000,214.300,48.970,9.718,175.000,33.990,7.985,2.470,330.300,78.850,21.610,6.811,easy
1357.000,289.200,70.540,14.800,1236.000,213.400,48.880,9.721,175.100,34.070,8.126,2.480,334.900,80.390,22.160,6.903,easy
1361.000,290.700,70.910,14.930,1235.000,214.400,49.020,9.768,178.500,34.530,8.148,2.505,341.100,81.950,22.380,7.041,easy
1366.000,292.300,71.260,14.980,1241.000,214.100,49.300,9.833,178.100,34.820,8.210,2.526,345.700,83.250,22.750,7.114,easy
1371.000,295.300,71.920,15.070,1238.000,214.800,49.280,9.810,179.500,35.220,8.254,2.531,350.900,83.730,22.650,7.019,easy
1368.000,293.800,71.320,14.930,1232.000,213.900,49.090,9.756,175.900,34.290,8.122,2.470,328.100,77.830,21.370,6.726,easy
1357.000,289.700,70.510,14.710,1232.000,213.300,49.050,9.706,174.500,33.740,8.025,2.461,322.800,77.440,21.160,6.684,easy
1352.000,289.300,70.580,14.730,1232.000,212.900,48.740,9.700,173.000,33.850,7.968,2.452,323.200,77.190,21.350,6.700,easy
1352.000,288.600,70.260,14.660,1230.000,213.700,48.910,9.701,174.600,34.160,8.008,2.459,324.900,77.570,21.370,6.687,easy
1351.000,289.100,70.350,14.690,1235.000,214.400,48.890,9.748,172.400,33.930,8.037,2.463,326.300,77.930,21.460,6.738,easy
1355.000,289.000,69.760,14.740,1229.000,213.700,49.020,9.770,173.000,34.170,8.023,2.468,329.900,79.170,21.700,6.842,easy
1358.000,290.300,71.100,14.800,1237.000,212.700,48.920,9.753,177.100,34.300,8.109,2.489,337.600,80.610,22.150,6.948,easy
1362.000,292.900,71.310,14.890,1236.000,214.300,49.230,9.788,176.800,34.670,8.132,2.502,341.100,82.310,22.470,7.068,easy
1367.000,293.400,71.520,14.980,1241.000,215.200,49.460,9.773,177.300,34.970,8.227,2.507,345.700,82.970,22.650,7.076,easy
1370.000,293.200,71.400,14.950,1237.000,214.200,49.050,9.732,178.800,34.860,8.145,2.497,330.600,78.720,21.500,6.746,easy
1357.000,289.300,70.600,14.730,1237.000,213.400,48.880,9.706,171.000,33.960,8.044,2.448,322.700,76.520,21.120,6.661,easy
1351.000,289.700,70.380,14.630,1234.000,213.700,49.010,9.699,172.600,33.280,7.953,2.456,320.100,76.820,21.180,6.677,easy
1350.000,289.100,70.650,14.730,1238.000,213.900,48.940,9.697,174.300,33.580,7.988,2.455,323.100,76.880,21.100,6.666,easy
1351.000,289.900,70.340,14.640,1239.000,213.500,48.970,9.736,172.600,33.580,7.993,2.463,322.800,77.130,21.200,6.678,easy
1352.000,287.600,70.200,14.730,1236.000,213.300,48.990,9.731,176.400,33.510,8.034,2.456,325.100,77.780,21.380,6.742,easy
1355.000,289.600,70.890,14.810,1240.000,214.600,49.180,9.809,174.600,34.300,8.042,2.474,330.100,79.410,21.610,6.878,easy
1359.000,291.000,71.070,14.940,1235.000,214.700,49.130,9.762,177.100,34.190,8.151,2.513,336.800,80.580,22.080,6.972,easy
1364.000,292.000,71.200,14.910,1237.000,214.700,49.570,9.801,177.500,34.380,8.189,2.520,341.700,82.180,22.410,6.995,easy
1367.000,292.200,71.390,14.820,1237.000,214.600,49.290,9.782,180.100,34.880,8.119,2.481,325.100,77.220,21.140,6.669,easy
1354.000,290.600,70.500,14.750,1238.000,213.300,48.950,9.745,173.900,33.480,7.943,2.446,316.500,75.340,20.780,6.557,easy
1348.000,289.300,69.760,14.640,1235.000,213.400,48.960,9.737,174.000,33.340,7.879,2.449,315.100,75.420,20.820,6.567,easy
1347.000,288.300,69.640,14.620,1236.000,213.600,49.050,9.725,176.100,33.150,7.943,2.455,316.000,75.750,20.850,6.568,easy
1345.000,288.600,69.950,14.580,1235.000,213.500,48.900,9.703,171.300,33.320,7.971,2.448,316.600,75.800,20.950,6.616,easy
1347.000,288.400,70.060,14.650,1235.000,213.300,49.020,9.715,171.500,33.520,7.924,2.443,320.200,76.660,21.070,6.635,easy
1350.000,288.000,70.740,14.760,1242.000,214.100,48.960,9.765,172.900,33.680,8.010,2.464,326.600,78.090,21.300,6.741,easy
1354.000,290.200,71.250,14.820,1237.000,214.400,49.040,9.728,176.000,34.270,8.095,2.486,330.600,79.140,21.830,6.850,easy
1359.000,291.900,71.260,14.910,1241.000,215.600,49.320,9.852,176.600,34.680,8.139,2.482,334.700,80.970,22.070,6.941,easy
1364.000,293.600,71.720,15.030,1238.000,214.400,49.180,9.804,176.900,34.590,8.170,2.524,333.900,79.770,21.590,6.740,easy
1356.000,289.400,70.580,14.690,1234.000,214.100,49.030,9.709,175.100,34.160,7.973,2.437,316.400,74.940,20.720,6.545,easy
1347.000,287.200,70.670,14.520,1237.000,213.200,48.980,9.675,170.200,33.050,7.899,2.415,312.500,74.110,20.470,6.453,easy
1343.000,287.700,70.030,14.560,1236.000,213.900,49.010,9.695,171.400,33.460,7.846,2.425,310.400,74.330,20.580,6.494,easy
1344.000,287.600,70.140,14.640,1235.000,213.900,49.070,9.763,173.300,33.130,7.864,2.422,312.200,74.260,20.580,6.501,easy
1344.000,287.500,69.970,14.620,1233.000,213.500,49.040,9.747,172.400,33.240,7.951,2.447,314.300,75.030,20.610,6.549,easy
1346.000,290.400,70.300,14.650,1237.000,213.900,49.120,9.785,170.000,33.610,7.945,2.456,319.200,76.350,20.950,6.639,easy
1350.000,288.500,70.430,14.730,1238.000,213.700,49.200,9.765,174.200,33.670,8.000,2.460,324.000,77.600,21.340,6.739,easy
1354.000,291.700,71.200,14.820,1243.000,214.500,49.340,9.829,172.800,33.980,8.047,2.474,329.900,78.970,21.720,6.855,easy
1359.000,294.300,71.360,14.950,1239.000,215.600,49.450,9.844,177.800,34.030,8.139,2.494,334.900,80.470,22.100,6.926,easy
1365.000,294.100,71.850,15.030,1244.000,215.900,49.590,9.851,177.800,34.640,8.161,2.519,340.400,81.920,22.380,7.010,easy
1370.000,293.100,71.520,14.990,1246.000,215.100,49.320,9.793,177.200,34.690,8.138,2.484,323.600,76.570,21.110,6.639,easy
1357.000,288.500,70.960,14.770,1238.000,215.200,49.200,9.764,171.200,33.550,7.992,2.450,312.500,74.430,20.490,6.520,easy
1350.000,288.500,70.360,14.640,1237.000,213.500,49.130,9.759,173.600,33.210,7.872,2.440,308.400,73.920,20.410,6.518,easy
1347.000,287.500,70.420,14.750,1235.000,213.700,49.300,9.727,170.600,33.020,7.943,2.433,311.200,74.250,20.610,6.487,easy
1348.000,289.000,70.390,14.690,1236.000,214.100,49.200,9.742,169.300,32.880,7.910,2.426,312.000,74.340,20.530,6.531,easy
1347.000,288.200,70.740,14.740,1237.000,214.300,49.260,9.804,169.300,33.350,7.899,2.452,314.600,75.190,20.860,6.599,easy
1350.000,289.500,70.850,14.800,1242.000,214.600,49.560,9.836,171.900,33.550,7.946,2.450,319.600,76.580,21.160,6.654,easy
