A-DC1,A-DC2,A-DC3,A-DC4,A-DC5,A-DC6,A-DC7,A-DC8,B-DC1,B-DC2,B-DC3,B-DC4,B-DC5,B-DC6,B-DC7,B-DC8,condition
1427.000,348.900,85.670,19.750,1370.000,276.800,71.350,17.970,329.000,82.810,22.840,6.992,518.800,134.800,38.450,11.050,baseline
1432.000,351.100,86.060,19.790,1373.000,277.700,71.440,18.060,330.800,82.920,22.930,7.009,519.900,135.100,38.440,11.110,baseline
1436.000,353.600,86.890,19.990,1375.000,279.100,71.800,18.190,329.800,82.910,22.940,7.034,521.300,135.500,38.760,11.190,baseline
1442.000,353.100,87.700,20.140,1380.000,279.800,72.120,18.240,331.900,83.190,23.030,7.059,522.400,136.200,38.970,11.250,baseline
1449.000,355.500,88.020,20.270,1385.000,280.600,72.670,18.320,332.500,83.410,23.070,7.079,524.400,136.800,39.150,11.290,baseline
1457.000,360.500,89.100,20.490,1386.000,282.300,72.750,18.390,333.400,83.700,23.130,7.109,525.400,137.100,39.340,11.350,baseline
1464.000,361.700,89.750,20.720,1388.000,283.200,73.110,18.470,332.500,83.830,23.170,7.118,528.100,138.000,39.540,11.420,baseline
1466.000,360.500,88.900,20.390,1385.000,280.600,72.560,18.290,332.200,83.880,23.070,7.056,524.300,136.300,38.730,11.150,baseline
1448.000,354.400,87.260,20.030,1380.000,279.100,72.330,18.240,329.000,83.090,22.920,7.019,521.800,135.500,38.560,11.070,baseline
1442.000,352.600,86.900,19.870,1379.000,278.800,72.190,18.230,329.300,83.010,22.930,6.999,521.300,134.800,38.400,11.070,baseline
1437.000,351.900,86.890,19.880,1380.000,278.900,72.220,18.240,329.800,83.370,22.920,7.026,522.100,135.000,38.490,11.050,baseline
1436.000,352.500,86.800,19.880,1379.000,278.900,72.100,18.300,331.700,83.070,22.930,7.022,522.100,135.400,38.580,11.070,baseline
1434.000,350.800,86.890,19.900,1378.000,278.300,71.920,18.310,334.300,83.190,22.920,7.040,522.100,135.500,38.680,11.110,baseline
1439.000,351.600,87.220,20.050,1386.000,279.600,72.350,18.350,332.300,83.240,22.950,7.049,524.400,136.100,38.720,11.210,baseline
1444.000,353.900,87.700,20.170,1389.000,279.800,72.360,18.460,330.900,83.290,23.030,7.070,524.600,136.700,38.970,11.260,baseline
1451.000,357.200,88.020,20.340,1390.000,281.400,72.610,18.490,333.200,83.450,23.060,7.074,526.700,136.800,39.120,11.270,baseline
1455.000,358.700,88.600,20.510,1391.000,282.900,73.060,18.660,333.100,83.780,23.100,7.081,528.400,137.500,39.270,11.350,baseline
1461.000,358.900,89.140,20.690,1395.000,283.600,73.580,18.670,334.700,84.230,23.160,7.107,529.300,138.000,39.470,11.410,baseline
1470.000,361.400,89.840,20.850,1400.000,284.400,73.800,18.800,335.900,83.930,23.200,7.129,531.200,138.800,39.750,11.490,baseline
1479.000,364.600,90.620,21.030,1406.000,286.000,74.330,18.890,333.100,84.510,23.290,7.136,534.200,139.000,39.970,11.560,baseline
1487.000,367.000,91.500,21.230,1410.000,287.100,74.260,18.810,335.800,84.480,23.390,7.150,535.600,139.700,39.890,11.490,baseline
1486.000,364.700,90.080,20.750,1407.000,284.400,73.600,18.610,337.300,83.890,23.200,7.088,530.600,137.900,39.250,11.300,baseline
1468.000,358.400,88.860,20.380,1404.000,283.700,73.230,18.540,334.600,83.870,23.120,7.090,531.500,137.600,39.200,11.280,baseline
1461.000,357.100,88.220,20.350,1402.000,283.300,73.230,18.530,335.200,83.640,23.120,7.089,530.400,137.500,39.240,11.300,baseline
1458.000,357.800,88.520,20.290,1400.000,283.500,73.090,18.470,334.700,84.100,23.180,7.103,529.300,137.900,39.230,11.340,baseline
1458.000,357.400,88.470,20.300,1398.000,283.700,73.100,18.490,337.100,84.270,23.270,7.121,530.000,138.100,39.410,11.370,baseline
1460.000,357.900,88.520,20.380,1399.000,284.000,73.300,18.530,335.200,84.150,23.250,7.113,531.100,138.100,39.460,11.410,baseline
1463.000,357.800,88.790,20.490,1404.000,285.000,73.340,18.540,334.000,84.060,23.240,7.136,532.000,138.300,39.720,11.470,baseline
1464.000,360.800,89.510,20.580,1402.000,285.200,73.510,18.620,334.700,83.880,23.250,7.137,533.100,138.900,39.750,11.490,baseline
1470.000,362.300,89.910,20.750,1398.000,284.600,73.780,18.650,335.300,84.220,23.270,7.139,533.300,139.100,39.860,11.560,baseline
1474.000,363.300,90.140,20.950,1406.000,285.300,73.940,18.750,334.600,84.280,23.320,7.153,535.300,139.400,40.110,11.590,baseline
1480.000,366.100,91.430,21.110,1405.000,285.800,74.150,18.820,333.600,84.430,23.350,7.165,537.600,140.400,40.310,11.690,baseline
1485.000,368.800,91.440,21.350,1411.000,287.000,74.570,18.900,334.500,84.570,23.400,7.188,539.000,140.800,40.630,11.750,baseline
1493.000,370.100,92.360,21.460,1409.000,286.700,74.210,18.810,335.200,84.450,23.420,7.179,540.200,140.400,40.290,11.630,baseline
1481.000,364.400,90.450,20.770,1406.000,285.200,73.700,18.650,335.000,83.780,23.260,7.103,533.700,138.500,39.620,11.450,baseline
1470.000,361.900,89.800,20.690,1404.000,284.500,73.510,18.600,332.500,84.010,23.140,7.080,532.600,138.400,39.570,11.430,baseline
1467.000,361.000,89.070,20.590,1403.000,283.900,73.580,18.620,332.900,83.960,23.100,7.083,532.300,138.000,39.460,11.420,baseline
1466.000,361.900,89.610,20.590,1408.000,285.400,73.680,18.610,333.700,83.810,23.140,7.088,532.500,138.200,39.540,11.440,baseline
1468.000,360.500,89.450,20.660,1406.000,284.000,73.610,18.710,334.900,83.540,23.200,7.084,533.200,138.400,39.650,11.460,baseline
1470.000,362.300,89.950,20.760,1404.000,285.800,73.970,18.670,332.300,84.000,23.240,7.088,533.300,139.200,39.790,11.530,baseline
1473.000,364.200,90.740,20.880,1406.000,286.100,74.170,18.690,333.400,84.190,23.190,7.116,535.500,139.200,39.980,11.570,baseline
1477.000,364.300,90.720,20.990,1409.000,285.900,73.950,18.760,333.200,83.950,23.250,7.117,536.000,139.600,40.010,11.580,baseline
1479.000,365.900,91.160,21.150,1410.000,286.300,74.160,18.850,335.400,84.040,23.250,7.149,536.600,139.900,40.190,11.670,baseline
1487.000,368.500,91.800,21.270,1413.000,286.900,74.250,18.850,335.700,84.310,23.350,7.152,538.900,140.800,40.440,11.730,baseline
1491.000,370.600,92.070,21.480,1412.000,286.900,74.430,18.890,333.200,84.440,23.340,7.156,540.800,140.900,40.610,11.790,baseline
1496.000,373.100,92.740,21.640,1412.000,287.900,74.860,19.010,334.300,84.390,23.360,7.182,542.500,141.800,40.810,11.860,baseline
1503.000,374.700,93.820,21.720,1419.000,288.100,74.540,18.870,335.100,84.740,23.420,7.182,541.800,141.100,40.450,11.730,baseline
1492.000,369.800,91.610,21.130,1408.000,286.000,73.840,18.690,334.200,83.960,23.170,7.086,536.300,139.000,39.830,11.520,baseline
1478.000,365.100,90.820,20.920,1408.000,284.700,73.780,18.630,332.400,83.690,23.120,7.063,533.400,138.600,39.720,11.450,baseline
1474.000,362.800,90.460,20.790,1406.000,284.700,73.790,18.580,332.900,83.450,23.070,7.054,533.800,138.500,39.670,11.460,baseline
1472.000,361.600,90.210,20.730,1404.000,284.000,73.400,18.570,335.200,83.660,23.070,7.060,533.800,138.400,39.610,11.440,baseline
1469.000,361.500,89.860,20.800,1403.000,284.000,73.610,18.580,334.000,83.710,23.040,7.059,534.100,138.400,39.590,11.460,baseline
1470.000,363.100,90.580,20.870,1401.000,284.000,73.700,18.580,331.900,83.280,23.080,7.069,534.600,138.700,39.720,11.510,baseline
1473.000,364.000,90.700,20.950,1404.000,284.200,73.450,18.600,335.000,83.600,23.100,7.062,535.100,139.000,39.890,11.540,baseline
1477.000,366.300,90.640,20.960,1404.000,284.200,73.680,18.620,332.900,83.920,23.150,7.075,535.300,139.200,39.970,11.570,baseline
1481.000,366.500,91.340,21.140,1409.000,285.400,74.010,18.680,332.600,83.930,23.120,7.085,536.400,139.600,40.120,11.600,baseline
1486.000,367.700,92.040,21.330,1412.000,286.000,74.120,18.710,333.600,83.600,23.150,7.091,536.900,140.200,40.290,11.680,baseline
1492.000,371.500,92.100,21.450,1413.000,286.500,74.360,18.800,332.800,84.000,23.200,7.082,538.800,140.500,40.410,11.720,baseline
1499.000,372.800,93.140,21.680,1417.000,287.500,74.720,18.900,334.500,84.120,23.200,7.097,540.200,141.300,40.540,11.810,baseline
1507.000,376.700,94.330,21.900,1419.000,288.300,74.840,18.920,334.500,83.760,23.280,7.112,542.000,141.600,40.780,11.850,baseline
1509.000,373.200,93.210,21.580,1415.000,286.700,73.910,18.730,334.200,84.130,23.170,7.076,537.400,139.900,39.950,11.550,baseline
1492.000,369.600,91.300,21.150,1407.000,286.300,74.030,18.610,334.200,83.290,22.980,7.025,533.600,138.700,39.710,11.470,baseline
1486.000,367.100,91.130,20.980,1411.000,285.300,73.720,18.580,332.600,83.080,22.980,7.008,533.200,138.600,39.580,11.420,baseline
1481.000,366.100,90.460,20.940,1408.000,285.800,73.790,18.530,331.700,83.090,22.960,6.995,532.700,138.200,39.490,11.430,baseline
1480.000,364.900,90.830,20.960,1409.000,285.500,73.940,18.600,332.200,83.010,22.950,7.007,531.400,138.200,39.510,11.440,baseline
1480.000,367.400,90.970,20.900,1411.000,285.200,74.060,18.630,332.100,83.340,22.970,7.017,531.500,138.400,39.650,11.470,baseline
1482.000,368.100,91.060,21.070,1410.000,286.300,73.960,18.630,331.600,83.370,23.000,7.040,532.500,138.800,39.680,11.510,baseline
1486.000,369.300,91.440,21.230,1407.000,285.600,74.040,18.680,332.000,83.260,22.990,7.023,533.200,139.200,39.810,11.560,baseline
1488.000,369.400,92.030,21.240,1413.000,286.100,74.020,18.700,331.300,83.370,22.980,7.051,534.700,139.300,39.960,11.590,baseline
1493.000,372.000,92.570,21.390,1417.000,287.000,74.230,18.780,332.800,83.280,23.050,7.057,534.600,139.600,40.050,11.630,baseline
1498.000,373.300,92.700,21.550,1412.000,288.000,74.270,18.800,330.500,83.720,23.100,7.052,536.400,140.000,40.280,11.690,baseline
1504.000,375.500,93.830,21.750,1414.000,288.000,74.910,18.810,333.300,83.530,23.160,7.092,537.400,140.800,40.430,11.740,baseline
1510.000,375.600,93.570,21.660,1418.000,287.700,74.550,18.670,333.600,83.640,23.080,7.052,535.900,139.700,39.910,11.530,baseline
1495.000,370.200,92.290,21.220,1412.000,286.100,73.810,18.580,332.000,83.100,22.900,6.972,530.900,138.300,39.530,11.420,baseline
1488.000,367.600,91.620,21.060,1410.000,285.500,74.110,18.530,329.000,83.130,22.880,6.975,530.500,137.700,39.430,11.390,baseline
1483.000,367.900,90.900,20.950,1405.000,285.500,73.910,18.580,330.800,82.730,22.870,6.973,529.600,137.500,39.390,11.390,baseline
1483.000,367.000,91.070,20.930,1405.000,285.300,73.800,18.520,328.300,82.820,22.920,6.974,529.000,137.300,39.300,11.370,baseline
1483.000,367.300,90.660,20.960,1408.000,286.000,73.890,18.580,330.400,82.640,22.830,6.984,529.400,137.800,39.380,11.420,baseline
1485.000,368.600,91.480,21.140,1410.000,286.700,73.990,18.640,331.600,82.930,22.880,6.976,529.900,138.000,39.500,11.430,baseline
1487.000,369.700,91.660,21.220,1408.000,286.700,73.840,18.640,330.400,82.800,22.890,6.996,531.500,138.500,39.610,11.470,baseline
1490.000,371.900,92.210,21.250,1413.000,286.800,74.130,18.700,330.400,82.690,22.920,6.996,531.700,139.000,39.660,11.510,baseline
1494.000,371.900,92.530,21.370,1411.000,286.800,74.510,18.730,330.700,82.940,22.940,7.029,532.200,139.000,39.790,11.590,baseline
1499.000,373.400,93.240,21.520,1420.000,289.100,74.680,18.800,328.800,83.080,22.950,7.033,534.500,139.700,40.040,11.620,baseline
1505.000,375.500,93.650,21.620,1418.000,287.300,74.480,18.750,332.600,83.170,23.040,7.049,535.000,139.500,39.800,11.490,baseline
1497.000,370.200,91.970,21.130,1413.000,286.900,74.050,18.570,330.800,82.790,22.870,6.968,528.300,137.500,39.300,11.320,baseline
1487.000,368.200,91.140,20.940,1410.000,285.100,73.870,18.580,328.700,82.740,22.790,6.946,526.700,137.200,39.050,11.270,baseline
1482.000,368.500,90.590,20.810,1406.000,285.900,73.640,18.530,326.800,82.460,22.700,6.939,525.400,136.500,38.970,11.260,baseline
1479.000,366.500,91.010,20.810,1407.000,285.600,73.820,18.540,325.400,82.170,22.730,6.936,524.600,136.400,38.960,11.240,baseline
1479.000,365.800,90.720,20.810,1408.000,285.000,73.810,18.570,328.400,82.260,22.710,6.927,524.600,136.200,38.970,11.270,baseline
1479.000,365.800,90.810,20.930,1408.000,285.600,73.790,18.570,327.300,82.290,22.700,6.945,525.000,136.800,39.120,11.290,baseline
1480.000,368.100,91.010,20.930,1403.000,286.100,73.940,18.660,329.200,82.330,22.770,6.952,525.400,137.000,39.060,11.310,baseline
1483.000,368.900,91.340,21.070,1409.000,287.000,73.980,18.620,327.900,82.370,22.820,6.958,526.100,137.300,39.180,11.340,baseline
1486.000,369.100,91.830,21.210,1413.000,287.400,74.180,18.720,328.100,82.610,22.830,6.964,527.200,137.700,39.360,11.390,baseline
1490.000,371.500,92.310,21.280,1411.000,287.600,74.400,18.800,329.000,82.710,22.880,6.989,528.200,137.900,39.490,11.460,baseline
1495.000,371.700,92.620,21.420,1415.000,287.700,74.570,18.800,328.600,82.980,22.900,7.005,528.500,138.600,39.690,11.510,baseline
1501.000,375.700,93.450,21.590,1420.000,288.400,74.530,18.850,330.100,82.720,22.960,7.018,531.200,138.600,39.610,11.490,baseline
1499.000,371.200,92.130,21.160,1408.000,287.100,74.120,18.580,329.000,82.800,22.730,6.956,526.800,136.400,38.960,11.230,baseline
1485.000,367.900,90.790,20.870,1404.000,286.900,73.930,18.540,326.900,82.200,22.660,6.909,523.500,135.800,38.650,11.170,baseline
1478.000,366.300,90.350,20.660,1407.000,286.300,73.720,18.560,327.600,82.010,22.670,6.900,521.200,135.500,38.510,11.120,baseline
1474.000,365.600,90.220,20.680,1404.000,284.900,73.690,18.560,327.400,82.010,22.660,6.911,521.000,135.100,38.510,11.150,baseline
1472.000,364.000,90.030,20.690,1403.000,285.400,73.780,18.530,326.900,81.910,22.650,6.915,520.700,135.500,38.500,11.140,baseline
1472.000,365.500,90.250,20.750,1407.000,286.100,73.780,18.660,326.100,81.980,22.610,6.911,520.100,135.300,38.570,11.180,baseline
1474.000,365.800,90.490,20.810,1404.000,285.600,73.930,18.590,324.700,82.320,22.690,6.931,521.500,135.700,38.740,11.200,baseline
1476.000,365.500,90.800,20.930,1410.000,285.900,73.920,18.660,328.300,82.130,22.700,6.940,521.900,136.200,38.820,11.230,baseline
1480.000,368.600,90.800,20.960,1408.000,286.900,74.220,18.750,328.000,82.270,22.780,6.958,523.200,136.400,38.920,11.300,baseline
1483.000,369.100,91.340,21.070,1409.000,287.000,74.270,18.780,324.700,82.670,22.800,6.963,523.400,136.700,39.080,11.330,baseline
1488.000,371.300,91.940,21.290,1408.000,288.400,74.600,18.880,326.400,82.830,22.840,6.982,525.200,137.300,39.300,11.420,baseline
1495.000,372.400,92.560,21.390,1416.000,288.300,74.800,18.910,327.700,82.810,22.930,6.998,527.000,137.600,39.520,11.430,baseline
1501.000,375.500,92.950,21.620,1415.000,289.600,74.990,19.000,328.200,83.030,22.950,7.017,529.700,138.300,39.610,11.520,baseline
1509.000,377.500,94.050,21.810,1418.000,289.000,75.100,18.920,330.200,83.170,23.040,7.038,529.600,138.500,39.590,11.440,baseline
1503.000,372.000,92.450,21.270,1414.000,287.200,74.500,18.680,327.300,82.900,22.790,6.974,523.900,136.000,38.780,11.210,baseline
1488.000,369.700,91.500,20.980,1412.000,286.800,74.100,18.710,328.000,82.420,22.750,6.948,522.500,135.700,38.650,11.160,baseline
1483.000,367.700,90.660,20.800,1413.000,286.200,74.230,18.680,326.400,82.530,22.710,6.937,520.300,135.200,38.550,11.120,baseline
1482.000,367.100,90.890,20.860,1413.000,287.000,74.010,18.670,327.800,82.480,22.690,6.951,519.600,135.300,38.550,11.130,baseline
1481.000,366.700,90.540,20.730,1412.000,286.900,74.140,18.700,327.300,82.260,22.730,6.932,520.100,135.300,38.500,11.130,baseline
1480.000,368.000,90.750,20.880,1411.000,287.400,74.170,18.720,329.700,82.560,22.740,6.957,521.100,135.700,38.710,11.170,baseline
1483.000,368.500,91.050,20.980,1414.000,286.200,74.290,18.710,327.900,82.470,22.810,6.960,521.800,136.100,38.750,11.230,baseline
1486.000,368.600,91.390,21.100,1414.000,288.000,74.520,18.810,326.100,82.370,22.820,6.970,521.600,135.900,38.910,11.250,baseline
1490.000,370.000,91.840,21.170,1413.000,287.200,74.690,18.850,327.100,82.590,22.850,6.969,523.000,136.600,39.080,11.300,baseline
1495.000,370.500,92.290,21.340,1416.000,289.100,75.000,18.860,326.400,82.660,22.930,7.005,525.500,137.200,39.190,11.360,baseline
1500.000,374.500,92.670,21.520,1420.000,289.400,75.180,18.950,331.800,83.000,22.990,7.017,526.500,137.800,39.390,11.450,baseline
1507.000,375.500,93.610,21.650,1420.000,290.300,75.330,19.000,330.400,83.270,23.020,7.045,528.400,138.200,39.670,11.480,baseline
1513.000,378.500,94.320,21.850,1422.000,290.100,75.490,19.120,330.500,83.560,23.110,7.070,529.300,138.800,39.810,11.560,baseline
1520.000,379.000,94.570,21.920,1426.000,289.900,75.290,18.940,331.600,83.660,23.160,7.088,529.800,138.500,39.540,11.420,baseline
1510.000,374.900,92.920,21.340,1423.000,288.200,74.920,18.820,328.800,82.910,22.980,6.996,524.400,136.500,38.920,11.230,baseline
1498.000,371.200,91.820,21.150,1420.000,287.400,74.740,18.770,328.300,82.970,22.940,6.986,523.500,136.200,38.850,11.190,baseline
1494.000,372.200,91.620,21.040,1418.000,287.800,74.480,18.700,329.700,82.770,22.800,6.980,522.200,136.300,38.750,11.170,baseline
1493.000,371.400,91.610,21.070,1419.000,287.800,74.620,18.730,329.800,82.570,22.870,6.994,521.700,136.200,38.760,11.170,baseline
1493.000,370.400,91.970,21.070,1413.000,287.900,74.560,18.720,327.600,82.880,22.870,6.996,522.100,136.200,38.820,11.220,baseline
1496.000,370.600,92.160,21.120,1421.000,288.300,74.780,18.750,327.500,82.880,22.920,7.009,524.200,136.700,38.960,11.280,baseline
1500.000,372.600,92.590,21.290,1418.000,288.300,74.920,18.820,329.300,83.060,22.970,7.018,525.900,136.900,39.190,11.310,baseline
1505.000,374.400,92.930,21.410,1426.000,289.100,74.950,18.910,330.400,83.180,23.040,7.042,526.300,137.600,39.270,11.400,baseline
1508.000,375.700,92.900,21.550,1422.000,290.400,75.120,18.890,330.800,83.290,23.090,7.076,527.400,137.900,39.600,11.430,baseline
1515.000,376.900,93.630,21.680,1429.000,291.100,75.600,18.940,329.700,83.480,23.170,7.070,528.800,138.500,39.770,11.490,baseline
1522.000,379.700,94.740,21.870,1430.000,291.600,75.670,19.070,332.200,83.760,23.300,7.104,531.800,138.800,40.060,11.580,baseline
1527.000,382.500,95.430,22.050,1434.000,292.100,76.310,19.130,331.400,83.920,23.360,7.138,532.000,139.500,40.090,11.650,baseline
1536.000,384.800,95.780,22.150,1436.000,292.800,75.900,19.030,332.500,84.310,23.350,7.142,532.500,139.700,40.050,11.510,baseline
1530.000,381.000,94.020,21.630,1426.000,290.500,75.190,18.790,331.700,83.630,23.210,7.074,527.500,137.700,39.470,11.350,baseline
1517.000,376.900,93.250,21.380,1428.000,290.600,75.130,18.820,331.700,83.350,23.180,7.050,527.900,137.400,39.390,11.290,baseline
1514.000,373.700,92.770,21.280,1427.000,290.000,74.990,18.820,329.900,83.660,23.140,7.047,526.200,137.100,39.120,11.300,baseline
1512.000,375.100,93.230,21.280,1427.000,290.000,75.100,18.770,331.900,83.600,23.140,7.068,526.400,137.300,39.210,11.300,baseline
1511.000,375.400,92.640,21.330,1426.000,289.900,74.950,18.800,329.800,83.610,23.150,7.059,526.900,137.400,39.340,11.280,baseline
1513.000,375.900,92.730,21.420,1423.000,290.400,75.210,18.770,331.600,83.720,23.220,7.075,527.700,137.700,39.510,11.390,baseline
1516.000,376.200,93.130,21.540,1428.000,290.900,75.300,18.880,332.100,83.680,23.330,7.099,528.700,138.400,39.660,11.430,baseline
1522.000,378.700,93.560,21.620,1426.000,291.800,75.540,18.880,333.000,83.880,23.300,7.114,529.200,138.500,39.700,11.490,baseline
1526.000,380.300,94.610,21.820,1432.000,292.100,75.700,18.970,331.800,84.230,23.380,7.138,530.900,139.000,39.900,11.530,baseline
1530.000,380.500,94.890,21.910,1434.000,292.100,75.890,19.010,333.500,83.930,23.460,7.173,533.200,139.300,40.120,11.610,baseline
1536.000,384.700,95.130,22.040,1435.000,293.300,76.070,19.030,330.900,84.220,23.490,7.167,533.400,139.600,40.300,11.660,baseline
1541.000,386.000,95.590,21.960,1431.000,292.100,75.580,18.840,332.300,84.300,23.520,7.146,531.700,139.100,39.770,11.450,baseline
1526.000,378.900,93.800,21.460,1426.000,290.400,75.070,18.730,333.700,83.500,23.270,7.089,527.400,137.200,39.370,11.360,baseline
1519.000,376.800,92.460,21.280,1424.000,290.800,74.860,18.730,330.900,83.510,23.220,7.071,526.400,137.000,39.350,11.280,baseline
1513.000,375.500,92.570,21.270,1422.000,290.200,74.710,18.650,329.900,83.330,23.190,7.067,525.700,136.700,39.200,11.290,baseline
1512.000,372.600,92.720,21.160,1420.000,289.600,74.880,18.650,332.100,83.390,23.270,7.071,524.600,136.700,39.140,11.280,baseline
1511.000,376.000,92.590,21.240,1426.000,289.600,74.920,18.680,332.600,83.350,23.250,7.087,525.400,136.900,39.240,11.300,baseline
1514.000,376.900,92.490,21.320,1420.000,289.800,74.850,18.700,330.200,83.690,23.310,7.104,526.600,137.300,39.420,11.350,baseline
1516.000,376.500,92.820,21.410,1421.000,290.300,75.020,18.730,329.000,83.760,23.320,7.128,527.600,137.800,39.560,11.370,baseline
1519.000,377.800,93.040,21.500,1423.000,289.600,74.960,18.730,332.600,83.960,23.360,7.121,528.500,138.100,39.620,11.460,baseline
1522.000,379.700,93.600,21.650,1423.000,290.500,75.170,18.800,333.300,84.070,23.360,7.138,529.700,138.700,39.760,11.480,baseline
1527.000,380.800,94.010,21.690,1420.000,290.400,75.420,18.840,332.100,84.020,23.430,7.154,529.900,139.000,39.840,11.540,baseline
1532.000,383.800,94.720,21.820,1423.000,291.700,75.520,18.890,331.700,84.040,23.510,7.183,532.500,139.100,40.130,11.590,baseline
1536.000,383.100,94.950,21.770,1423.000,290.500,75.360,18.730,334.000,83.990,23.500,7.162,528.900,138.500,39.680,11.350,baseline
1521.000,376.900,92.800,21.290,1421.000,289.100,74.630,18.620,333.400,83.580,23.250,7.096,525.300,136.700,39.150,11.250,baseline
1513.000,374.300,92.370,21.100,1413.000,287.900,74.630,18.520,330.600,83.520,23.220,7.076,523.900,136.500,39.000,11.200,baseline
1507.000,373.100,92.100,20.990,1412.000,288.300,74.420,18.540,326.700,83.330,23.150,7.073,523.900,136.300,38.860,11.150,baseline
1506.000,374.000,91.710,21.070,1408.000,288.100,74.510,18.550,328.700,83.360,23.200,7.062,523.800,136.100,38.900,11.160,baseline
1506.000,372.900,92.300,21.010,1415.000,287.800,74.450,18.590,329.600,83.660,23.200,7.084,522.300,136.100,39.070,11.170,baseline
1508.000,373.500,92.250,21.150,1413.000,287.900,74.580,18.570,329.500,83.370,23.230,7.078,524.200,136.700,39.120,11.220,baseline
1510.000,375.000,92.380,21.250,1413.000,287.800,74.690,18.640,330.700,83.550,23.260,7.105,524.300,136.700,39.210,11.250,baseline
1513.000,375.200,92.630,21.350,1411.000,288.500,74.910,18.650,330.400,83.660,23.310,7.095,525.200,137.200,39.220,11.320,baseline
1517.000,377.500,93.060,21.430,1416.000,289.500,75.010,18.750,330.800,83.930,23.290,7.112,527.300,137.500,39.320,11.370,baseline
1522.000,378.600,93.920,21.460,1417.000,290.000,75.010,18.730,330.700,84.010,23.330,7.136,528.600,138.100,39.520,11.420,baseline
1527.000,380.800,94.020,21.660,1416.000,290.600,75.210,18.820,329.600,84.180,23.460,7.160,528.800,138.300,39.770,11.500,baseline
1533.000,383.000,94.640,21.840,1422.000,291.300,75.500,18.850,333.100,84.100,23.540,7.158,530.900,139.200,40.040,11.550,baseline
1539.000,384.600,94.930,21.930,1423.000,290.800,75.120,18.710,332.600,84.410,23.550,7.158,531.200,138.600,39.610,11.380,baseline
1527.000,377.200,93.100,21.290,1415.000,288.600,74.400,18.530,331.700,83.700,23.280,7.095,525.500,136.700,39.040,11.220,baseline
1515.000,374.900,91.750,21.090,1413.000,287.700,73.950,18.380,330.200,83.300,23.210,7.073,522.900,136.200,38.910,11.140,baseline
1510.000,373.600,91.060,20.940,1414.000,287.600,73.570,18.340,329.300,83.380,23.170,7.072,522.400,136.000,38.810,11.120,baseline
1509.000,371.000,90.650,20.850,1416.000,286.000,73.100,18.310,329.700,83.370,23.130,7.064,521.700,135.700,38.710,11.140,baseline
1507.000,370.300,90.130,20.860,1410.000,285.100,73.060,18.280,328.000,83.460,23.200,7.053,521.700,135.500,38.860,11.140,baseline
1506.000,371.400,90.430,20.870,1409.000,285.200,73.260,18.280,328.300,83.450,23.130,7.080,521.600,136.000,38.940,11.160,baseline
1508.000,371.800,90.890,20.920,1416.000,285.400,73.080,18.340,330.600,83.320,23.260,7.060,523.400,136.500,39.020,11.220,baseline
1510.000,372.600,90.880,21.100,1413.000,284.600,73.140,18.370,329.300,83.590,23.210,7.082,523.700,136.700,39.110,11.220,baseline
1513.000,375.100,91.250,21.110,1415.000,285.300,73.070,18.350,329.700,83.930,23.270,7.066,524.100,137.100,39.290,11.280,baseline
1518.000,375.800,91.810,21.230,1414.000,286.000,72.880,18.390,327.000,83.680,23.310,7.089,526.300,137.700,39.440,11.350,baseline
1521.000,375.500,91.570,21.400,1410.000,285.700,72.900,18.480,332.700,83.690,23.360,7.097,526.300,138.000,39.530,11.380,baseline
1526.000,375.300,92.390,21.460,1418.000,286.100,73.060,18.470,332.100,83.870,23.390,7.090,530.100,138.000,39.670,11.420,baseline
1531.000,378.300,92.570,21.680,1416.000,286.300,73.130,18.430,330.100,84.200,23.480,7.122,529.200,138.800,39.780,11.380,baseline
1529.000,375.500,91.770,21.270,1413.000,283.900,72.760,18.180,332.300,83.710,23.310,7.054,523.500,137.000,39.050,11.170,baseline
1512.000,373.100,90.580,20.900,1409.000,283.900,72.110,18.130,331.100,83.400,23.180,7.025,523.100,136.700,38.800,11.100,baseline
1508.000,369.900,89.640,20.790,1405.000,282.500,72.380,18.170,330.500,83.500,23.130,7.004,523.300,135.800,38.910,11.110,baseline
1505.000,369.600,90.130,20.760,1407.000,282.800,72.410,18.140,329.600,83.580,23.200,7.003,522.500,136.100,38.800,11.100,baseline
1505.000,367.600,90.300,20.810,1407.000,282.900,72.710,18.190,331.100,83.250,23.180,7.014,522.000,136.200,38.840,11.110,baseline
1507.000,371.100,90.470,20.870,1406.000,283.800,72.840,18.250,330.400,83.540,23.210,7.023,523.300,136.400,39.000,11.150,baseline
1510.000,372.300,91.340,20.950,1416.000,285.200,73.160,18.290,327.900,83.950,23.200,7.021,523.600,136.800,39.150,11.200,baseline
1514.000,374.000,91.230,21.130,1409.000,285.700,73.530,18.410,329.900,83.950,23.260,7.047,524.400,138.000,39.320,11.250,baseline
1518.000,375.700,92.200,21.280,1410.000,286.200,73.750,18.470,328.500,83.900,23.330,7.049,527.000,137.900,39.530,11.310,baseline
1522.000,376.500,93.100,21.430,1413.000,286.400,74.270,18.570,330.500,84.040,23.330,7.105,527.400,138.400,39.650,11.400,baseline
1527.000,378.600,93.700,21.600,1415.000,288.100,74.690,18.590,332.100,84.370,23.420,7.119,529.600,138.700,39.890,11.490,baseline
1533.000,380.400,94.190,21.790,1419.000,289.000,75.100,18.690,331.400,84.580,23.520,7.145,530.400,139.200,40.010,11.570,baseline
1538.000,382.700,94.660,21.900,1419.000,288.100,75.040,18.600,333.100,84.540,23.560,7.169,530.500,139.200,39.870,11.460,baseline
1529.000,378.800,93.190,21.410,1410.000,287.200,74.160,18.490,331.000,83.950,23.410,7.103,527.200,137.500,39.320,11.280,baseline
1516.000,375.400,91.990,21.130,1409.000,286.100,73.970,18.440,330.100,83.890,23.280,7.091,525.500,137.400,39.180,11.280,baseline
1512.000,373.200,91.950,21.150,1410.000,286.300,74.130,18.440,331.200,83.710,23.320,7.093,524.700,137.100,39.270,11.290,baseline
1511.000,374.000,92.260,21.140,1410.000,284.800,73.920,18.430,330.200,83.950,23.320,7.092,523.900,137.000,39.310,11.280,baseline
1509.000,373.800,92.190,21.110,1406.000,285.300,74.140,18.440,332.600,83.890,23.310,7.115,525.000,137.400,39.370,11.320,baseline
1509.000,373.700,92.270,21.250,1407.000,286.200,74.160,18.530,330.500,84.040,23.290,7.114,525.600,137.300,39.440,11.350,baseline
1514.000,375.300,92.820,21.350,1411.000,286.600,74.410,18.550,330.600,83.920,23.370,7.125,528.200,138.100,39.640,11.420,baseline
1517.000,376.300,92.980,21.450,1408.000,286.600,74.530,18.610,331.300,84.130,23.460,7.131,527.100,138.000,39.770,11.450,baseline
1520.000,376.200,93.310,21.490,1410.000,287.500,74.710,18.640,329.900,84.260,23.440,7.149,528.300,138.800,39.890,11.500,baseline
1525.000,377.700,94.020,21.630,1411.000,287.600,74.620,18.710,331.100,84.520,23.480,7.159,530.100,139.100,40.040,11.550,baseline
1530.000,380.600,94.740,21.770,1417.000,288.300,75.090,18.700,331.400,84.660,23.600,7.194,531.800,139.600,40.270,11.610,baseline
1533.000,381.800,94.440,21.710,1408.000,287.500,74.520,18.540,333.700,84.560,23.510,7.165,529.300,138.400,39.660,11.420,baseline
1518.000,375.900,92.060,21.210,1407.000,286.200,73.780,18.370,332.400,83.930,23.340,7.104,525.600,137.400,39.460,11.350,baseline
1499.000,371.000,91.040,20.890,1388.000,281.800,72.800,18.110,330.200,83.750,23.330,7.105,524.600,136.900,39.320,11.290,baseline
1473.000,366.700,89.170,20.470,1369.000,279.200,71.640,17.840,330.700,83.700,23.200,7.085,522.800,136.500,39.250,11.260,baseline
1451.000,359.800,87.990,20.210,1353.000,276.300,71.140,17.670,330.200,83.450,23.170,7.060,521.300,136.200,39.130,11.240,baseline
1439.000,358.300,87.730,20.140,1351.000,275.900,71.160,17.730,327.400,82.970,23.150,7.047,520.100,136.400,39.170,11.270,baseline
1441.000,357.400,88.090,20.220,1348.000,276.300,70.950,17.730,328.100,83.270,23.220,7.063,521.000,136.400,39.210,11.300,baseline
1440.000,357.500,87.620,20.140,1349.000,276.400,70.890,17.680,327.300,82.860,23.230,7.043,520.100,136.000,39.360,11.310,baseline
1440.000,359.700,87.920,20.390,1361.000,279.000,71.260,17.870,328.300,83.040,23.190,7.063,521.500,136.900,39.690,11.410,baseline
1463.000,364.900,88.980,20.640,1375.000,282.900,72.010,18.050,328.700,83.320,23.280,7.109,523.900,137.800,39.770,11.470,baseline
1477.000,370.200,90.360,20.880,1381.000,283.000,72.360,18.100,327.600,83.640,23.370,7.135,525.700,138.400,40.020,11.560,baseline
1483.000,370.300,90.330,20.950,1379.000,283.700,72.510,18.110,329.000,83.840,23.430,7.153,526.700,138.700,40.160,11.600,baseline
1483.000,370.400,89.860,20.760,1376.000,282.400,71.960,17.970,332.500,83.590,23.350,7.104,524.500,137.500,39.640,11.390,baseline
1465.000,365.900,88.420,20.350,1373.000,281.300,71.630,17.920,330.600,83.500,23.230,7.072,522.000,136.500,39.410,11.310,baseline
1458.000,364.100,88.430,20.360,1373.000,281.900,71.720,17.950,330.700,83.030,23.280,7.051,521.600,136.300,39.190,11.250,baseline
1465.000,365.600,88.260,20.400,1378.000,282.800,71.930,17.970,326.400,83.110,23.180,7.060,520.400,136.300,39.250,11.270,baseline
1467.000,365.900,88.430,20.340,1379.000,282.300,71.860,18.000,328.500,83.130,23.230,7.080,520.900,136.400,39.240,11.290,baseline
1461.000,363.400,88.550,20.230,1370.000,282.100,71.720,17.940,328.500,83.340,23.250,7.074,521.100,136.900,39.480,11.330,baseline
1454.000,361.600,87.850,20.260,1363.000,280.900,71.270,17.900,328.500,83.020,23.250,7.104,521.900,137.100,39.500,11.390,baseline
1456.000,364.500,88.580,20.340,1370.000,282.400,71.800,17.940,330.800,83.480,23.380,7.096,523.600,137.300,39.720,11.430,baseline
1461.000,365.200,88.470,20.410,1372.000,281.800,71.760,18.010,330.400,83.640,23.390,7.112,523.100,137.400,39.780,11.470,baseline
1467.000,366.900,88.730,20.560,1380.000,283.900,72.260,18.110,330.700,83.720,23.370,7.133,525.600,138.200,40.090,11.510,baseline
1475.000,368.700,89.320,20.720,1377.000,284.600,72.370,18.090,331.300,83.960,23.380,7.123,525.100,138.000,39.820,11.430,baseline
1469.000,365.500,88.690,20.360,1381.000,283.200,72.130,17.970,330.400,83.570,23.240,7.068,521.000,136.500,39.410,11.300,baseline
1463.000,363.400,88.080,20.220,1378.000,283.100,72.070,18.020,327.500,83.070,23.240,7.059,520.600,136.100,39.280,11.260,baseline
1459.000,362.500,87.860,20.180,1376.000,283.400,72.200,18.050,327.200,82.710,23.200,7.056,520.200,136.000,39.130,11.240,baseline
1459.000,362.500,87.570,20.210,1380.000,283.400,72.160,18.090,326.800,83.170,23.150,7.042,519.400,136.200,39.150,11.300,baseline
1460.000,362.100,88.320,20.270,1380.000,283.500,72.340,18.090,326.700,83.130,23.170,7.077,521.000,136.000,39.190,11.280,baseline
1461.000,362.900,88.500,20.300,1384.000,284.200,72.660,18.150,325.900,83.110,23.190,7.074,519.300,136.400,39.350,11.330,baseline
1464.000,363.800,88.940,20.480,1384.000,285.500,72.730,18.200,328.400,83.160,23.250,7.093,520.900,136.800,39.440,11.370,baseline
1467.000,365.300,89.030,20.480,1386.000,284.700,72.950,18.270,329.400,83.110,23.230,7.082,520.800,137.000,39.590,11.400,baseline
1470.000,367.100,88.910,20.620,1390.000,286.300,73.320,18.310,328.400,83.390,23.250,7.099,522.500,137.500,39.660,11.470,baseline
1476.000,367.400,89.550,20.740,1392.000,286.900,73.430,18.350,329.900,83.350,23.350,7.101,524.200,137.900,39.880,11.500,baseline
1480.000,370.200,90.120,20.900,1399.000,287.100,73.610,18.420,330.000,83.590,23.360,7.128,525.500,138.300,39.910,11.540,baseline
1483.000,370.600,89.820,20.670,1393.000,286.600,73.370,18.250,330.700,83.600,23.300,7.090,523.600,136.900,39.450,11.350,baseline
1468.000,366.900,88.460,20.480,1389.000,285.800,73.010,18.200,328.300,83.130,23.210,7.065,520.400,136.400,39.200,11.300,baseline
1464.000,363.200,88.390,20.360,1391.000,285.800,72.820,18.220,327.400,82.990,23.210,7.056,519.100,136.200,39.170,11.270,baseline
1460.000,363.900,88.060,20.350,1390.000,285.300,72.810,18.230,328.400,82.960,23.200,7.058,519.400,136.200,39.230,11.300,baseline
1460.000,363.500,88.450,20.320,1392.000,285.900,72.720,18.260,328.100,82.920,23.090,7.056,519.900,136.400,39.180,11.290,baseline
1459.000,363.200,88.420,20.330,1388.000,285.900,73.140,18.300,328.400,83.200,23.110,7.073,519.400,136.300,39.300,11.360,baseline
1462.000,363.200,88.670,20.430,1394.000,286.900,73.230,18.290,328.300,83.250,23.260,7.067,521.200,136.800,39.430,11.380,baseline
1466.000,365.600,88.980,20.510,1392.000,287.100,73.220,18.400,330.200,83.060,23.200,7.076,521.200,136.800,39.500,11.430,baseline
1470.000,366.900,89.710,20.650,1401.000,288.600,73.620,18.400,327.900,83.370,23.240,7.086,522.900,137.400,39.680,11.450,baseline
1474.000,368.500,89.610,20.780,1399.000,288.400,73.940,18.440,328.600,83.630,23.320,7.097,523.900,137.800,39.840,11.500,baseline
1480.000,370.200,90.390,20.920,1404.000,289.200,74.040,18.530,328.200,83.630,23.350,7.125,525.000,138.400,40.080,11.600,baseline
1486.000,372.400,90.910,21.110,1407.000,290.800,74.530,18.580,329.900,83.780,23.400,7.140,526.500,138.800,40.140,11.640,baseline
1492.000,374.600,91.700,21.270,1408.000,290.300,74.610,18.640,329.900,83.860,23.490,7.146,528.500,139.600,40.500,11.710,baseline
1499.000,377.300,92.180,21.400,1413.000,291.600,74.750,18.770,330.400,84.260,23.520,7.150,530.800,140.100,40.530,11.760,baseline
1502.000,377.000,91.950,21.170,1411.000,289.800,74.600,18.620,330.900,83.950,23.450,7.147,528.100,138.800,39.960,11.540,baseline
1485.000,369.400,90.540,20.840,1404.000,288.900,74.240,18.520,330.600,83.580,23.280,7.095,524.800,138.000,39.790,11.480,baseline
1480.000,367.600,90.200,20.780,1404.000,288.500,74.150,18.480,329.300,83.610,23.250,7.089,524.200,138.000,39.720,11.470,baseline
1476.000,368.600,90.220,20.720,1402.000,288.100,74.200,18.540,330.800,83.150,23.280,7.106,524.600,137.800,39.620,11.480,baseline
1478.000,368.800,90.810,20.800,1406.000,288.400,74.490,18.560,328.800,83.490,23.310,7.096,525.300,138.100,39.790,11.500,baseline
1478.000,368.100,91.000,20.910,1406.000,289.000,74.580,18.610,331.100,83.560,23.360,7.114,525.600,138.500,39.880,11.540,baseline
1482.000,370.200,91.030,20.980,1409.000,289.200,74.750,18.590,328.300,83.860,23.370,7.126,527.000,139.000,40.110,11.610,baseline
1487.000,372.200,91.560,21.200,1411.000,289.800,75.020,18.720,332.100,83.810,23.440,7.132,529.000,139.300,40.240,11.640,baseline
1491.000,373.700,92.240,21.280,1408.000,290.700,75.340,18.770,331.800,84.270,23.440,7.155,529.100,140.100,40.400,11.730,baseline
1496.000,375.400,92.160,21.470,1413.000,290.400,75.450,18.830,332.400,84.110,23.530,7.167,531.800,140.300,40.600,11.780,baseline
1501.000,377.700,93.010,21.570,1415.000,291.800,75.890,18.930,330.700,84.310,23.530,7.198,533.100,140.700,40.770,11.850,baseline
1507.000,377.300,94.130,21.820,1419.000,292.100,75.940,19.010,333.500,84.580,23.550,7.204,534.600,141.200,40.950,11.900,baseline
1513.000,380.300,94.520,21.970,1419.000,293.100,75.990,19.030,335.100,84.660,23.610,7.217,535.700,142.100,41.130,11.950,baseline
1519.000,382.600,95.300,22.020,1425.000,293.000,76.210,18.980,332.700,84.970,23.700,7.224,538.000,141.900,41.070,11.900,baseline
1512.000,378.200,94.140,21.570,1420.000,292.200,75.650,18.870,334.900,84.180,23.510,7.168,532.800,140.400,40.570,11.740,baseline
1504.000,375.800,93.080,21.480,1420.000,291.200,75.570,18.840,332.100,84.200,23.520,7.167,532.000,140.200,40.520,11.730,baseline
1502.000,375.700,92.990,21.510,1418.000,291.400,75.640,18.860,332.000,84.130,23.430,7.163,532.700,140.400,40.590,11.730,baseline
1503.000,375.600,93.310,21.570,1419.000,291.200,75.740,18.890,332.500,84.280,23.490,7.182,532.100,140.400,40.640,11.770,baseline
1504.000,377.200,93.390,21.570,1422.000,292.300,75.900,18.940,331.600,84.490,23.540,7.184,533.100,140.500,40.770,11.780,baseline
1507.000,378.300,93.970,21.770,1422.000,292.200,76.210,18.950,334.200,84.470,23.630,7.198,534.400,141.100,40.810,11.830,baseline
1512.000,380.300,94.460,21.850,1425.000,292.100,76.160,19.030,333.100,84.410,23.650,7.195,535.900,141.300,41.030,11.900,baseline
1517.000,380.400,94.750,21.930,1425.000,292.100,76.220,19.080,335.900,84.830,23.630,7.218,536.900,141.900,41.130,11.960,baseline
1521.000,382.100,95.560,22.070,1428.000,293.000,76.540,19.110,334.100,84.940,23.740,7.241,537.000,142.600,41.340,12.010,baseline
1526.000,383.100,95.860,22.250,1431.000,293.800,77.020,19.180,333.400,85.180,23.740,7.269,539.500,143.100,41.460,12.060,baseline
1532.000,383.600,96.580,22.390,1433.000,294.200,77.030,19.280,334.600,85.340,23.820,7.279,540.600,143.600,41.610,12.130,baseline
1538.000,386.000,97.150,22.560,1438.000,294.900,77.220,19.210,336.700,85.190,23.850,7.287,541.600,143.900,41.720,12.090,baseline
1536.000,386.000,96.070,22.170,1431.000,293.800,76.370,19.080,334.700,85.100,23.720,7.225,537.900,142.300,41.140,11.920,baseline
1524.000,381.700,95.040,21.930,1425.000,292.900,76.280,19.020,335.100,84.680,23.680,7.214,536.600,141.900,41.200,11.920,baseline
1522.000,380.500,95.020,21.950,1432.000,292.600,76.490,19.050,332.600,84.830,23.660,7.230,537.100,141.900,40.940,11.920,baseline
1522.000,381.700,95.160,21.950,1428.000,292.200,76.440,19.090,334.900,84.800,23.650,7.222,537.500,142.200,41.130,11.940,baseline
1524.000,381.400,95.360,22.030,1432.000,293.100,76.420,19.090,334.600,84.910,23.670,7.222,537.500,142.000,41.190,11.950,baseline
1526.000,381.600,95.200,22.100,1429.000,293.200,76.520,19.160,336.100,84.870,23.720,7.243,538.600,142.400,41.340,12.010,baseline
1530.000,386.100,95.710,22.230,1432.000,294.400,76.870,19.210,333.100,84.960,23.760,7.265,539.700,143.000,41.550,12.070,baseline
1533.000,385.100,96.160,22.310,1436.000,295.300,76.990,19.240,332.600,85.400,23.820,7.279,540.700,143.200,41.640,12.080,baseline
1538.000,387.200,97.100,22.390,1436.000,295.000,77.270,19.340,335.500,85.160,23.840,7.290,542.100,143.500,41.880,12.150,baseline
1542.000,388.500,97.260,22.620,1438.000,296.100,77.330,19.330,334.900,85.140,23.870,7.304,544.000,144.400,41.980,12.230,baseline
1548.000,389.700,97.970,22.730,1438.000,295.800,77.440,19.420,335.700,85.360,23.940,7.304,546.000,145.000,42.160,12.280,baseline
1553.000,392.800,98.470,22.930,1440.000,296.500,77.660,19.450,336.700,85.660,24.010,7.330,547.000,145.400,42.440,12.360,baseline
1559.000,392.400,99.270,23.120,1443.000,297.300,77.760,19.440,336.700,85.940,24.030,7.357,547.200,145.500,42.470,12.310,baseline
1559.000,391.500,98.030,22.740,1441.000,296.500,77.350,19.300,336.400,85.580,23.920,7.299,543.300,143.800,41.670,12.090,baseline
1544.000,388.200,96.790,22.420,1438.000,295.100,77.170,19.200,337.000,85.160,23.760,7.277,541.200,143.500,41.580,12.070,baseline
1540.000,388.000,96.530,22.350,1433.000,294.600,76.810,19.190,334.300,85.040,23.800,7.249,540.200,143.000,41.470,12.050,baseline
1538.000,385.900,96.330,22.300,1434.000,294.900,77.100,19.230,335.700,85.110,23.810,7.288,541.200,143.000,41.510,12.080,baseline
1538.000,385.600,96.140,22.290,1436.000,294.600,76.980,19.200,334.100,85.290,23.820,7.265,541.400,143.200,41.620,12.100,baseline
1538.000,386.600,96.620,22.410,1437.000,294.500,77.000,19.250,336.100,85.320,23.850,7.269,542.000,143.400,41.670,12.100,baseline
1542.000,387.200,96.790,22.520,1434.000,294.900,77.320,19.280,336.000,85.270,23.910,7.281,543.500,143.800,41.870,12.180,baseline
1545.000,386.700,97.440,22.590,1439.000,295.000,77.280,19.340,338.300,85.470,23.920,7.307,543.800,144.500,41.960,12.210,baseline
1549.000,389.700,97.690,22.680,1439.000,294.900,77.350,19.350,335.800,85.670,23.950,7.313,546.000,144.600,42.040,12.250,baseline
1553.000,391.400,98.380,22.810,1443.000,296.000,77.330,19.400,336.100,85.750,23.990,7.332,545.500,145.100,42.260,12.300,baseline
1558.000,393.900,98.890,23.080,1441.000,296.400,77.800,19.500,338.500,85.880,24.050,7.328,548.000,145.400,42.400,12.380,baseline
1564.000,393.300,99.380,23.290,1445.000,296.600,77.990,19.510,336.900,85.750,24.100,7.352,549.200,145.900,42.730,12.400,baseline
1569.000,397.900,99.890,23.350,1446.000,296.900,78.230,19.630,336.500,86.200,24.080,7.369,550.200,146.500,42.860,12.450,baseline
1576.000,400.700,100.500,23.540,1445.000,298.400,78.210,19.490,337.200,85.940,24.160,7.387,551.300,146.800,42.780,12.410,baseline
1570.000,395.900,98.990,22.980,1440.000,296.000,77.430,19.300,336.600,85.790,23.960,7.306,546.000,144.700,42.100,12.170,baseline
1554.000,390.400,97.860,22.700,1440.000,295.000,76.940,19.260,338.400,85.190,23.830,7.286,544.600,144.000,41.810,12.140,baseline
1548.000,389.300,97.210,22.540,1440.000,294.800,77.110,19.220,336.200,85.230,23.810,7.275,542.400,143.700,41.740,12.100,baseline
1545.000,387.200,97.320,22.500,1434.000,293.700,77.010,19.240,337.000,85.300,23.840,7.264,542.500,143.600,41.810,12.110,baseline
1544.000,388.600,97.450,22.500,1435.000,293.600,76.750,19.260,336.500,85.210,23.830,7.276,542.500,143.600,41.700,12.120,baseline
1544.000,388.700,97.340,22.600,1431.000,294.000,77.170,19.280,334.100,85.210,23.830,7.285,542.800,144.200,41.870,12.150,baseline
1547.000,389.400,97.700,22.640,1433.000,294.800,76.930,19.300,337.100,85.100,23.910,7.289,543.100,144.300,42.010,12.180,baseline
1550.000,391.500,98.280,22.800,1436.000,294.400,77.350,19.270,335.600,85.460,23.900,7.305,545.000,144.700,42.090,12.220,baseline
1554.000,391.300,98.550,22.890,1436.000,295.300,77.480,19.370,334.900,85.680,23.920,7.297,545.200,144.900,42.210,12.260,baseline
1557.000,393.800,99.200,23.040,1437.000,295.400,77.410,19.340,338.100,85.320,23.950,7.321,546.100,145.100,42.380,12.350,baseline
1563.000,395.000,99.260,23.100,1440.000,295.700,77.680,19.420,335.600,85.750,23.970,7.323,547.200,146.000,42.580,12.390,baseline
1567.000,397.000,99.790,23.340,1441.000,295.300,77.870,19.460,338.600,85.550,24.040,7.339,548.900,146.600,42.770,12.440,baseline
1573.000,398.100,100.500,23.580,1439.000,296.800,77.940,19.530,338.000,85.540,24.090,7.365,551.600,147.000,43.000,12.510,baseline
1578.000,400.800,100.700,23.400,1439.000,294.900,77.450,19.310,338.700,86.100,24.020,7.326,549.000,145.600,42.320,12.280,baseline
1561.000,393.800,98.590,22.790,1429.000,293.100,77.030,19.190,336.700,85.400,23.800,7.263,543.400,144.100,41.920,12.130,baseline
1550.000,391.900,98.270,22.710,1433.000,293.000,76.740,19.140,333.800,84.900,23.790,7.248,542.500,143.700,41.710,12.100,baseline
1546.000,388.100,97.490,22.580,1428.000,293.000,76.560,19.150,335.700,84.890,23.760,7.246,541.500,143.400,41.660,12.070,baseline
1542.000,388.600,97.370,22.580,1426.000,292.400,76.730,19.170,333.400,84.810,23.770,7.243,540.500,143.500,41.640,12.070,baseline
1541.000,387.900,97.490,22.540,1428.000,292.400,76.590,19.120,335.400,84.760,23.710,7.239,540.600,143.700,41.720,12.050,baseline
1543.000,387.900,97.580,22.710,1425.000,292.600,76.860,19.150,334.600,84.850,23.770,7.243,541.500,143.900,41.850,12.110,baseline
1544.000,388.700,97.790,22.760,1428.000,291.700,76.930,19.190,335.200,84.880,23.710,7.250,541.800,143.700,41.910,12.160,baseline
1546.000,390.900,98.150,22.820,1429.000,292.300,76.870,19.190,334.000,85.030,23.840,7.267,542.900,144.300,42.050,12.180,baseline
1550.000,390.100,98.310,22.860,1431.000,293.300,76.810,19.240,333.200,84.890,23.820,7.261,542.900,144.500,42.050,12.220,baseline
1553.000,392.000,98.930,22.940,1430.000,292.700,76.940,19.260,335.000,85.180,23.810,7.269,545.200,145.200,42.240,12.270,baseline
1558.000,394.800,99.270,23.180,1434.000,293.100,77.220,19.310,335.700,85.260,23.870,7.283,546.100,145.400,42.380,12.320,baseline
1562.000,395.500,99.580,23.270,1433.000,293.000,77.010,19.270,336.700,85.120,23.920,7.287,547.300,145.400,42.350,12.260,baseline
1559.000,393.100,98.620,22.730,1428.000,290.600,76.420,19.090,336.300,84.910,23.780,7.227,541.900,143.400,41.670,12.040,baseline
1541.000,388.100,97.220,22.400,1422.000,290.900,76.340,19.040,332.400,84.570,23.630,7.202,539.100,142.800,41.470,11.970,baseline
1537.000,385.700,96.960,22.330,1417.000,289.400,76.030,18.960,332.600,84.640,23.560,7.191,538.200,142.600,41.350,11.990,baseline
1532.000,386.300,96.830,22.330,1423.000,289.600,75.930,18.950,333.200,84.170,23.630,7.185,537.500,142.200,41.290,11.940,baseline
1530.000,384.200,96.440,22.350,1414.000,289.400,75.930,18.930,331.200,84.420,23.600,7.192,536.800,142.100,41.290,11.950,baseline
1530.000,385.400,96.700,22.360,1417.000,290.000,76.050,18.970,333.600,84.540,23.600,7.186,538.000,142.600,41.430,11.980,baseline
1531.000,385.700,96.570,22.390,1415.000,289.600,75.830,18.960,334.500,84.110,23.650,7.212,538.900,142.800,41.580,12.030,baseline
1534.000,388.700,97.170,22.510,1420.000,290.200,75.980,19.030,331.800,84.370,23.670,7.208,538.200,143.000,41.550,12.030,baseline
1536.000,387.900,97.670,22.610,1418.000,289.800,76.220,19.060,333.500,84.730,23.630,7.237,539.500,143.300,41.650,12.070,baseline
1540.000,389.000,97.550,22.720,1418.000,289.900,76.190,19.110,332.900,84.700,23.720,7.223,542.300,143.700,41.860,12.140,baseline
1544.000,390.600,98.620,22.820,1420.000,291.500,76.440,19.150,333.800,84.730,23.760,7.248,541.900,144.200,41.940,12.200,baseline
1548.000,393.000,98.870,22.990,1422.000,290.900,76.570,19.200,333.900,85.170,23.760,7.262,543.600,144.500,42.170,12.250,baseline
1555.000,394.500,99.470,23.060,1425.000,291.500,76.460,19.010,336.300,85.060,23.850,7.264,543.400,144.300,41.900,12.100,baseline
1545.000,388.800,97.650,22.410,1412.000,288.900,75.800,18.890,332.300,84.200,23.650,7.181,537.600,142.400,41.240,11.930,baseline
1529.000,384.700,96.700,22.180,1409.000,288.400,75.500,18.820,332.300,84.330,23.550,7.163,536.300,141.800,41.070,11.890,baseline
1521.000,382.600,95.710,22.060,1406.000,287.600,75.300,18.810,331.300,84.010,23.510,7.148,534.300,141.400,41.090,11.830,baseline
1516.000,382.800,95.570,22.060,1409.000,287.000,75.390,18.770,330.700,84.210,23.530,7.190,534.600,141.800,41.190,11.910,easy
1519.000,382.700,96.020,22.130,1411.000,287.800,75.420,18.860,330.200,84.160,23.520,7.190,534.700,141.500,41.250,11.910,easy
1521.000,383.800,96.290,22.260,1407.000,288.700,75.610,18.850,332.000,84.370,23.560,7.195,536.100,142.200,41.350,11.990,easy
1524.000,384.500,96.550,22.350,1409.000,287.800,75.700,18.930,334.000,84.530,23.560,7.212,536.300,142.700,41.540,12.020,easy
1528.000,386.300,97.100,22.480,1412.000,288.800,75.700,19.010,334.000,84.380,23.690,7.227,537.700,143.100,41.620,12.080,easy
1533.000,388.600,97.640,22.620,1413.000,289.400,75.790,18.990,332.300,84.350,23.740,7.233,539.900,143.600,41.850,12.110,easy
1537.000,389.000,98.030,22.790,1413.000,289.900,75.960,19.010,334.300,84.670,23.730,7.269,541.500,144.200,41.870,12.110,easy
1537.000,386.300,97.090,22.400,1412.000,287.900,75.280,18.810,333.600,84.290,23.620,7.200,536.100,142.000,41.160,11.860,easy
1519.000,381.800,95.400,22.000,1406.000,287.000,75.010,18.710,332.100,84.100,23.510,7.158,533.400,140.900,40.850,11.770,easy
1512.000,379.400,94.460,21.810,1402.000,285.100,74.710,18.640,330.300,84.090,23.450,7.154,531.900,140.600,40.670,11.750,easy
1505.000,378.700,94.610,21.750,1401.000,286.600,74.970,18.650,330.700,83.930,23.420,7.165,531.500,140.500,40.550,11.720,easy
1503.000,377.200,93.980,21.690,1400.000,285.700,74.810,18.680,332.000,83.930,23.460,7.168,529.900,140.400,40.670,11.740,easy
1502.000,377.500,94.240,21.700,1399.000,286.300,74.670,18.670,328.600,84.120,23.470,7.166,531.400,140.800,40.700,11.770,easy
1503.000,377.700,94.570,21.840,1401.000,285.300,74.820,18.720,331.400,83.880,23.460,7.190,531.000,140.800,40.830,11.790,easy
1505.000,379.400,94.580,21.820,1403.000,286.500,75.120,18.790,332.500,83.980,23.550,7.181,532.400,140.800,40.860,11.860,easy
1508.000,380.400,95.000,21.860,1401.000,286.100,74.970,18.790,329.300,84.030,23.500,7.196,533.000,141.500,40.970,11.840,easy
1511.000,381.500,95.120,22.000,1404.000,286.000,75.130,18.810,330.200,84.290,23.560,7.219,533.800,141.800,41.280,11.910,easy
1514.000,381.400,95.680,22.070,1401.000,286.900,75.190,18.890,331.600,84.430,23.580,7.222,535.800,142.400,41.230,11.960,easy
1519.000,383.200,96.130,22.270,1407.000,288.200,75.670,18.870,332.100,84.570,23.630,7.239,536.900,142.500,41.450,12.010,easy
1525.000,384.600,96.690,22.400,1409.000,288.000,75.540,18.970,333.600,84.550,23.750,7.265,536.900,143.500,41.610,12.070,easy
1531.000,387.000,96.770,22.510,1409.000,288.300,75.480,18.850,331.800,84.580,23.730,7.258,536.000,142.500,41.240,11.900,easy
1517.000,380.800,95.020,21.870,1402.000,285.800,74.980,18.710,331.900,84.190,23.500,7.197,531.500,140.800,40.660,11.740,easy
1505.000,377.100,94.200,21.650,1401.000,285.900,74.860,18.650,332.400,84.010,23.500,7.183,530.200,140.300,40.600,11.720,easy
1498.000,375.900,93.610,21.560,1397.000,284.800,74.530,18.640,330.700,83.800,23.420,7.182,529.600,140.200,40.480,11.670,easy
1494.000,375.300,93.730,21.470,1397.000,284.200,74.390,18.630,331.600,83.760,23.480,7.180,529.100,140.100,40.440,11.690,easy
1492.000,376.000,93.390,21.430,1396.000,284.200,74.540,18.680,331.600,83.830,23.480,7.196,528.400,140.100,40.470,11.690,easy
1494.000,375.600,93.840,21.490,1399.000,285.300,74.460,18.640,329.500,83.900,23.470,7.191,529.700,140.300,40.510,11.720,easy
1495.000,376.600,93.880,21.590,1397.000,285.400,74.640,18.690,329.500,84.140,23.540,7.182,529.700,140.600,40.710,11.770,easy
1498.000,378.400,94.330,21.660,1399.000,284.900,74.450,18.730,329.700,84.060,23.530,7.209,530.000,140.900,40.720,11.780,easy
1500.000,377.800,94.690,21.750,1400.000,285.500,74.880,18.780,331.400,84.210,23.610,7.247,531.100,141.500,40.970,11.840,easy
1505.000,379.300,94.840,21.920,1402.000,286.900,75.250,18.810,329.500,84.470,23.660,7.252,532.400,141.600,41.080,11.890,easy
1510.000,381.200,95.630,22.070,1404.000,287.900,75.380,18.880,333.100,84.470,23.730,7.271,533.100,141.800,41.220,11.930,easy
1514.000,382.100,95.670,22.200,1407.000,287.300,75.490,18.960,331.300,84.480,23.740,7.285,536.000,142.700,41.400,12.000,easy
1521.000,383.800,96.400,22.280,1403.000,288.200,75.590,18.990,332.900,84.990,23.780,7.297,536.400,143.000,41.510,12.070,easy
1526.000,384.800,96.910,22.480,1411.000,288.200,75.710,18.900,334.500,84.890,23.830,7.322,537.600,143.300,41.470,11.990,easy
1520.000,383.000,95.030,21.910,1402.000,286.800,74.810,18.700,335.100,84.770,23.640,7.245,531.500,141.100,40.770,11.770,easy
1501.000,377.600,93.810,21.630,1403.000,285.000,74.420,18.690,330.300,84.300,23.550,7.197,529.900,140.600,40.670,11.700,easy
1495.000,375.200,93.460,21.420,1397.000,284.900,74.580,18.620,332.300,83.850,23.520,7.200,528.000,140.200,40.520,11.690,easy
1491.000,374.200,93.440,21.340,1395.000,284.300,74.350,18.630,330.400,83.980,23.510,7.209,528.800,140.300,40.390,11.690,easy
1489.000,373.800,93.040,21.340,1393.000,283.700,74.280,18.600,331.900,84.280,23.500,7.215,527.900,139.900,40.410,11.690,easy
1488.000,372.300,93.120,21.440,1392.000,283.800,74.540,18.660,329.100,84.050,23.550,7.219,527.500,140.400,40.550,11.720,easy
1490.000,372.600,93.220,21.470,1394.000,285.700,74.560,18.650,332.200,84.220,23.550,7.213,529.300,140.600,40.670,11.760,easy
1492.000,374.200,93.590,21.550,1393.000,285.400,74.620,18.680,331.900,84.310,23.600,7.243,530.000,141.100,40.770,11.790,easy
1493.000,375.800,93.470,21.670,1398.000,285.600,74.780,18.730,331.600,84.720,23.600,7.240,531.100,140.900,40.880,11.830,easy
1499.000,377.700,94.060,21.730,1397.000,286.000,75.130,18.790,331.100,84.560,23.670,7.268,532.100,141.400,41.040,11.900,easy
1505.000,378.100,94.800,21.920,1401.000,286.600,74.970,18.840,333.200,84.620,23.660,7.278,533.600,142.000,41.260,11.950,easy
1509.000,380.400,95.420,22.020,1405.000,287.200,75.110,18.930,333.100,84.640,23.770,7.291,534.900,142.800,41.360,12.010,easy
1515.000,383.000,95.710,22.180,1406.000,287.500,75.430,18.970,333.200,84.950,23.730,7.304,536.200,142.900,41.580,12.070,easy
1519.000,381.300,95.990,22.020,1400.000,287.100,74.870,18.810,334.600,84.840,23.800,7.291,533.800,141.600,41.010,11.820,easy
1502.000,377.000,93.820,21.570,1396.000,286.200,74.430,18.700,330.800,84.410,23.560,7.243,530.200,140.600,40.710,11.740,easy
1495.000,374.100,93.160,21.460,1396.000,284.900,74.480,18.660,330.100,84.200,23.600,7.225,529.500,140.200,40.510,11.690,easy
1489.000,372.600,92.940,21.360,1395.000,284.100,74.200,18.640,332.200,84.210,23.590,7.227,529.200,140.300,40.630,11.700,easy
1487.000,372.200,92.830,21.340,1395.000,284.600,74.200,18.590,331.400,84.230,23.630,7.239,528.900,140.400,40.600,11.710,easy
1486.000,371.800,92.730,21.380,1394.000,284.500,74.440,18.620,328.900,84.210,23.660,7.244,529.100,140.700,40.600,11.730,easy
1487.000,373.300,92.840,21.380,1393.000,284.600,74.430,18.710,331.800,84.410,23.650,7.255,530.100,140.800,40.720,11.780,easy
1491.000,374.100,93.250,21.460,1395.000,284.900,74.550,18.680,333.100,84.500,23.710,7.287,530.600,141.300,40.870,11.810,easy
1493.000,376.300,93.540,21.570,1397.000,284.300,74.650,18.730,330.400,84.580,23.690,7.283,530.600,141.500,40.960,11.850,easy
1496.000,377.500,93.940,21.670,1399.000,285.900,74.720,18.800,330.900,84.760,23.710,7.262,531.700,141.800,41.110,11.900,easy
1501.000,377.100,94.280,21.790,1399.000,286.000,74.930,18.840,333.800,84.720,23.800,7.305,534.400,142.100,41.260,11.970,easy
1504.000,378.400,94.970,21.930,1400.000,286.700,75.060,18.860,335.600,85.100,23.870,7.312,535.200,142.500,41.430,12.010,easy
1510.000,380.700,95.200,21.950,1405.000,286.300,75.040,18.820,335.000,85.150,23.850,7.318,536.400,142.600,41.340,11.920,easy
1505.000,375.600,93.990,21.570,1397.000,284.900,74.480,18.660,330.200,84.570,23.700,7.265,530.700,140.900,40.650,11.730,easy
1492.000,371.900,93.040,21.310,1396.000,284.000,74.260,18.650,332.600,84.180,23.680,7.254,530.500,140.500,40.650,11.730,easy
1487.000,371.800,92.290,21.200,1391.000,283.700,74.270,18.630,331.900,84.400,23.660,7.234,528.300,140.500,40.590,11.700,easy
1483.000,371.100,91.880,21.190,1393.000,283.800,74.080,18.600,330.500,84.230,23.640,7.249,528.400,140.300,40.550,11.680,easy
1482.000,370.900,91.950,21.150,1390.000,283.400,74.260,18.630,331.900,84.370,23.650,7.247,529.000,140.500,40.560,11.730,easy
1482.000,369.700,92.170,21.240,1389.000,283.900,74.330,18.590,330.800,84.330,23.640,7.269,529.400,140.600,40.720,11.760,easy
1484.000,372.900,92.290,21.280,1392.000,283.800,74.420,18.670,330.900,84.510,23.700,7.280,530.000,140.800,40.860,11.790,easy
1486.000,372.700,92.770,21.330,1393.000,282.800,74.290,18.630,332.300,84.570,23.730,7.299,531.800,141.300,40.930,11.860,easy
1490.000,372.200,92.950,21.430,1392.000,285.300,74.430,18.720,331.700,84.650,23.740,7.299,531.700,141.600,41.080,11.860,easy
1494.000,373.200,93.460,21.560,1400.000,285.300,74.740,18.870,332.600,84.780,23.830,7.307,533.800,142.100,41.180,11.930,easy
1498.000,376.400,94.240,21.720,1395.000,284.900,74.820,18.840,332.200,84.990,23.900,7.340,533.800,142.500,41.370,11.970,easy
1504.000,376.500,94.470,21.870,1397.000,285.000,74.810,18.860,332.400,84.940,23.900,7.349,536.200,143.000,41.480,12.060,easy
1508.000,378.900,95.300,22.000,1401.000,286.600,75.110,18.800,333.300,85.170,23.900,7.370,536.800,143.100,41.570,12.010,easy
1505.000,377.300,93.730,21.570,1397.000,284.400,74.410,18.660,334.700,84.800,23.810,7.298,532.400,141.300,40.880,11.830,easy
1489.000,373.400,92.500,21.220,1392.000,283.700,74.220,18.610,331.400,84.390,23.670,7.283,530.800,140.900,40.810,11.740,easy
1483.000,371.500,92.000,21.170,1386.000,283.600,74.130,18.550,331.600,84.400,23.660,7.262,529.800,140.500,40.660,11.720,easy
1478.000,369.500,91.970,21.130,1387.000,282.700,73.830,18.560,332.300,84.360,23.650,7.277,529.400,140.700,40.680,11.760,easy
1478.000,370.100,92.170,21.110,1384.000,282.100,73.910,18.590,331.200,84.740,23.680,7.289,529.500,140.600,40.590,11.720,easy
1477.000,371.000,92.060,21.140,1387.000,283.500,73.970,18.610,333.500,84.490,23.730,7.282,529.900,140.900,40.780,11.800,easy
1479.000,371.200,92.190,21.170,1385.000,282.900,74.050,18.600,332.700,84.610,23.710,7.299,530.900,141.000,40.880,11.850,easy
1480.000,371.900,92.490,21.290,1389.000,283.700,74.080,18.640,333.000,84.490,23.730,7.296,531.300,141.400,41.020,11.860,easy
1482.000,370.900,92.450,21.330,1389.000,283.100,73.960,18.640,333.200,84.780,23.780,7.314,532.700,141.500,41.080,11.890,easy
1485.000,373.200,93.370,21.430,1390.000,283.900,74.350,18.680,333.200,84.600,23.830,7.326,533.100,142.000,41.280,11.950,easy
1491.000,374.600,93.300,21.540,1389.000,283.900,74.380,18.760,332.500,84.750,23.820,7.343,533.600,142.500,41.390,11.970,easy
1495.000,375.000,94.020,21.700,1392.000,284.900,74.540,18.760,332.300,85.140,23.890,7.334,535.100,143.000,41.580,12.040,easy
1499.000,377.100,94.050,21.830,1393.000,285.600,74.740,18.830,335.900,85.140,23.950,7.373,536.700,143.700,41.760,12.100,easy
1506.000,378.200,94.290,21.970,1398.000,286.600,75.100,18.900,335.100,84.980,23.980,7.368,538.500,143.800,41.880,12.150,easy
1512.000,379.900,95.440,22.120,1400.000,285.800,74.910,18.840,334.800,85.130,23.980,7.377,538.500,143.700,41.710,12.070,easy
1505.000,377.500,93.450,21.560,1391.000,284.800,74.290,18.640,333.900,84.890,23.800,7.305,534.300,142.000,41.120,11.880,easy
1491.000,373.300,93.080,21.350,1393.000,283.900,74.230,18.620,332.900,84.500,23.780,7.297,532.500,141.500,40.990,11.850,easy
1487.000,371.100,92.010,21.190,1391.000,283.200,74.130,18.570,331.200,84.440,23.650,7.274,531.800,141.400,41.000,11.830,easy
1482.000,371.300,92.260,21.230,1391.000,283.100,73.860,18.580,331.400,84.750,23.730,7.275,532.400,141.600,40.900,11.860,easy
1483.000,371.100,92.040,21.220,1389.000,283.200,73.880,18.620,332.400,84.710,23.670,7.294,532.900,141.400,41.020,11.850,easy
1482.000,371.400,92.430,21.310,1390.000,283.000,73.950,18.620,331.100,84.630,23.710,7.307,533.500,141.800,41.060,11.930,easy
1484.000,372.300,92.690,21.420,1388.000,283.300,74.140,18.590,333.800,84.710,23.800,7.302,533.300,142.500,41.240,11.980,easy
1486.000,371.400,92.980,21.490,1391.000,284.300,74.290,18.660,334.000,84.850,23.810,7.307,534.800,142.300,41.320,11.980,easy
1490.000,374.200,93.060,21.510,1389.000,284.300,74.130,18.660,333.300,85.110,23.800,7.316,535.100,142.800,41.490,12.010,easy
1495.000,374.200,93.280,21.630,1392.000,284.700,74.390,18.700,333.400,84.840,23.880,7.344,536.300,142.900,41.660,12.080,easy
1497.000,377.500,93.790,21.710,1396.000,284.100,74.850,18.780,334.400,84.990,23.920,7.339,537.500,143.600,41.710,12.120,easy
1503.000,379.100,94.380,21.860,1395.000,285.600,75.210,18.800,333.600,85.080,23.940,7.339,539.500,144.000,41.880,12.160,easy
1508.000,380.400,94.600,22.020,1400.000,286.100,75.060,18.800,336.900,85.020,23.950,7.366,540.300,144.400,41.980,12.180,easy
1510.000,379.000,94.380,21.800,1395.000,285.300,74.320,18.620,333.600,84.990,23.870,7.349,538.100,142.800,41.350,12.000,easy
1494.000,374.500,93.080,21.540,1390.000,283.700,74.160,18.580,333.700,84.820,23.730,7.298,534.500,142.300,41.250,11.930,easy
1489.000,373.900,92.560,21.370,1392.000,283.100,74.080,18.540,333.200,84.520,23.670,7.275,532.100,141.800,41.130,11.910,easy
1485.000,371.500,92.410,21.290,1385.000,282.700,73.910,18.580,334.600,84.450,23.680,7.279,534.200,141.900,41.110,11.910,easy
1485.000,371.200,92.520,21.340,1389.000,282.900,73.830,18.550,331.800,84.320,23.730,7.279,534.500,142.300,41.110,11.920,easy
1485.000,373.000,92.550,21.340,1389.000,283.000,74.000,18.550,332.200,84.410,23.690,7.293,534.200,142.400,41.220,11.950,easy
1484.000,371.700,93.000,21.440,1387.000,283.200,74.020,18.580,333.800,84.830,23.740,7.285,534.800,142.700,41.480,11.970,easy
1488.000,373.300,93.260,21.540,1387.000,283.600,74.110,18.580,333.800,84.550,23.790,7.291,535.000,142.600,41.420,12.000,easy
1490.000,374.800,93.290,21.620,1390.000,283.700,74.390,18.620,333.200,85.000,23.800,7.294,537.000,143.200,41.620,12.080,easy
1494.000,375.200,93.710,21.680,1389.000,283.500,74.340,18.660,334.100,85.140,23.760,7.325,537.800,143.300,41.670,12.080,easy
1497.000,376.200,93.930,21.850,1392.000,284.400,74.470,18.700,335.200,85.240,23.860,7.316,538.400,143.700,41.810,12.110,easy
1501.000,376.900,94.430,21.980,1396.000,284.900,74.610,18.700,335.600,84.880,23.840,7.341,539.400,143.900,42.020,12.160,easy
1504.000,379.300,94.620,21.840,1397.000,285.200,74.510,18.640,335.000,85.090,23.910,7.336,538.700,143.800,41.700,12.050,easy
1495.000,373.600,93.480,21.490,1387.000,282.800,73.880,18.520,333.400,84.670,23.770,7.274,534.900,142.200,41.320,11.920,easy
1487.000,373.700,92.690,21.350,1390.000,282.800,73.840,18.520,332.800,84.520,23.680,7.274,533.600,142.000,41.050,11.920,easy
1482.000,371.500,92.210,21.280,1388.000,282.800,73.450,18.420,330.300,84.210,23.690,7.251,533.100,141.500,41.020,11.920,easy
1479.000,369.900,91.970,21.190,1381.000,281.700,73.510,18.390,334.100,84.120,23.630,7.259,533.500,141.600,41.030,11.880,easy
1480.000,369.700,91.880,21.290,1382.000,281.800,73.800,18.440,332.000,84.360,23.680,7.272,533.200,141.800,41.120,11.910,easy
1480.000,371.100,92.050,21.340,1387.000,282.400,73.640,18.470,330.500,84.610,23.660,7.258,533.200,142.200,41.290,11.950,easy
1482.000,372.300,92.780,21.400,1386.000,282.400,73.610,18.500,331.300,84.390,23.690,7.276,534.500,142.200,41.380,11.960,easy
1483.000,372.300,92.800,21.420,1381.000,281.800,73.850,18.550,332.500,84.500,23.720,7.274,534.700,142.700,41.490,11.990,easy
1484.000,374.100,93.060,21.600,1383.000,282.900,73.910,18.550,334.600,84.790,23.730,7.277,535.000,142.700,41.530,12.010,easy
1489.000,374.200,93.190,21.690,1390.000,282.900,73.960,18.650,333.700,84.670,23.710,7.292,536.200,142.900,41.560,12.050,easy
1493.000,376.900,93.680,21.740,1390.000,283.100,74.070,18.610,334.800,84.680,23.760,7.308,537.500,143.100,41.760,12.120,easy
1497.000,375.900,94.570,21.850,1391.000,284.100,74.260,18.680,333.700,84.640,23.760,7.314,538.500,143.900,41.860,12.170,easy
1501.000,378.300,94.730,21.960,1395.000,283.400,74.540,18.740,332.600,85.080,23.770,7.317,539.700,144.000,41.950,12.230,easy
1506.000,378.400,94.760,21.940,1390.000,284.100,74.140,18.570,334.800,84.990,23.850,7.288,539.000,142.800,41.520,12.020,easy
1491.000,374.900,93.120,21.510,1388.000,282.500,73.650,18.480,329.800,84.610,23.670,7.251,534.900,142.100,41.270,11.960,easy
1485.000,372.500,92.560,21.370,1388.000,281.900,73.720,18.440,331.700,84.510,23.600,7.219,534.300,141.600,41.070,11.880,easy
1480.000,370.400,92.020,21.270,1385.000,281.600,73.470,18.380,332.300,84.090,23.550,7.217,532.800,141.400,41.080,11.880,easy
1478.000,369.400,91.900,21.300,1382.000,281.600,73.280,18.420,331.200,83.940,23.590,7.215,532.100,141.400,41.060,11.890,easy
1479.000,370.400,92.040,21.260,1387.000,282.300,73.730,18.500,331.700,84.080,23.570,7.220,533.200,141.400,41.150,11.900,easy
1479.000,372.300,92.560,21.370,1388.000,282.500,73.720,18.480,331.700,84.170,23.540,7.220,532.400,141.800,41.140,11.940,easy
1482.000,371.100,92.390,21.410,1387.000,282.200,73.800,18.520,333.700,84.450,23.570,7.240,533.000,142.000,41.250,11.950,easy
1482.000,373.200,92.660,21.490,1386.000,283.000,73.920,18.530,332.900,84.140,23.630,7.229,534.300,142.000,41.400,12.000,easy
1485.000,372.900,93.160,21.540,1389.000,283.100,74.090,18.530,332.000,84.250,23.620,7.242,534.600,142.500,41.460,12.020,easy
1489.000,374.000,93.150,21.650,1388.000,283.800,74.200,18.640,334.300,84.400,23.640,7.251,534.400,142.800,41.510,12.040,easy
1492.000,375.100,93.730,21.770,1389.000,284.200,74.530,18.690,332.700,84.560,23.690,7.242,536.900,143.500,41.680,12.130,easy
1498.000,378.200,94.290,21.920,1390.000,284.200,74.400,18.710,332.700,84.780,23.720,7.265,537.500,143.600,41.840,12.160,easy
1501.000,377.600,94.740,21.980,1397.000,284.900,75.020,18.810,333.200,84.540,23.770,7.273,539.200,144.300,41.990,12.190,easy
1506.000,378.600,94.900,22.070,1394.000,285.200,74.550,18.650,335.000,84.670,23.710,7.257,537.700,143.600,41.690,12.070,easy
1496.000,374.200,93.320,21.620,1393.000,283.600,73.980,18.510,332.200,84.360,23.650,7.214,534.100,142.200,41.290,11.950,easy
1487.000,372.600,92.700,21.490,1389.000,283.000,73.980,18.500,330.800,83.870,23.550,7.198,532.400,141.900,41.140,11.910,easy
1484.000,371.800,92.160,21.340,1390.000,283.500,74.070,18.540,330.100,84.210,23.460,7.189,531.400,141.500,41.100,11.910,easy
1482.000,371.400,92.500,21.330,1390.000,283.100,74.050,18.540,330.200,83.910,23.480,7.194,531.900,141.300,41.160,11.880,easy
1479.000,370.600,91.850,21.380,1390.000,282.800,74.140,18.520,328.900,83.980,23.530,7.196,532.000,141.400,41.070,11.930,easy
1482.000,370.700,92.160,21.480,1389.000,283.600,74.150,18.590,330.200,84.050,23.490,7.204,533.000,141.800,41.210,11.960,easy
1484.000,372.000,92.900,21.520,1388.000,283.900,74.210,18.590,331.200,84.100,23.520,7.195,532.800,142.200,41.390,11.970,easy
1486.000,371.900,93.070,21.630,1392.000,284.600,74.290,18.640,333.300,84.160,23.550,7.204,533.500,142.200,41.570,12.060,easy
1489.000,373.700,93.060,21.670,1394.000,284.500,74.540,18.670,333.500,84.070,23.520,7.214,534.700,142.700,41.580,12.080,easy
1492.000,376.400,93.960,21.850,1396.000,285.200,74.760,18.720,331.000,84.430,23.560,7.230,535.400,143.000,41.710,12.090,easy
1495.000,376.300,93.950,21.920,1397.000,284.900,74.900,18.790,332.400,84.130,23.630,7.217,536.500,143.500,41.850,12.150,easy
1502.000,377.800,94.440,22.020,1400.000,285.900,75.080,18.870,332.800,84.360,23.630,7.245,538.600,143.800,41.980,12.210,easy
1507.000,380.100,95.340,22.170,1401.000,287.400,75.480,18.930,332.100,84.650,23.690,7.247,539.500,144.300,42.160,12.260,easy
1511.000,382.200,95.170,22.120,1405.000,285.600,74.960,18.820,329.500,84.430,23.640,7.237,538.100,143.400,41.770,12.070,easy
1500.000,378.500,94.010,21.730,1400.000,284.700,74.750,18.730,331.900,84.160,23.490,7.188,534.600,142.400,41.410,12.030,easy
1493.000,375.500,93.210,21.670,1397.000,284.900,74.630,18.670,332.700,84.080,23.480,7.190,533.700,142.300,41.310,11.970,easy
1490.000,375.600,93.050,21.630,1394.000,284.300,74.780,18.670,329.700,83.840,23.450,7.191,533.200,142.200,41.380,11.990,easy
1491.000,374.400,93.180,21.620,1398.000,284.500,74.550,18.650,331.200,84.060,23.440,7.172,533.700,142.100,41.320,12.000,easy
1491.000,375.200,93.210,21.620,1399.000,286.000,74.610,18.680,327.400,84.020,23.420,7.171,533.000,142.400,41.460,12.040,easy
1492.000,376.100,93.750,21.670,1399.000,285.600,74.780,18.740,330.100,83.900,23.430,7.180,534.000,142.500,41.460,12.070,easy
1495.000,375.300,93.900,21.820,1400.000,286.000,75.080,18.790,332.600,83.980,23.470,7.194,535.700,142.700,41.610,12.090,easy
1498.000,377.600,94.170,21.820,1401.000,286.300,75.080,18.810,332.700,84.030,23.520,7.188,535.300,143.200,41.700,12.120,easy
1501.000,378.800,94.420,21.980,1402.000,286.700,75.510,18.890,331.600,84.240,23.480,7.203,537.100,143.600,41.810,12.200,easy
1505.000,380.000,94.970,22.130,1399.000,287.200,75.700,18.970,329.400,84.420,23.450,7.216,536.900,143.900,41.970,12.190,easy
1509.000,381.200,95.460,22.210,1406.000,287.200,75.670,18.940,331.700,84.390,23.620,7.218,539.500,144.100,42.070,12.280,easy
1514.000,382.200,96.130,22.380,1408.000,288.600,75.710,18.990,331.200,84.510,23.650,7.224,539.800,144.600,42.120,12.230,easy
1513.000,381.800,95.530,22.010,1405.000,286.900,75.400,18.820,333.000,84.190,23.580,7.206,537.000,143.200,41.560,12.060,easy
1501.000,376.100,93.970,21.830,1405.000,287.200,75.300,18.790,332.100,83.780,23.410,7.173,534.100,142.500,41.500,12.040,easy
1495.000,375.800,93.670,21.640,1404.000,286.500,74.960,18.780,331.500,83.810,23.400,7.153,533.600,142.100,41.320,11.990,easy
1494.000,375.300,93.500,21.650,1403.000,286.400,75.210,18.770,331.600,83.680,23.400,7.155,533.200,142.100,41.260,11.980,easy
1494.000,377.000,93.560,21.590,1402.000,286.400,75.070,18.760,333.000,83.840,23.410,7.153,534.300,142.200,41.350,12.030,easy
1495.000,376.400,93.740,21.720,1403.000,287.300,75.230,18.770,330.400,84.010,23.340,7.165,533.000,142.500,41.350,12.030,easy
1496.000,376.500,94.070,21.790,1401.000,287.600,75.260,18.850,330.400,83.960,23.360,7.170,533.700,142.800,41.490,12.080,easy
1499.000,378.000,94.100,21.840,1404.000,287.300,75.510,18.850,330.500,83.910,23.450,7.174,534.900,143.000,41.700,12.130,easy
1501.000,379.000,94.380,21.930,1405.000,288.600,75.560,18.920,329.400,84.120,23.460,7.174,536.100,143.400,41.630,12.170,easy
1506.000,380.500,94.930,22.110,1408.000,289.000,75.870,19.000,331.600,84.160,23.540,7.190,538.000,143.600,41.950,12.190,easy
1510.000,381.900,95.390,22.230,1412.000,289.100,76.300,19.040,331.300,84.400,23.540,7.213,538.000,143.900,41.990,12.240,easy
1516.000,384.100,96.020,22.360,1413.000,289.400,76.430,19.120,330.700,84.540,23.590,7.230,540.400,144.400,42.180,12.310,easy
1522.000,384.800,96.870,22.560,1416.000,289.500,76.570,19.160,332.600,84.400,23.650,7.227,541.900,144.900,42.310,12.360,easy
1523.000,384.600,96.370,22.360,1415.000,290.400,76.100,18.960,333.300,84.400,23.560,7.205,539.000,144.100,41.760,12.130,easy
1509.000,379.100,94.790,22.010,1405.000,287.800,75.540,18.860,329.200,84.000,23.470,7.162,535.000,142.900,41.470,12.070,easy
1502.000,379.700,94.350,21.850,1409.000,288.400,75.570,18.930,330.100,83.670,23.420,7.157,535.500,142.600,41.330,12.020,easy
1499.000,377.000,94.280,21.890,1405.000,287.600,75.520,18.840,333.300,83.600,23.430,7.147,533.500,142.400,41.400,12.040,easy
1498.000,378.000,94.290,21.830,1402.000,288.100,75.780,18.860,331.900,83.720,23.400,7.162,534.200,142.400,41.420,12.010,easy
1499.000,378.100,93.960,21.850,1404.000,287.800,75.750,18.900,331.100,83.940,23.420,7.171,534.400,142.500,41.440,12.070,easy
1500.000,377.600,94.210,21.930,1405.000,287.900,75.940,18.910,331.200,84.030,23.460,7.170,536.200,143.100,41.530,12.110,easy
1504.000,380.100,94.930,22.040,1409.000,287.900,75.820,18.940,330.500,84.180,23.480,7.184,536.500,143.500,41.750,12.130,easy
1505.000,380.300,94.960,22.060,1407.000,288.900,75.800,19.050,330.200,84.210,23.530,7.194,537.000,143.400,41.870,12.170,easy
1509.000,383.100,95.170,22.210,1412.000,289.300,76.220,19.070,330.600,84.050,23.520,7.210,536.900,144.000,41.970,12.220,easy
1514.000,384.800,95.870,22.340,1410.000,290.100,76.350,19.090,330.700,84.440,23.580,7.225,541.000,144.300,42.130,12.270,easy
1519.000,384.100,96.360,22.420,1411.000,290.600,76.420,19.170,330.200,84.580,23.590,7.232,539.100,144.800,42.240,12.320,easy
1525.000,386.400,96.830,22.600,1422.000,291.600,76.770,19.180,333.900,84.760,23.630,7.234,543.000,145.200,42.390,12.390,easy
1528.000,386.900,97.090,22.530,1419.000,290.300,76.510,19.040,332.800,84.720,23.620,7.224,540.300,144.400,41.990,12.190,easy
1516.000,382.000,95.760,22.160,1408.000,289.600,75.830,19.010,331.000,84.010,23.470,7.178,537.500,143.200,41.640,12.120,easy
1509.000,379.600,95.190,21.970,1408.000,288.300,75.660,18.940,331.700,84.180,23.440,7.174,536.200,143.100,41.570,12.080,easy
1506.000,379.100,94.410,21.970,1410.000,288.300,75.690,18.930,330.000,83.880,23.400,7.165,535.200,142.900,41.520,12.050,easy
1504.000,379.600,94.740,21.910,1411.000,289.000,75.950,18.950,332.700,84.050,23.450,7.159,535.100,143.100,41.560,12.090,easy
1505.000,379.300,94.840,21.990,1407.000,289.100,76.000,18.950,331.700,84.060,23.470,7.169,535.500,142.800,41.700,12.110,easy
1506.000,381.300,94.990,22.080,1411.000,288.900,76.150,18.970,332.300,84.030,23.490,7.164,537.100,144.000,41.820,12.160,easy
1511.000,381.500,95.490,22.140,1413.000,289.600,75.970,19.050,332.400,84.400,23.540,7.191,537.600,143.600,41.860,12.190,easy
1512.000,381.200,95.670,22.290,1414.000,290.200,76.260,19.070,332.400,84.490,23.510,7.194,539.000,144.000,42.030,12.220,easy
1516.000,382.800,95.920,22.330,1412.000,290.200,76.470,19.100,332.000,84.330,23.560,7.208,539.700,144.600,42.010,12.260,easy
1519.000,384.600,96.810,22.440,1414.000,291.000,76.510,19.200,333.600,84.490,23.580,7.223,541.300,144.800,42.250,12.320,easy
1523.000,385.500,97.330,22.600,1416.000,291.000,76.700,19.190,332.700,84.540,23.630,7.232,541.300,145.000,42.330,12.370,easy
1529.000,385.700,97.330,22.530,1417.000,290.100,76.430,19.060,332.600,84.380,23.630,7.219,540.800,144.000,42.010,12.210,easy
1516.000,382.300,95.830,22.190,1413.000,288.900,76.120,19.020,332.100,84.160,23.480,7.179,536.600,143.400,41.740,12.170,easy
1511.000,380.600,95.490,22.050,1408.000,289.500,75.970,18.960,331.200,84.030,23.430,7.167,536.000,143.200,41.530,12.100,easy
1508.000,380.400,95.070,22.050,1413.000,288.600,75.990,18.990,330.700,84.030,23.430,7.154,535.900,143.300,41.620,12.090,easy
1507.000,379.700,95.000,22.070,1409.000,289.000,75.930,18.990,330.100,83.790,23.440,7.159,535.100,143.200,41.630,12.120,easy
1507.000,379.200,95.120,22.100,1414.000,289.900,75.970,19.000,332.600,83.860,23.510,7.169,536.500,143.200,41.630,12.140,easy
1509.000,381.500,95.350,22.110,1411.000,288.500,75.960,19.040,328.200,84.200,23.460,7.179,536.900,143.700,41.860,12.160,easy
1510.000,381.700,95.160,22.180,1410.000,289.100,76.270,19.040,334.200,84.090,23.490,7.201,537.500,144.000,42.030,12.220,easy
1513.000,382.500,96.030,22.300,1418.000,289.000,76.290,19.100,331.600,83.950,23.510,7.203,538.400,144.400,41.990,12.240,easy
1518.000,384.700,96.540,22.410,1415.000,289.500,76.170,19.160,333.700,84.310,23.590,7.213,539.600,144.400,42.230,12.290,easy
1522.000,386.000,97.120,22.500,1413.000,290.500,76.630,19.190,332.300,84.340,23.570,7.218,541.700,144.900,42.290,12.340,easy
1526.000,385.200,97.380,22.620,1417.000,291.300,76.680,19.220,332.300,84.710,23.650,7.237,541.600,145.500,42.390,12.380,easy
1532.000,389.100,97.630,22.800,1419.000,291.400,76.980,19.230,334.200,84.760,23.710,7.251,543.300,145.700,42.470,12.380,easy
1528.000,387.100,96.870,22.460,1415.000,289.900,76.280,19.050,332.200,84.310,23.560,7.190,539.700,144.000,41.810,12.170,easy
1516.000,382.900,95.940,22.180,1406.000,289.500,75.980,19.030,330.500,84.260,23.430,7.163,536.900,143.200,41.780,12.140,easy
1511.000,381.900,95.370,22.120,1412.000,288.500,75.910,18.950,330.900,84.180,23.460,7.135,535.900,143.200,41.630,12.090,easy
1508.000,380.600,95.030,22.020,1411.000,288.900,75.760,18.980,329.500,84.020,23.380,7.161,534.800,143.400,41.670,12.090,easy
1506.000,380.100,94.940,22.090,1413.000,289.200,76.030,19.000,331.700,83.900,23.400,7.156,536.300,143.400,41.660,12.070,easy
1507.000,380.900,95.150,22.050,1407.000,288.400,76.010,18.970,330.500,83.740,23.450,7.168,536.200,143.500,41.660,12.120,easy
1508.000,381.000,95.350,22.120,1411.000,289.100,76.110,19.010,331.800,83.880,23.490,7.173,536.700,143.500,41.720,12.160,easy
1509.000,381.000,95.990,22.170,1411.000,288.900,76.130,19.010,331.400,84.190,23.480,7.171,537.700,143.600,41.820,12.180,easy
1511.000,382.800,96.030,22.240,1415.000,289.500,76.210,19.130,331.700,84.140,23.520,7.198,538.600,144.100,41.920,12.190,easy
1515.000,382.100,96.000,22.400,1413.000,290.000,76.130,19.120,330.700,84.000,23.530,7.187,539.400,144.400,42.090,12.240,easy
1520.000,383.700,97.030,22.500,1412.000,289.900,76.420,19.130,332.500,84.260,23.600,7.205,540.300,144.700,42.240,12.290,easy
1523.000,385.400,96.980,22.600,1415.000,290.500,76.580,19.170,333.200,84.280,23.550,7.217,542.300,145.500,42.340,12.350,easy
1528.000,386.700,97.000,22.590,1413.000,289.600,76.280,19.040,333.100,84.600,23.600,7.215,538.900,144.200,42.050,12.180,easy
1516.000,383.200,95.660,22.160,1410.000,288.800,76.180,18.980,330.200,83.780,23.430,7.161,536.700,143.200,41.650,12.090,easy
1509.000,378.600,94.870,22.040,1406.000,287.700,75.760,18.890,330.300,83.600,23.360,7.138,534.700,142.900,41.440,12.020,easy
1503.000,380.700,94.690,21.910,1406.000,288.100,75.700,18.940,327.800,83.380,23.360,7.135,534.000,142.800,41.480,12.020,easy
1501.000,378.600,94.640,21.990,1410.000,287.500,75.770,18.940,328.500,83.790,23.350,7.137,534.500,142.700,41.490,12.000,easy
1500.000,379.200,94.480,22.000,1406.000,288.500,75.690,18.940,330.300,83.600,23.400,7.140,534.700,142.600,41.390,12.040,easy
1501.000,379.800,94.960,21.980,1402.000,288.000,75.750,18.940,331.200,83.710,23.430,7.146,535.100,142.900,41.440,12.080,easy
1503.000,380.600,95.080,22.110,1408.000,288.300,75.990,18.970,328.300,83.840,23.450,7.154,534.900,142.900,41.630,12.100,easy
1506.000,380.600,95.270,22.150,1407.000,288.200,76.010,19.060,330.300,84.080,23.450,7.166,536.000,143.300,41.720,12.120,easy
1510.000,382.500,95.470,22.170,1407.000,289.700,75.940,19.060,330.400,83.840,23.470,7.168,536.800,143.800,41.800,12.190,easy
1513.000,382.600,95.610,22.330,1410.000,290.400,76.120,19.070,329.300,84.040,23.530,7.182,537.500,144.200,41.950,12.220,easy
1518.000,384.800,96.650,22.490,1412.000,289.300,76.180,19.160,331.400,84.150,23.540,7.207,539.000,144.500,42.190,12.270,easy
1522.000,387.400,96.950,22.580,1414.000,291.200,76.500,19.190,333.200,84.480,23.580,7.210,540.700,145.100,42.360,12.330,easy
1526.000,388.000,97.020,22.660,1411.000,290.100,76.390,19.150,332.200,84.300,23.640,7.207,540.100,144.600,42.110,12.190,easy
1518.000,383.800,95.940,22.270,1412.000,288.600,76.170,19.040,330.800,84.100,23.500,7.164,535.800,143.400,41.680,12.110,easy
1511.000,380.500,95.520,22.150,1406.000,288.900,75.850,18.990,328.800,83.770,23.420,7.157,536.300,143.100,41.540,12.060,easy
1507.000,380.600,94.920,22.000,1411.000,288.500,75.880,19.010,327.300,83.850,23.390,7.162,535.300,142.700,41.450,12.030,easy
1504.000,380.100,94.710,22.040,1407.000,288.600,76.060,19.050,331.700,83.820,23.450,7.149,535.600,143.000,41.510,12.060,easy
1504.000,379.600,94.850,22.040,1411.000,288.700,76.230,19.030,329.400,83.560,23.430,7.152,535.200,143.000,41.540,12.060,easy
1506.000,380.400,95.350,22.130,1408.000,289.800,76.350,19.100,329.900,83.730,23.430,7.172,536.000,143.500,41.620,12.110,easy
1510.000,381.900,95.890,22.250,1406.000,289.600,76.430,19.100,330.300,84.080,23.490,7.177,536.500,143.800,41.710,12.130,easy
1512.000,382.500,96.070,22.370,1412.000,290.300,76.160,19.160,330.600,83.810,23.490,7.191,537.000,143.600,41.920,12.140,easy
1516.000,383.400,96.260,22.420,1412.000,290.600,76.550,19.190,329.500,84.230,23.490,7.183,537.500,144.300,41.970,12.200,easy
1520.000,385.700,96.880,22.570,1415.000,290.700,77.070,19.260,329.500,84.310,23.560,7.211,539.200,144.500,42.090,12.270,easy
1526.000,386.000,97.100,22.800,1420.000,292.100,76.760,19.300,328.900,84.560,23.540,7.226,541.100,145.100,42.220,12.240,easy
1524.000,387.500,96.670,22.460,1416.000,290.400,76.670,19.190,330.600,84.230,23.490,7.187,537.000,143.300,41.660,12.080,easy
1516.000,384.000,95.830,22.320,1420.000,290.000,76.690,19.190,329.900,83.870,23.450,7.168,535.500,143.500,41.510,12.030,easy
1514.000,382.000,95.660,22.230,1418.000,289.600,76.500,19.190,328.800,83.880,23.370,7.136,533.700,142.700,41.390,12.010,easy
1513.000,382.100,95.460,22.250,1419.000,291.300,76.700,19.230,330.600,83.670,23.380,7.137,535.400,142.600,41.420,12.020,easy
1516.000,384.300,96.090,22.380,1422.000,291.900,76.870,19.250,328.900,83.770,23.370,7.141,534.200,143.100,41.460,12.050,easy
1520.000,383.900,96.640,22.510,1424.000,292.100,77.130,19.370,330.000,83.620,23.430,7.137,535.900,143.200,41.700,12.100,easy
1525.000,385.700,96.850,22.620,1431.000,293.400,77.490,19.430,330.700,83.740,23.410,7.163,536.000,143.700,41.670,12.120,easy
1530.000,387.300,97.300,22.700,1430.000,293.500,77.590,19.450,330.200,83.740,23.420,7.159,536.400,143.700,41.740,12.130,easy
1531.000,388.000,97.620,22.810,1431.000,293.700,77.560,19.440,330.100,83.780,23.440,7.150,537.000,144.200,41.930,12.160,easy
1534.000,389.600,97.170,22.840,1428.000,293.800,77.670,19.480,329.300,83.710,23.450,7.175,539.200,144.200,42.070,12.240,easy
1536.000,391.100,98.390,23.010,1426.000,293.900,77.730,19.460,328.000,84.240,23.490,7.189,538.600,144.900,42.140,12.220,easy
1540.000,392.000,98.580,22.980,1433.000,293.500,77.690,19.520,330.700,84.330,23.480,7.172,539.200,145.000,42.180,12.300,easy
1543.000,393.200,98.620,23.110,1429.000,294.200,77.740,19.490,332.900,84.020,23.610,7.205,539.800,144.800,42.200,12.210,easy
1536.000,389.000,97.130,22.670,1424.000,292.600,77.290,19.340,327.900,83.770,23.390,7.142,535.700,143.500,41.600,12.060,easy
1524.000,385.700,96.740,22.500,1424.000,292.200,77.070,19.280,330.300,83.670,23.340,7.115,534.700,142.800,41.450,12.020,easy
1518.000,383.500,96.290,22.350,1420.000,292.700,76.930,19.290,327.700,83.350,23.310,7.115,533.200,142.400,41.350,11.970,easy
1516.000,383.300,96.170,22.360,1422.000,291.800,76.840,19.270,326.700,83.450,23.290,7.102,532.400,142.400,41.350,12.000,easy
1515.000,382.800,95.640,22.390,1416.000,291.600,76.920,19.270,327.200,83.650,23.340,7.095,532.200,142.500,41.480,12.000,easy
1516.000,382.300,95.560,22.420,1422.000,292.200,77.170,19.310,328.500,83.360,23.350,7.122,532.800,142.900,41.490,12.030,easy
1518.000,385.700,96.140,22.450,1417.000,292.500,77.100,19.280,325.300,83.690,23.370,7.143,533.100,143.100,41.630,12.070,easy
1520.000,386.600,96.360,22.460,1419.000,292.300,77.310,19.330,327.500,83.580,23.340,7.148,533.500,143.300,41.670,12.100,easy
1523.000,387.200,96.990,22.660,1424.000,292.800,77.210,19.350,329.800,83.700,23.410,7.139,534.500,144.000,41.780,12.120,easy
1526.000,387.900,97.020,22.770,1425.000,292.700,77.520,19.450,330.300,83.880,23.470,7.152,536.300,143.800,42.010,12.180,easy
1531.000,388.600,97.550,22.890,1429.000,293.400,77.560,19.440,331.200,83.930,23.470,7.188,538.000,144.500,42.120,12.230,easy
1535.000,390.200,97.920,22.970,1429.000,294.100,77.740,19.490,331.000,84.070,23.470,7.180,539.100,144.900,42.280,12.300,easy
1542.000,391.300,98.500,23.140,1431.000,294.900,77.950,19.590,329.800,84.110,23.490,7.197,539.900,145.300,42.420,12.380,easy
1547.000,392.700,99.150,23.120,1434.000,293.300,77.860,19.470,330.400,83.960,23.560,7.201,540.200,145.200,42.180,12.210,easy
1537.000,388.700,97.750,22.720,1424.000,293.800,77.420,19.370,329.700,84.080,23.420,7.127,535.000,143.500,41.720,12.110,easy
1528.000,386.500,96.840,22.610,1429.000,293.000,77.120,19.310,328.800,83.740,23.350,7.130,533.900,143.300,41.610,12.050,easy
1522.000,384.200,96.110,22.460,1422.000,292.600,77.100,19.280,327.300,83.330,23.300,7.122,532.400,142.900,41.520,12.010,easy
1521.000,385.300,96.440,22.450,1423.000,292.200,77.190,19.290,328.500,83.260,23.340,7.128,534.000,142.600,41.470,12.040,easy
1520.000,384.700,96.170,22.490,1425.000,292.200,77.220,19.260,329.200,83.390,23.330,7.133,533.500,143.000,41.510,12.060,easy
1519.000,385.300,96.480,22.540,1427.000,292.500,77.340,19.300,329.400,83.310,23.390,7.127,533.800,143.300,41.570,12.090,easy
1523.000,386.300,96.770,22.650,1425.000,292.800,77.550,19.360,329.300,83.490,23.340,7.149,535.100,143.300,41.820,12.140,easy
1525.000,386.800,97.260,22.780,1426.000,293.300,77.390,19.410,328.000,83.810,23.440,7.154,535.700,143.800,41.880,12.190,easy
1527.000,389.400,97.410,22.810,1427.000,293.000,77.750,19.470,327.500,83.800,23.450,7.154,536.700,144.100,41.950,12.210,easy
1532.000,390.700,97.660,22.940,1429.000,294.800,77.720,19.470,328.700,83.830,23.520,7.181,538.100,144.700,42.150,12.280,easy
1539.000,392.100,98.460,23.050,1434.000,294.000,78.010,19.540,329.200,83.790,23.540,7.195,538.900,145.100,42.220,12.340,easy
1544.000,392.800,99.230,23.150,1433.000,296.000,78.120,19.560,331.600,84.280,23.540,7.192,540.300,145.600,42.460,12.410,easy
1548.000,394.600,99.420,23.230,1431.000,295.400,78.280,19.500,332.200,84.200,23.560,7.206,540.200,145.200,42.210,12.260,easy
1541.000,389.500,98.450,22.820,1426.000,293.700,77.570,19.380,331.600,83.670,23.430,7.146,535.500,143.700,41.730,12.160,easy
1529.000,387.400,97.470,22.700,1423.000,294.000,77.430,19.320,329.800,83.530,23.380,7.138,534.700,143.400,41.730,12.120,easy
1527.000,388.300,96.790,22.570,1423.000,293.300,77.330,19.330,327.300,83.550,23.320,7.139,533.800,143.400,41.650,12.100,easy
1525.000,387.500,96.640,22.530,1427.000,292.800,77.420,19.310,328.500,83.560,23.340,7.139,533.500,142.900,41.660,12.090,easy
1525.000,385.500,96.620,22.540,1426.000,293.100,77.440,19.310,329.100,83.600,23.350,7.123,533.600,143.100,41.730,12.120,easy
1525.000,388.000,97.330,22.680,1427.000,293.500,77.380,19.310,328.300,83.610,23.350,7.142,535.300,143.700,41.800,12.150,easy
1529.000,391.300,97.450,22.750,1427.000,292.700,77.420,19.390,327.800,83.590,23.440,7.157,536.200,143.800,41.950,12.200,easy
1532.000,389.400,97.940,22.830,1431.000,294.100,77.720,19.380,329.800,83.530,23.390,7.155,537.000,144.400,42.000,12.220,easy
1535.000,391.200,98.440,23.010,1431.000,294.400,77.630,19.480,327.900,83.690,23.410,7.159,537.900,144.400,42.180,12.290,easy
1540.000,391.900,98.560,23.090,1436.000,295.300,77.900,19.500,330.800,83.900,23.500,7.167,539.300,144.900,42.410,12.330,easy
1543.000,393.200,99.040,23.270,1439.000,294.900,78.120,19.570,330.400,84.050,23.460,7.193,539.900,145.400,42.460,12.390,easy
1548.000,395.500,99.660,23.430,1440.000,297.200,78.580,19.540,332.000,84.230,23.490,7.192,541.300,145.500,42.550,12.420,easy
1553.000,394.500,99.090,23.220,1435.000,294.900,77.800,19.470,331.000,83.990,23.500,7.175,538.200,144.500,41.980,12.230,easy
1536.000,389.400,98.150,22.850,1427.000,293.600,77.710,19.310,331.000,83.480,23.350,7.131,535.600,143.600,41.800,12.170,easy
1531.000,388.900,97.450,22.700,1433.000,292.700,77.530,19.260,330.000,83.260,23.290,7.113,535.000,143.400,41.780,12.120,easy
1526.000,388.700,97.070,22.600,1426.000,293.600,77.390,19.240,329.800,83.410,23.280,7.104,534.300,143.200,41.750,12.110,easy
1525.000,386.600,96.950,22.540,1427.000,292.700,77.390,19.320,330.200,83.280,23.280,7.115,533.200,143.300,41.710,12.120,easy
1525.000,387.800,96.870,22.620,1425.000,292.300,77.370,19.310,328.800,83.150,23.250,7.111,533.500,143.500,41.690,12.150,easy
1528.000,389.100,97.670,22.740,1426.000,292.800,77.480,19.370,328.400,83.410,23.310,7.114,534.200,143.300,41.870,12.190,easy
1531.000,389.900,97.870,22.800,1431.000,293.800,77.890,19.430,329.300,83.520,23.360,7.118,535.600,144.000,41.950,12.200,easy
1535.000,391.900,98.580,22.910,1429.000,294.700,77.710,19.410,330.200,83.610,23.320,7.150,535.900,144.300,41.980,12.260,easy
1536.000,390.200,98.650,23.020,1430.000,294.200,77.780,19.480,327.100,83.580,23.430,7.139,537.700,144.400,42.100,12.300,easy
1542.000,393.700,98.920,23.160,1429.000,294.700,78.120,19.460,333.400,83.720,23.430,7.150,539.200,145.000,42.300,12.370,easy
1546.000,394.400,99.330,23.300,1432.000,295.400,78.110,19.520,328.500,83.820,23.460,7.175,540.400,145.500,42.520,12.400,easy
1553.000,396.500,99.780,23.480,1435.000,295.200,78.620,19.590,330.500,84.230,23.470,7.178,542.100,146.000,42.660,12.460,easy
1557.000,397.000,100.100,23.370,1430.000,294.800,78.010,19.430,329.000,84.160,23.430,7.179,540.500,144.800,42.300,12.270,easy
1542.000,392.800,98.480,22.870,1431.000,293.100,77.610,19.330,327.500,83.580,23.290,7.117,536.800,143.700,41.870,12.180,easy
1534.000,389.300,97.850,22.730,1430.000,292.400,77.200,19.320,327.500,83.300,23.290,7.110,535.300,143.100,41.670,12.100,easy
1528.000,388.500,97.030,22.600,1425.000,292.800,77.170,19.240,326.200,83.290,23.210,7.087,534.500,143.000,41.690,12.090,easy
1524.000,387.900,97.220,22.610,1425.000,292.200,77.270,19.230,328.700,83.310,23.230,7.070,533.600,143.000,41.610,12.110,easy
1525.000,387.900,97.110,22.650,1424.000,293.200,77.440,19.250,329.500,82.970,23.230,7.090,533.200,143.100,41.740,12.150,easy
1527.000,388.200,97.560,22.740,1426.000,293.000,77.430,19.310,329.100,83.250,23.220,7.083,535.100,143.400,41.790,12.190,easy
1530.000,388.200,97.950,22.780,1426.000,293.500,77.500,19.320,328.300,83.260,23.290,7.111,534.900,143.600,41.930,12.210,easy
1533.000,389.900,97.990,22.900,1427.000,294.200,77.640,19.370,328.500,83.420,23.300,7.113,535.900,143.800,41.880,12.240,easy
1536.000,391.700,98.630,22.990,1427.000,294.600,77.800,19.410,328.100,83.690,23.330,7.119,537.100,144.500,42.170,12.320,easy
1541.000,393.500,99.010,23.180,1431.000,294.800,77.880,19.460,329.000,83.460,23.370,7.142,539.100,144.600,42.330,12.340,easy
1546.000,393.600,99.690,23.330,1435.000,294.600,78.380,19.570,329.600,83.760,23.420,7.159,539.500,145.400,42.440,12.390,easy
1552.000,395.600,100.100,23.470,1437.000,295.600,78.270,19.560,329.500,83.860,23.450,7.160,541.300,145.900,42.630,12.450,easy
1557.000,398.700,100.600,23.580,1436.000,295.800,78.240,19.540,328.500,83.990,23.490,7.183,542.500,145.900,42.690,12.430,easy
1529.000,389.100,98.060,22.730,1425.000,293.600,77.250,19.250,327.500,83.260,23.260,7.072,534.200,143.500,41.800,12.180,bogus
1533.000,389.500,98.150,22.910,1426.000,292.600,77.380,19.270,327.000,83.330,23.260,7.102,535.600,143.700,41.930,12.210,bogus
1534.000,390.100,98.120,22.900,1426.000,293.500,77.490,19.310,328.200,83.440,23.340,7.112,535.700,144.200,41.930,12.230,bogus
1536.000,390.100,98.450,23.030,1428.000,292.900,77.660,19.360,328.800,83.410,23.310,7.114,536.300,144.100,42.130,12.270,bogus
1539.000,391.400,98.770,23.180,1431.000,293.500,77.700,19.380,330.700,83.620,23.320,7.131,537.600,144.600,42.240,12.290,bogus
1540.000,388.700,97.350,22.500,1430.000,292.900,77.500,19.250,326.800,83.080,23.370,7.103,533.700,143.100,41.930,12.160,hard
1535.000,388.400,97.350,22.430,1426.000,292.100,77.370,19.260,328.200,82.870,23.280,7.096,533.000,142.900,41.800,12.140,hard
1534.000,388.400,96.840,22.410,1427.000,292.000,77.260,19.290,325.100,82.900,23.250,7.078,534.100,142.700,41.800,12.140,hard
1532.000,388.100,97.100,22.420,1430.000,292.300,77.360,19.250,326.400,82.960,23.260,7.079,534.400,143.100,41.850,12.200,hard
1534.000,389.500,97.330,22.520,1425.000,291.700,77.340,19.330,327.000,83.210,23.260,7.106,534.200,143.200,42.020,12.200,hard
1537.000,389.900,97.820,22.560,1431.000,291.700,77.740,19.370,326.200,83.070,23.260,7.093,535.600,143.700,42.100,12.270,hard
1539.000,389.900,98.180,22.670,1427.000,291.500,77.670,19.340,329.700,83.110,23.300,7.114,536.200,143.900,42.220,12.300,hard
1543.000,392.000,98.190,22.860,1423.000,292.100,77.620,19.390,327.100,83.140,23.320,7.129,537.500,144.400,42.300,12.370,hard
1546.000,392.600,99.630,23.020,1429.000,293.000,77.790,19.410,326.700,83.480,23.330,7.122,538.000,144.800,42.490,12.370,hard
1546.000,392.200,98.240,22.750,1426.000,291.400,77.270,19.260,329.500,83.230,23.260,7.086,534.100,143.100,41.780,12.140,hard
1531.000,386.600,96.840,22.380,1416.000,290.300,76.970,19.190,326.800,82.530,23.070,7.056,531.500,142.200,41.590,12.080,hard
1525.000,385.700,96.690,22.360,1419.000,289.700,77.050,19.140,327.400,82.550,23.050,7.022,531.000,142.200,41.440,12.010,hard
1522.000,383.800,96.460,22.330,1417.000,289.500,76.880,19.200,324.800,82.440,23.080,7.026,530.700,142.200,41.370,12.020,hard
1520.000,385.100,96.890,22.300,1417.000,289.800,77.000,19.120,323.600,82.410,23.070,7.033,529.100,142.100,41.440,12.050,hard
1520.000,384.900,96.990,22.360,1416.000,289.600,76.910,19.200,324.500,82.640,23.110,7.041,529.700,142.100,41.540,12.100,hard
1523.000,386.100,97.030,22.480,1415.000,289.400,77.110,19.210,326.100,82.520,23.040,7.055,530.400,142.500,41.590,12.100,hard
1525.000,386.400,97.730,22.570,1417.000,289.800,77.050,19.290,326.800,82.520,23.050,7.040,531.200,142.600,41.650,12.160,hard
1529.000,388.200,97.940,22.690,1420.000,289.500,77.110,19.260,324.900,82.570,23.110,7.053,532.400,143.300,41.860,12.200,hard
1531.000,388.000,98.110,22.790,1418.000,290.800,77.380,19.330,324.600,82.930,23.150,7.056,533.600,143.500,41.990,12.250,hard
1536.000,389.600,99.050,22.940,1421.000,290.700,77.340,19.370,325.800,82.930,23.170,7.084,535.800,143.700,42.110,12.280,hard
1540.000,390.800,98.540,22.810,1415.000,289.100,76.930,19.160,325.100,82.880,23.090,7.062,532.500,142.600,41.480,12.070,hard
1524.000,385.800,97.070,22.420,1415.000,288.800,76.770,19.090,325.000,82.370,22.950,7.001,528.900,141.800,41.310,11.980,hard
1519.000,385.700,96.580,22.280,1411.000,288.700,76.640,19.110,323.800,82.060,22.900,7.000,527.200,141.100,41.040,11.930,hard
1515.000,383.000,95.880,22.260,1414.000,287.800,76.490,19.080,324.400,82.160,22.900,7.007,527.700,141.400,41.100,11.960,hard
1514.000,384.000,96.580,22.310,1408.000,287.000,76.480,19.130,322.600,82.240,22.920,6.999,527.600,141.000,41.120,11.950,hard
1514.000,384.000,96.790,22.360,1410.000,288.100,76.450,19.140,322.900,82.010,22.930,6.996,526.700,141.300,41.070,11.970,hard
1514.000,384.900,96.830,22.380,1413.000,287.700,76.460,19.190,324.200,82.250,22.910,7.007,528.200,141.700,41.280,12.030,hard
1517.000,385.300,97.210,22.550,1410.000,289.000,76.600,19.150,324.000,82.310,22.980,7.018,528.200,142.100,41.370,12.090,hard
1520.000,385.500,97.530,22.620,1413.000,289.500,76.730,19.230,323.400,82.370,23.050,7.035,529.300,142.300,41.490,12.120,hard
1525.000,388.000,98.000,22.730,1414.000,289.200,76.820,19.270,324.700,82.470,23.070,7.056,530.400,142.700,41.630,12.160,hard
1529.000,387.500,98.600,22.820,1417.000,289.200,77.180,19.320,325.900,82.930,23.090,7.066,532.500,143.200,41.810,12.220,hard
1534.000,390.200,98.860,22.920,1416.000,289.000,76.850,19.180,327.500,82.790,23.090,7.054,530.700,142.500,41.540,12.060,hard
1524.000,385.900,97.060,22.440,1409.000,288.500,76.530,19.090,323.600,82.260,22.980,7.007,527.300,141.200,41.110,11.970,hard
1515.000,382.100,96.360,22.340,1409.000,288.100,76.410,19.020,323.300,82.130,22.880,6.984,526.100,140.900,40.910,11.930,hard
1511.000,381.600,96.410,22.310,1408.000,287.900,76.430,19.040,322.300,82.140,22.890,6.995,525.700,140.600,40.890,11.930,hard
1511.000,383.200,96.520,22.250,1411.000,287.400,76.240,19.010,323.400,81.930,22.880,6.988,525.000,140.800,40.910,11.910,hard
1509.000,383.000,96.000,22.290,1402.000,287.500,76.170,19.040,324.100,82.280,22.880,6.986,524.800,140.600,40.880,11.940,hard
1510.000,384.500,96.590,22.290,1410.000,287.600,76.110,19.100,320.900,81.970,22.890,7.011,525.200,141.400,41.130,11.980,hard
1512.000,382.800,97.320,22.470,1409.000,288.600,76.290,19.120,323.300,82.160,22.950,7.018,526.700,141.600,41.100,12.010,hard
1515.000,383.300,97.340,22.570,1413.000,288.100,76.440,19.140,323.400,82.510,22.970,7.023,527.300,141.400,41.320,12.060,hard
1518.000,385.000,97.420,22.670,1411.000,288.700,76.510,19.180,324.400,82.280,22.990,7.032,528.900,141.900,41.390,12.070,hard
1522.000,387.300,98.080,22.780,1408.000,289.000,76.440,19.140,325.500,82.590,23.000,7.047,529.000,142.300,41.490,12.170,hard
1524.000,387.200,98.000,22.680,1411.000,287.700,76.120,19.070,326.300,82.680,23.000,7.046,526.800,141.700,41.120,11.940,hard
1512.000,382.600,96.400,22.340,1406.000,286.800,75.910,18.950,324.200,82.200,22.880,6.981,523.600,140.400,40.850,11.850,hard
1505.000,382.000,95.910,22.170,1405.000,285.500,75.770,18.890,322.900,81.810,22.860,6.984,522.000,139.900,40.660,11.790,hard
1500.000,379.300,95.820,22.150,1401.000,285.300,75.720,18.940,322.000,82.060,22.830,6.975,521.000,139.700,40.630,11.830,hard
1499.000,380.700,95.360,22.140,1405.000,286.100,75.790,18.920,323.800,81.840,22.800,6.964,521.400,139.700,40.570,11.810,hard
1497.000,380.800,95.330,22.150,1401.000,286.000,75.600,18.910,321.700,82.090,22.800,6.972,522.200,139.900,40.660,11.820,hard
1497.000,379.800,95.890,22.170,1402.000,286.100,75.790,18.950,324.000,82.000,22.890,6.986,522.000,140.000,40.680,11.840,hard
1500.000,380.700,95.960,22.270,1404.000,286.500,75.920,18.950,322.000,82.240,22.840,6.993,521.300,140.300,40.840,11.900,hard
1502.000,380.900,96.300,22.320,1402.000,286.600,75.820,18.970,322.600,82.070,22.940,6.994,522.800,140.600,40.900,11.940,hard
1506.000,381.800,96.280,22.440,1403.000,287.500,76.030,19.000,322.300,82.090,22.960,7.003,524.200,141.300,41.060,11.980,hard
1509.000,383.400,96.930,22.550,1405.000,287.500,76.080,19.020,324.700,82.310,22.970,7.027,526.000,141.100,41.270,12.040,hard
1514.000,384.100,97.310,22.750,1408.000,288.000,76.100,19.070,325.000,82.300,22.990,7.053,527.200,142.000,41.300,12.050,hard
1514.000,385.300,96.900,22.440,1407.000,286.100,75.720,18.870,325.100,82.240,22.920,7.004,522.800,140.100,40.760,11.830,hard
1500.000,381.300,95.320,22.130,1399.000,285.000,75.310,18.830,321.700,81.890,22.800,6.973,521.100,139.300,40.490,11.760,hard
1492.000,377.400,95.240,21.970,1400.000,284.600,75.420,18.750,322.600,81.710,22.750,6.970,518.500,138.800,40.250,11.710,hard
1487.000,376.500,94.540,21.960,1398.000,284.700,75.030,18.790,320.600,81.750,22.720,6.956,516.900,139.000,40.250,11.710,hard
1485.000,377.800,94.720,21.880,1397.000,283.600,75.170,18.770,323.000,81.500,22.770,6.949,517.300,139.000,40.240,11.720,hard
1483.000,375.600,94.600,21.860,1398.000,284.600,74.980,18.800,321.900,81.840,22.810,6.955,516.900,138.900,40.310,11.750,hard
1484.000,375.600,94.890,21.930,1396.000,284.900,75.140,18.810,324.500,81.440,22.780,6.972,517.800,139.300,40.390,11.760,hard
1485.000,376.100,95.210,21.990,1395.000,285.400,75.080,18.840,322.700,81.850,22.810,6.960,519.000,139.500,40.530,11.810,hard
1488.000,376.900,94.960,22.110,1395.000,285.200,75.390,18.840,321.000,81.950,22.840,6.989,519.600,139.500,40.550,11.850,hard
1490.000,378.900,95.690,22.180,1398.000,286.000,75.380,18.890,323.600,81.890,22.930,6.993,521.100,139.800,40.760,11.880,hard
1494.000,379.800,95.890,22.320,1402.000,286.000,75.420,18.950,324.100,82.110,22.880,7.012,521.200,140.500,40.910,11.930,hard
1499.000,380.900,95.900,22.460,1400.000,286.200,75.660,18.960,320.900,82.320,22.890,7.026,523.200,140.700,41.030,12.000,hard
1503.000,380.800,96.680,22.550,1402.000,287.000,75.740,19.040,322.900,82.350,23.000,7.034,524.600,141.100,41.130,12.030,hard
1504.000,380.500,95.960,22.300,1405.000,286.300,75.280,18.900,323.600,82.380,22.960,7.007,521.900,139.800,40.470,11.820,hard
1490.000,377.600,94.710,21.940,1395.000,284.400,75.090,18.780,323.100,81.580,22.770,6.972,518.500,139.000,40.340,11.740,hard
1484.000,375.400,94.090,21.840,1393.000,284.700,75.160,18.750,323.800,81.830,22.770,6.964,517.200,138.600,40.130,11.670,hard
1479.000,374.000,93.840,21.750,1396.000,285.000,75.100,18.770,321.800,81.730,22.750,6.953,516.000,138.300,40.170,11.650,hard
1478.000,374.400,94.210,21.750,1392.000,284.800,74.840,18.780,321.100,81.740,22.760,6.956,516.900,138.600,40.210,11.690,hard
1477.000,373.200,94.010,21.740,1393.000,284.500,75.000,18.790,321.500,81.550,22.790,6.961,515.700,138.600,40.190,11.740,hard
1476.000,374.700,93.600,21.770,1395.000,284.700,74.970,18.820,318.400,81.970,22.780,6.972,517.800,138.900,40.250,11.740,hard
1479.000,375.100,93.910,21.920,1393.000,285.000,75.180,18.840,320.800,81.640,22.780,6.995,517.900,139.100,40.360,11.770,hard
1481.000,375.000,94.640,21.960,1396.000,284.400,75.310,18.880,322.200,81.800,22.790,6.993,518.500,139.400,40.540,11.800,hard
1484.000,376.400,94.880,22.110,1398.000,285.600,75.380,18.880,320.700,81.900,22.880,7.000,520.100,139.900,40.580,11.870,hard
1488.000,377.400,94.970,22.220,1400.000,286.100,75.670,18.990,326.000,82.220,22.920,7.006,520.400,140.200,40.810,11.900,hard
1493.000,379.700,95.720,22.320,1406.000,287.300,75.760,18.990,324.900,82.160,23.010,7.022,523.000,140.300,40.970,11.970,hard
1497.000,379.700,95.580,22.320,1403.000,286.600,75.810,19.000,322.200,82.260,23.040,7.042,524.000,140.700,40.970,11.950,hard
1498.000,380.500,95.320,22.160,1400.000,285.900,75.580,18.870,322.800,82.330,22.890,7.000,520.400,139.600,40.360,11.760,hard
1486.000,375.600,94.410,21.860,1399.000,285.400,75.160,18.810,323.100,81.950,22.820,6.986,517.600,138.800,40.240,11.720,hard
1480.000,373.500,93.960,21.730,1396.000,284.800,75.250,18.810,322.500,81.930,22.770,6.963,517.000,138.200,40.120,11.680,hard
1477.000,373.300,93.910,21.720,1394.000,284.800,75.160,18.820,322.600,81.950,22.800,6.963,517.600,138.800,40.180,11.710,hard
1477.000,373.200,93.390,21.690,1396.000,284.700,75.020,18.790,322.000,81.950,22.840,6.976,515.800,138.800,40.120,11.710,hard
1477.000,373.800,93.700,21.790,1393.000,284.500,75.050,18.840,321.500,81.830,22.770,6.977,517.700,138.900,40.290,11.750,hard
1479.000,373.700,93.940,21.840,1394.000,285.500,75.120,18.860,321.300,81.950,22.840,6.992,518.200,139.100,40.350,11.770,hard
1482.000,375.600,94.170,21.900,1397.000,285.400,75.550,18.900,324.600,82.110,22.890,7.003,518.700,139.400,40.430,11.780,hard
1484.000,375.700,94.870,21.930,1399.000,285.800,75.610,18.890,323.500,82.020,22.870,6.992,520.300,139.800,40.590,11.860,hard
1488.000,378.400,95.120,22.040,1399.000,286.800,75.600,18.940,323.700,82.260,22.940,7.034,522.100,140.100,40.650,11.910,hard
1491.000,379.800,95.440,22.250,1404.000,287.200,75.890,19.000,323.100,82.470,23.020,7.030,522.500,140.600,40.820,11.940,hard
1496.000,380.700,95.770,22.260,1405.000,287.600,76.180,19.070,326.000,82.760,23.010,7.022,522.800,140.900,41.060,11.980,hard
1504.000,382.600,96.550,22.400,1407.000,287.700,76.070,18.970,327.500,82.490,23.080,7.057,523.400,140.800,40.760,11.920,hard
1495.000,379.200,94.860,22.000,1404.000,286.000,75.540,18.920,326.200,82.040,22.900,7.012,519.600,139.600,40.350,11.810,hard
1487.000,375.500,94.780,21.910,1400.000,286.400,75.220,18.860,322.100,82.150,22.880,6.993,518.500,139.100,40.410,11.750,hard
1484.000,375.100,93.810,21.820,1401.000,285.800,75.410,18.850,323.200,82.080,22.860,6.996,517.800,138.900,40.330,11.760,hard
1484.000,374.600,93.990,21.880,1394.000,286.000,75.290,18.820,325.400,82.130,22.830,6.977,518.900,139.300,40.280,11.760,hard
1482.000,373.900,93.730,21.810,1400.000,286.000,75.390,18.850,323.400,82.040,22.890,6.986,518.900,139.100,40.340,11.770,hard
1485.000,375.300,94.290,21.830,1401.000,286.700,75.470,18.890,324.700,82.140,22.870,7.008,519.300,139.400,40.460,11.840,hard
1487.000,377.600,94.300,22.000,1401.000,287.100,75.440,18.880,321.900,82.140,22.910,7.006,520.700,140.000,40.550,11.870,hard
1490.000,377.600,94.560,22.050,1400.000,285.500,75.440,18.950,325.000,82.280,22.910,7.019,522.000,139.900,40.740,11.910,hard
1493.000,377.800,94.790,22.150,1402.000,287.100,75.830,18.950,326.300,82.250,22.970,7.028,522.800,141.000,40.920,11.950,hard
1496.000,379.100,95.520,22.270,1408.000,287.100,75.880,19.020,322.900,82.720,23.020,7.064,523.700,141.000,41.000,11.970,hard
1502.000,382.200,95.870,22.410,1408.000,287.900,76.010,19.090,323.300,82.410,23.060,7.057,525.200,141.300,41.140,12.040,hard
1507.000,383.300,96.800,22.510,1410.000,288.500,76.340,19.110,327.500,82.850,23.090,7.076,526.400,141.800,41.310,12.050,hard
1509.000,383.600,96.290,22.290,1408.000,287.400,75.680,18.910,326.600,82.510,23.020,7.033,522.300,140.300,40.840,11.870,hard
1496.000,378.200,94.660,21.960,1404.000,287.300,75.590,18.870,324.700,82.210,22.900,7.000,520.600,139.700,40.560,11.830,hard
1492.000,376.600,94.340,21.840,1402.000,286.700,75.460,18.830,325.500,82.120,22.910,6.990,520.600,139.400,40.410,11.790,hard
1488.000,375.500,94.870,21.860,1403.000,286.000,75.450,18.840,325.000,82.040,22.850,6.991,520.100,139.500,40.400,11.820,hard
1488.000,377.100,94.090,21.910,1399.000,286.400,75.500,18.840,325.200,82.200,22.840,6.994,519.400,139.700,40.490,11.770,hard
1488.000,375.900,94.020,21.920,1406.000,286.200,75.480,18.860,323.300,81.960,22.840,6.996,521.200,139.600,40.610,11.840,hard
1490.000,377.700,94.310,21.960,1404.000,285.900,75.680,18.880,327.200,82.290,22.930,7.004,521.700,140.100,40.680,11.880,hard
1493.000,378.000,94.950,22.050,1401.000,286.500,75.700,18.870,323.700,82.460,23.010,7.019,522.000,140.400,40.790,11.890,hard
1495.000,379.500,94.870,22.110,1404.000,287.100,75.740,18.970,326.400,82.440,22.990,7.016,523.400,140.800,40.930,11.950,hard
1498.000,380.300,95.410,22.170,1407.000,287.700,76.090,18.980,322.900,82.340,22.990,7.018,524.000,141.100,41.030,11.980,hard
1503.000,381.200,95.810,22.330,1412.000,288.300,76.060,19.050,326.000,82.760,22.970,7.046,526.700,141.800,41.120,12.030,hard
1506.000,381.600,96.450,22.400,1406.000,288.400,76.070,19.080,325.800,83.070,23.070,7.060,528.100,142.400,41.400,12.100,hard
1512.000,384.500,96.730,22.610,1410.000,289.200,76.300,19.130,328.300,82.960,23.080,7.073,530.300,142.800,41.520,12.120,hard
1517.000,384.400,96.920,22.470,1412.000,288.400,76.090,18.990,328.800,83.310,23.120,7.064,528.500,142.100,41.070,11.970,hard
1504.000,381.800,95.540,22.140,1408.000,287.300,75.920,18.880,328.500,82.610,22.980,7.008,526.400,141.200,40.760,11.880,hard
1498.000,378.300,94.390,22.010,1408.000,286.800,75.560,18.850,324.500,82.720,22.920,7.002,524.200,140.700,40.640,11.840,hard
1493.000,376.400,94.420,21.870,1405.000,286.200,75.750,18.830,324.700,82.510,22.870,7.011,523.100,140.800,40.630,11.850,hard
1493.000,377.000,94.290,21.910,1405.000,286.500,75.420,18.810,325.100,82.700,22.900,7.008,523.900,140.500,40.640,11.840,hard
1493.000,377.700,94.590,21.890,1402.000,286.300,75.520,18.870,326.600,82.400,22.930,7.001,524.600,140.500,40.720,11.870,hard
1495.000,377.000,94.780,21.970,1403.000,286.900,75.780,18.880,325.700,82.720,22.970,7.001,524.600,140.900,40.910,11.890,hard
1498.000,378.500,94.970,22.050,1402.000,287.300,75.830,18.920,327.000,82.450,22.940,7.020,525.000,141.000,40.920,11.940,hard
1500.000,380.300,95.330,22.140,1407.000,287.500,75.780,18.970,327.200,82.480,22.960,7.014,526.700,141.500,41.110,12.000,hard
1503.000,380.700,95.780,22.160,1408.000,287.900,76.000,19.000,326.200,82.780,23.020,7.039,527.500,141.200,41.230,12.020,hard
1507.000,381.600,95.630,22.310,1409.000,288.600,76.190,19.040,325.800,82.960,23.050,7.051,528.400,142.300,41.350,12.090,hard
1513.000,383.100,97.040,22.450,1414.000,288.900,76.300,19.100,328.000,83.020,23.070,7.043,529.400,142.500,41.460,12.150,hard
1517.000,384.200,96.750,22.670,1415.000,289.300,76.520,19.120,328.600,82.910,23.110,7.078,529.800,142.800,41.590,12.130,hard
1520.000,383.900,96.680,22.530,1408.000,288.400,76.200,19.000,326.000,82.680,23.070,7.045,528.400,142.000,41.160,11.990,hard
1508.000,380.900,95.010,22.110,1410.000,288.100,75.830,18.880,326.100,82.380,22.940,6.995,524.900,140.700,40.960,11.910,hard
1502.000,379.800,95.150,22.010,1405.000,287.400,75.800,18.880,325.800,82.510,22.930,6.997,523.400,140.500,40.720,11.870,hard
1497.000,378.200,94.520,21.950,1407.000,287.100,75.530,18.880,326.400,82.230,22.850,6.991,523.500,140.400,40.730,11.870,hard
1497.000,378.300,94.610,21.910,1406.000,286.900,75.640,18.860,324.600,82.290,22.890,6.997,523.700,140.200,40.700,11.850,hard
1497.000,376.700,94.760,21.880,1405.000,287.200,75.620,18.880,324.300,82.100,22.900,6.994,524.500,140.400,40.830,11.880,hard
1498.000,378.000,94.730,21.980,1405.000,287.700,75.580,18.940,324.700,82.070,22.910,7.000,524.100,141.000,40.910,11.940,hard
1499.000,378.400,94.830,22.070,1407.000,287.900,76.080,18.930,322.000,82.350,22.930,7.017,524.900,141.100,41.010,11.970,hard
1502.000,380.400,95.010,22.130,1410.000,287.600,75.680,18.950,323.500,82.460,22.970,7.016,526.200,141.100,41.150,11.980,hard
1504.000,380.400,95.660,22.230,1407.000,288.300,76.140,19.000,324.600,82.320,23.030,7.027,525.800,141.300,41.250,12.030,hard
1509.000,381.800,95.880,22.300,1410.000,288.500,76.170,19.050,327.100,82.670,23.000,7.032,526.300,141.700,41.390,12.120,hard
1514.000,384.500,96.620,22.440,1411.000,289.300,76.290,19.030,327.700,82.610,23.060,7.026,528.600,142.300,41.400,12.090,hard
1513.000,383.200,96.360,22.230,1409.000,287.000,75.910,18.880,326.800,82.470,23.020,7.006,525.000,140.800,40.840,11.880,hard
1501.000,380.500,94.910,22.000,1408.000,286.800,75.740,18.860,324.500,82.200,22.890,6.980,523.500,139.900,40.700,11.850,hard
1496.000,376.200,94.230,21.850,1404.000,286.400,75.520,18.770,324.000,82.280,22.810,6.970,521.700,139.900,40.560,11.830,hard
1492.000,376.600,94.120,21.770,1406.000,286.900,75.390,18.820,324.000,81.970,22.780,6.954,521.900,139.700,40.540,11.810,hard
1491.000,375.600,93.820,21.780,1401.000,286.300,75.540,18.830,324.900,82.030,22.870,6.986,521.500,139.600,40.590,11.800,hard
1491.000,376.000,93.980,21.770,1408.000,286.500,75.670,18.800,325.300,82.050,22.820,6.971,520.700,139.600,40.650,11.850,hard
1492.000,376.000,94.210,21.800,1406.000,287.000,75.540,18.880,324.000,82.010,22.890,6.993,522.700,140.000,40.750,11.900,hard
1494.000,376.500,94.820,21.940,1403.000,286.300,75.740,18.900,324.500,82.040,22.920,6.971,522.900,140.400,40.840,11.890,hard
1497.000,377.500,94.880,22.030,1402.000,287.700,75.660,18.920,322.600,82.280,22.900,6.991,524.800,140.500,40.910,11.970,hard
1500.000,379.300,95.450,22.090,1406.000,287.800,76.020,18.970,322.700,82.260,22.930,6.992,524.400,141.000,41.040,12.020,hard
1504.000,380.700,96.170,22.230,1406.000,288.700,76.050,19.010,325.000,82.410,23.020,7.025,525.100,141.600,41.120,12.050,hard
1509.000,382.300,96.160,22.390,1406.000,288.600,76.410,19.080,324.400,82.220,23.020,7.019,526.400,141.800,41.370,12.080,hard
1515.000,383.900,96.140,22.510,1412.000,289.400,76.550,19.020,326.100,82.800,23.070,7.042,528.800,142.000,41.530,12.090,hard
1513.000,382.700,95.550,22.200,1408.000,287.900,75.750,18.940,325.900,82.380,22.940,7.005,524.100,140.500,40.750,11.910,hard
1499.000,378.200,94.780,21.840,1408.000,286.300,75.580,18.850,325.300,82.310,22.830,6.968,522.000,139.900,40.600,11.830,hard
1494.000,377.600,94.140,21.740,1406.000,285.800,75.650,18.820,323.900,81.800,22.860,6.965,520.000,139.400,40.460,11.760,hard
1489.000,375.100,94.060,21.710,1404.000,286.800,75.270,18.830,321.900,81.880,22.780,6.949,519.600,139.200,40.470,11.790,hard
1487.000,375.800,93.950,21.690,1397.000,286.400,75.360,18.800,322.800,81.710,22.800,6.949,519.500,139.000,40.480,11.750,hard
1485.000,376.700,94.050,21.650,1398.000,286.000,75.450,18.820,322.700,81.680,22.790,6.957,519.600,139.200,40.460,11.810,hard
1486.000,375.500,94.080,21.710,1404.000,286.100,75.540,18.880,322.700,81.900,22.800,6.964,520.200,139.600,40.560,11.810,hard
1489.000,375.800,94.600,21.840,1401.000,286.200,75.610,18.830,323.200,81.790,22.860,6.966,520.500,139.700,40.630,11.860,hard
1491.000,377.000,94.970,21.880,1404.000,286.500,75.740,18.870,322.700,82.160,22.850,6.993,521.900,140.200,40.740,11.920,hard
1495.000,377.500,94.630,21.910,1404.000,287.200,75.730,18.920,324.100,82.000,22.870,6.978,523.200,140.600,40.990,11.920,hard
1499.000,379.500,95.170,22.160,1401.000,287.700,75.970,19.010,327.300,82.260,22.940,7.001,523.600,140.900,40.970,11.980,hard
1503.000,380.800,95.700,22.230,1405.000,288.100,76.270,19.050,324.100,82.470,22.930,7.018,524.600,141.500,41.230,12.010,hard
1506.000,381.700,96.400,22.350,1407.000,288.700,76.590,19.090,324.300,82.510,22.960,7.039,526.400,141.500,41.220,12.110,hard
1512.000,383.900,96.940,22.450,1413.000,289.100,76.680,19.050,325.300,82.440,23.030,7.042,528.300,141.800,41.330,12.020,hard
1509.000,381.900,96.130,22.120,1406.000,287.400,75.990,18.910,325.500,82.040,22.940,6.993,523.300,140.100,40.660,11.840,hard
1495.000,377.100,94.440,21.810,1403.000,286.900,75.790,18.850,322.500,81.740,22.830,6.954,520.500,139.700,40.580,11.800,hard
1491.000,374.500,94.340,21.700,1400.000,286.500,75.620,18.800,322.500,81.940,22.830,6.931,519.100,139.300,40.430,11.750,hard
1487.000,374.200,93.880,21.720,1398.000,286.200,75.500,18.800,322.200,81.620,22.750,6.952,518.900,139.000,40.300,11.750,hard
1485.000,374.100,93.660,21.700,1401.000,286.500,75.380,18.790,322.100,81.700,22.750,6.949,518.900,138.900,40.340,11.750,hard
1485.000,374.300,93.920,21.720,1393.000,286.100,75.580,18.820,322.200,81.700,22.790,6.949,519.100,139.400,40.410,11.780,hard
1487.000,375.500,94.180,21.680,1401.000,286.100,75.570,18.860,324.600,81.880,22.760,6.949,519.800,139.300,40.450,11.800,hard
1489.000,376.400,94.320,21.830,1400.000,286.600,75.530,18.840,321.900,81.990,22.790,6.965,520.700,139.600,40.560,11.850,hard
1492.000,377.200,95.020,21.890,1404.000,287.000,76.010,18.890,323.000,81.880,22.860,6.979,520.900,139.900,40.710,11.870,hard
1494.000,379.600,94.770,21.950,1405.000,287.700,76.120,18.970,322.000,82.070,22.880,6.984,522.000,140.300,40.710,11.930,hard
1498.000,380.100,94.710,22.090,1406.000,287.900,76.100,19.000,324.900,82.320,22.860,7.004,523.500,140.400,40.960,11.950,hard
1503.000,381.100,95.980,22.280,1406.000,288.200,76.300,19.110,325.400,82.320,22.850,7.015,523.700,140.900,41.000,12.010,hard
1508.000,383.200,96.340,22.190,1407.000,287.800,76.000,18.950,322.900,82.230,22.900,7.009,523.800,140.600,40.680,11.890,hard
1496.000,377.300,94.400,21.720,1401.000,287.200,75.680,18.860,322.100,81.950,22.720,6.947,518.500,139.300,40.330,11.770,hard
1489.000,374.700,93.720,21.660,1402.000,286.900,75.600,18.840,324.300,81.700,22.740,6.936,517.900,138.900,40.240,11.710,hard
1486.000,373.500,93.670,21.520,1400.000,286.700,75.340,18.770,323.700,81.400,22.700,6.929,517.400,138.600,40.130,11.690,hard
1483.000,373.600,93.490,21.600,1401.000,287.400,75.530,18.760,323.700,81.610,22.690,6.936,516.700,138.600,40.110,11.690,hard
1482.000,373.200,93.620,21.530,1399.000,286.300,75.450,18.800,322.300,81.360,22.720,6.926,517.600,138.500,40.160,11.700,hard
1483.000,373.600,93.560,21.600,1396.000,286.500,75.600,18.840,324.600,81.460,22.670,6.949,518.800,138.500,40.240,11.730,hard
1485.000,374.000,93.690,21.690,1399.000,286.400,75.710,18.860,323.800,81.740,22.740,6.955,518.000,138.800,40.340,11.770,hard
1487.000,375.000,94.180,21.710,1403.000,287.100,75.720,18.880,322.000,81.740,22.780,6.968,518.900,139.500,40.420,11.830,hard
1488.000,377.200,94.450,21.780,1399.000,286.800,75.880,18.910,322.600,82.020,22.850,6.956,520.300,139.300,40.530,11.840,hard
1493.000,378.400,94.620,21.870,1402.000,287.800,75.890,19.020,321.300,82.060,22.890,6.976,521.400,139.800,40.660,11.890,hard
1496.000,377.900,95.230,22.000,1403.000,288.000,75.930,19.040,323.700,82.160,22.860,6.997,522.200,140.500,40.820,11.940,hard
1502.000,380.400,95.590,21.980,1407.000,288.100,76.160,18.940,324.000,82.040,22.940,7.006,522.400,140.000,40.580,11.810,hard
1492.000,375.800,94.280,21.580,1404.000,286.800,75.490,18.850,322.400,81.470,22.720,6.936,517.400,138.500,40.130,11.670,hard
1482.000,374.300,93.160,21.450,1400.000,286.300,75.260,18.760,320.200,81.710,22.650,6.919,515.500,138.000,39.890,11.610,hard
1477.000,369.800,92.740,21.280,1395.000,285.900,75.380,18.750,321.400,81.650,22.720,6.915,514.800,137.500,39.780,11.590,hard
1473.000,371.600,92.530,21.270,1395.000,285.100,75.280,18.720,320.600,81.700,22.690,6.904,514.800,137.700,39.790,11.580,hard
1471.000,370.800,92.220,21.230,1392.000,284.900,75.320,18.780,320.500,81.420,22.590,6.920,513.800,137.700,39.820,11.570,hard
1471.000,370.300,92.650,21.310,1394.000,285.600,75.200,18.760,319.300,81.510,22.640,6.935,515.200,137.600,39.950,11.600,hard
1472.000,370.600,92.710,21.340,1394.000,285.000,75.320,18.780,321.300,81.610,22.700,6.935,515.800,138.100,39.950,11.670,hard
1473.000,372.200,92.130,21.400,1394.000,285.100,75.280,18.790,321.800,81.640,22.740,6.948,515.500,138.100,40.090,11.690,hard
1475.000,372.900,93.420,21.470,1398.000,285.000,75.400,18.860,321.100,81.560,22.710,6.961,516.700,138.600,40.180,11.710,hard
1479.000,374.800,93.550,21.600,1396.000,286.300,75.470,18.920,322.900,81.620,22.780,6.956,517.700,138.900,40.300,11.720,hard
1483.000,375.500,93.730,21.630,1401.000,286.500,75.810,18.980,321.800,82.010,22.830,6.974,518.700,139.000,40.460,11.800,hard
1486.000,373.500,94.340,21.760,1399.000,287.100,75.870,18.980,323.700,81.970,22.870,6.993,520.200,139.700,40.600,11.850,hard
1491.000,374.900,94.300,21.900,1403.000,287.800,75.970,19.000,324.500,82.200,22.910,7.016,522.100,140.100,40.580,11.870,hard
1493.000,375.700,94.340,21.730,1398.000,287.100,75.720,18.840,326.400,82.220,22.810,6.993,518.800,138.600,40.200,11.670,hard
1479.000,370.500,92.700,21.330,1399.000,284.900,75.510,18.780,321.000,81.450,22.730,6.946,515.600,137.900,39.890,11.610,hard
1473.000,369.900,92.370,21.180,1400.000,285.400,75.290,18.720,320.500,81.520,22.730,6.940,515.000,137.700,39.690,11.540,hard
1467.000,369.500,91.570,21.090,1395.000,285.600,75.160,18.720,323.100,81.660,22.680,6.940,513.500,137.500,39.720,11.520,hard
1465.000,369.600,92.000,21.170,1392.000,284.400,75.050,18.720,321.200,81.320,22.680,6.942,513.900,137.400,39.690,11.520,hard
1465.000,367.700,91.760,21.120,1392.000,284.100,75.170,18.710,322.000,81.700,22.700,6.952,513.700,137.100,39.800,11.570,hard
1467.000,368.700,92.050,21.120,1394.000,284.500,75.260,18.840,322.200,81.490,22.740,6.954,515.100,137.500,39.880,11.620,hard
1467.000,371.000,92.050,21.220,1396.000,285.400,75.140,18.810,322.600,81.600,22.740,6.951,515.000,137.900,40.000,11.620,hard
1468.000,369.100,92.730,21.220,1394.000,284.800,75.310,18.820,323.700,81.750,22.790,6.962,516.400,138.100,40.030,11.670,hard
1471.000,371.400,92.860,21.430,1396.000,286.100,75.600,18.910,322.700,81.980,22.790,6.967,516.700,138.200,40.190,11.700,hard
1474.000,372.500,92.600,21.540,1397.000,286.900,75.820,18.890,322.900,81.850,22.860,7.007,519.200,138.700,40.270,11.750,hard
1480.000,372.900,93.490,21.520,1399.000,287.000,75.950,18.980,322.600,81.870,22.880,7.003,519.000,139.500,40.410,11.810,hard
1486.000,374.300,93.830,21.680,1400.000,287.600,76.020,19.040,325.100,81.910,22.950,7.014,519.600,139.800,40.610,11.820,hard
1490.000,376.800,94.110,21.830,1403.000,288.200,76.390,19.110,326.000,82.130,23.000,7.022,522.500,140.500,40.740,11.900,hard
1495.000,378.000,95.050,21.980,1405.000,289.300,76.350,19.050,324.200,82.560,23.030,7.042,523.100,140.300,40.590,11.860,hard
1489.000,375.500,93.580,21.480,1402.000,286.200,75.750,18.930,323.800,82.130,22.910,6.992,518.400,138.900,40.220,11.700,hard
1479.000,372.400,92.990,21.350,1398.000,286.600,75.650,18.870,324.200,81.730,22.780,6.977,517.000,138.300,40.050,11.650,hard
1474.000,369.900,92.520,21.190,1399.000,286.700,75.410,18.780,323.500,81.860,22.800,6.965,515.400,138.100,39.880,11.590,hard
1471.000,371.500,92.340,21.210,1397.000,285.800,75.650,18.860,323.800,81.760,22.780,6.963,515.700,138.100,39.920,11.650,hard
1472.000,368.900,92.010,21.190,1399.000,286.100,75.520,18.890,323.800,81.670,22.810,6.974,516.700,138.100,39.960,11.640,hard
1471.000,370.900,92.720,21.250,1403.000,286.400,75.670,18.880,321.100,81.890,22.860,6.996,518.000,138.500,40.040,11.670,hard
1473.000,370.400,93.060,21.270,1403.000,286.800,75.540,18.910,323.100,81.810,22.850,6.992,519.000,138.700,40.140,11.680,hard
1476.000,372.300,93.070,21.390,1398.000,287.200,75.740,18.940,324.500,81.940,22.910,7.002,518.900,139.000,40.300,11.720,hard
1478.000,373.400,93.270,21.420,1400.000,287.100,75.820,18.980,324.000,82.320,22.920,7.010,519.000,139.300,40.400,11.780,hard
1481.000,373.300,93.720,21.560,1405.000,287.600,76.090,19.050,323.700,82.290,22.940,7.025,520.500,139.800,40.480,11.820,hard
1485.000,374.900,94.220,21.660,1405.000,288.700,76.500,19.130,323.300,82.390,22.980,7.032,520.900,139.700,40.610,11.840,hard
1489.000,377.800,94.370,21.750,1406.000,289.000,76.400,19.140,327.300,82.720,23.040,7.049,522.900,140.700,40.800,11.870,hard
1492.000,375.000,93.900,21.640,1407.000,288.000,76.110,18.960,325.700,82.330,22.970,7.014,519.400,139.100,40.320,11.720,hard
1479.000,372.300,92.650,21.220,1399.000,286.700,75.810,18.910,323.300,81.970,22.880,6.990,518.800,138.200,40.140,11.680,hard
1474.000,371.000,92.530,21.130,1400.000,287.000,75.660,18.880,324.900,82.070,22.860,6.988,517.100,138.100,39.860,11.620,hard
1471.000,370.100,92.480,21.060,1402.000,286.000,75.720,18.910,321.900,82.240,22.880,6.990,516.800,137.900,40.000,11.630,hard
1470.000,369.600,92.590,21.100,1397.000,286.100,75.600,18.860,324.000,81.720,22.840,6.977,516.600,137.900,39.930,11.620,hard
1469.000,370.500,92.420,21.160,1398.000,286.700,75.730,18.930,321.400,81.940,22.900,6.979,516.400,138.400,40.080,11.640,hard
1471.000,370.500,92.230,21.200,1397.000,286.900,75.750,18.930,324.800,82.110,22.950,7.006,518.000,138.300,40.080,11.670,hard
1472.000,371.400,92.880,21.290,1396.000,287.000,75.850,18.980,322.600,82.030,22.880,7.025,518.800,139.000,40.240,11.720,hard
1474.000,372.400,92.380,21.370,1402.000,286.800,76.090,19.010,324.100,82.160,22.910,7.017,518.000,139.100,40.300,11.760,hard
1479.000,371.800,92.900,21.480,1401.000,287.500,76.320,19.050,322.800,82.330,23.010,7.040,519.600,139.400,40.370,11.820,hard
1482.000,374.000,93.470,21.550,1409.000,288.200,76.480,19.090,325.400,82.320,23.020,7.035,520.600,139.800,40.640,11.820,hard
1486.000,376.300,93.850,21.690,1407.000,288.800,76.530,19.150,323.300,82.500,23.150,7.057,522.600,140.300,40.630,11.880,hard
1491.000,377.100,94.260,21.860,1409.000,289.500,76.690,19.230,324.700,82.810,23.170,7.065,523.500,140.400,40.920,11.930,hard
1496.000,379.000,95.390,21.930,1408.000,290.100,76.980,19.280,325.300,82.880,23.150,7.084,525.600,140.900,41.110,11.960,hard
1501.000,381.800,95.490,22.020,1415.000,290.100,76.890,19.230,324.600,83.000,23.210,7.078,525.300,140.800,40.830,11.850,hard
1493.000,375.400,93.950,21.560,1406.000,289.000,76.270,19.050,323.700,82.360,23.050,7.048,520.400,139.200,40.340,11.760,hard
1484.000,371.900,93.470,21.360,1409.000,287.900,76.270,18.940,325.300,82.280,23.000,7.017,519.500,138.600,40.170,11.640,hard
