A-DC1,A-DC2,A-DC3,A-DC4,A-DC5,A-DC6,A-DC7,A-DC8,B-DC1,B-DC2,B-DC3,B-DC4,B-DC5,B-DC6,B-DC7,B-DC8,condition
1606.000,239.100,44.830,6.589,1038.000,126.700,22.620,3.111,161.500,30.200,4.864,1.270,440.000,104.800,19.770,5.096,baseline
1612.000,240.700,44.870,6.613,1040.000,126.500,22.550,3.073,160.600,29.910,4.884,1.270,437.100,103.900,19.520,5.002,baseline
1597.000,235.100,43.890,6.465,1030.000,125.800,22.380,3.055,163.400,29.670,4.830,1.261,429.100,101.500,19.280,4.885,baseline
1583.000,233.600,43.490,6.429,1033.000,124.900,22.400,3.027,164.300,29.890,4.785,1.242,428.300,102.000,19.260,4.918,baseline
1583.000,235.400,43.320,6.429,1038.000,124.600,22.380,3.045,161.100,29.710,4.827,1.251,429.000,101.500,19.070,4.955,baseline
1582.000,235.100,43.310,6.385,1033.000,124.300,22.340,3.054,161.200,29.860,4.721,1.249,428.100,102.000,19.150,4.926,baseline
1582.000,234.600,43.600,6.444,1030.000,125.000,22.360,3.042,164.800,29.800,4.767,1.252,429.000,102.300,19.190,4.949,baseline
1588.000,235.800,43.440,6.426,1031.000,125.200,22.380,3.073,162.000,29.950,4.802,1.263,430.600,102.800,19.410,4.939,baseline
1591.000,238.100,44.160,6.493,1034.000,125.600,22.490,3.076,163.400,30.110,4.798,1.264,432.900,103.100,19.450,5.039,baseline
1598.000,237.200,44.250,6.525,1036.000,126.100,22.500,3.069,165.400,30.250,4.744,1.262,435.800,103.900,19.490,5.015,baseline
1596.000,236.300,44.210,6.449,1033.000,124.500,22.190,3.050,164.600,29.850,4.756,1.240,425.200,101.400,19.020,4.888,baseline
1575.000,232.800,43.430,6.291,1028.000,124.300,22.130,3.017,164.000,30.070,4.713,1.245,422.200,100.600,18.840,4.849,baseline
1570.000,231.600,43.310,6.357,1028.000,124.700,22.330,3.006,159.700,29.840,4.797,1.225,427.100,101.700,18.760,4.913,baseline
1572.000,231.200,42.830,6.332,1027.000,124.600,22.170,3.047,163.800,29.390,4.753,1.233,425.800,101.300,18.930,4.898,baseline
1569.000,233.100,42.860,6.366,1024.000,124.300,22.260,3.009,159.000,29.590,4.787,1.238,426.700,101.000,18.860,4.912,baseline
1574.000,233.300,43.660,6.397,1027.000,124.800,22.240,3.049,160.800,29.810,4.755,1.244,428.500,101.700,19.000,4.853,baseline
1578.000,234.200,43.710,6.402,1028.000,124.700,22.370,3.040,161.800,29.970,4.853,1.236,428.800,102.300,19.330,4.994,baseline
1586.000,235.700,43.940,6.481,1029.000,124.600,22.420,3.083,162.300,29.750,4.809,1.261,433.800,102.600,19.390,4.984,baseline
1593.000,236.700,44.100,6.463,1027.000,125.000,22.210,3.035,162.100,30.170,4.837,1.269,431.200,101.900,19.050,4.902,baseline
1573.000,233.700,42.930,6.313,1025.000,123.900,22.170,3.014,161.200,29.550,4.774,1.249,424.800,100.700,18.710,4.807,baseline
1560.000,230.100,42.500,6.260,1020.000,123.300,22.060,3.023,159.200,29.410,4.732,1.237,422.600,100.300,18.550,4.820,baseline
1558.000,229.500,42.320,6.215,1026.000,124.000,21.960,3.014,164.000,29.320,4.793,1.239,426.400,100.600,18.700,4.830,baseline
1556.000,229.100,42.580,6.263,1022.000,123.600,22.060,3.030,158.500,29.440,4.757,1.245,422.800,100.200,18.800,4.852,baseline
1559.000,228.600,42.590,6.247,1022.000,123.000,22.040,3.011,160.800,29.660,4.727,1.240,423.400,100.300,18.810,4.894,baseline
1563.000,230.900,42.650,6.286,1025.000,123.200,22.090,3.005,160.000,29.770,4.770,1.242,429.100,101.700,18.830,4.926,baseline
1568.000,231.600,42.880,6.335,1025.000,124.000,22.080,3.049,160.700,29.250,4.837,1.235,426.700,102.200,19.000,4.925,baseline
1575.000,233.200,43.120,6.378,1025.000,124.200,22.290,3.018,162.300,30.050,4.775,1.248,432.600,103.200,19.110,4.956,baseline
1578.000,234.100,42.860,6.294,1021.000,123.600,22.020,2.974,167.100,30.150,4.768,1.249,421.900,100.500,18.670,4.741,baseline
1549.000,229.200,42.340,6.204,1016.000,122.700,22.010,2.997,156.400,29.420,4.705,1.236,417.700,99.270,18.540,4.758,baseline
1544.000,227.600,42.140,6.122,1020.000,122.400,21.850,3.003,161.100,29.640,4.723,1.232,420.900,99.510,18.660,4.827,baseline
1545.000,228.000,41.880,6.142,1018.000,122.800,21.960,2.987,164.900,29.910,4.695,1.240,419.900,99.710,18.660,4.762,baseline
1543.000,225.600,42.080,6.165,1018.000,122.400,21.800,2.989,158.300,29.790,4.757,1.250,422.500,99.900,18.650,4.746,baseline
1545.000,228.700,42.480,6.180,1024.000,123.000,21.810,2.990,160.600,29.330,4.776,1.225,422.200,100.300,18.650,4.890,baseline
1551.000,228.500,42.650,6.193,1021.000,123.200,21.980,3.019,161.200,29.550,4.725,1.255,426.000,100.500,18.830,4.867,baseline
1557.000,228.900,42.790,6.281,1021.000,123.900,22.040,3.028,160.400,29.730,4.769,1.260,428.700,101.500,19.150,4.936,baseline
1566.000,232.400,43.360,6.355,1026.000,123.900,22.160,3.019,160.800,29.300,4.734,1.246,427.500,101.900,19.160,4.953,baseline
1574.000,232.800,43.230,6.336,1022.000,124.200,21.990,2.986,157.800,29.950,4.893,1.247,426.700,100.700,18.690,4.829,baseline
1549.000,227.400,42.260,6.138,1013.000,122.300,21.970,2.969,165.100,29.520,4.762,1.236,421.000,99.390,18.530,4.741,baseline
1539.000,225.400,41.750,6.123,1018.000,122.600,21.830,2.982,160.700,29.360,4.734,1.221,419.200,99.770,18.500,4.820,baseline
1540.000,226.600,41.960,6.138,1015.000,121.500,21.890,2.984,156.500,29.260,4.662,1.218,420.000,100.200,18.460,4.780,baseline
1541.000,226.200,41.650,6.115,1020.000,122.600,21.890,2.975,156.700,29.620,4.742,1.235,421.400,99.590,18.720,4.811,baseline
1542.000,227.900,41.910,6.138,1021.000,123.000,21.900,2.981,158.300,29.720,4.691,1.226,420.900,100.300,18.710,4.804,baseline
1547.000,227.200,42.030,6.184,1021.000,122.900,22.030,3.005,161.500,29.740,4.750,1.251,424.600,100.700,18.880,4.876,baseline
1553.000,229.500,42.760,6.208,1021.000,123.100,21.880,3.013,162.600,29.940,4.731,1.241,426.900,102.100,18.970,4.895,baseline
1561.000,229.600,42.670,6.309,1022.000,123.000,22.180,3.014,161.600,29.360,4.771,1.250,431.100,101.900,19.070,4.999,baseline
1568.000,231.900,43.180,6.299,1022.000,122.800,21.930,3.009,159.500,29.540,4.751,1.252,430.700,101.800,19.100,4.870,baseline
1551.000,227.500,41.790,6.149,1016.000,122.600,21.750,2.963,155.300,29.320,4.749,1.243,421.300,99.900,18.390,4.745,baseline
1536.000,224.400,41.840,6.082,1015.000,122.500,21.680,2.981,159.100,29.190,4.729,1.236,421.300,99.730,18.510,4.720,baseline
1537.000,224.900,41.970,6.102,1017.000,122.800,21.940,2.959,158.800,29.090,4.740,1.244,421.900,99.370,18.610,4.808,baseline
1539.000,225.900,42.000,6.054,1019.000,122.100,21.810,2.964,157.100,29.440,4.743,1.243,422.200,99.850,18.500,4.825,baseline
1538.000,225.000,41.860,6.135,1017.000,122.000,22.020,2.969,161.400,29.580,4.730,1.262,424.400,100.400,18.510,4.829,baseline
1545.000,227.500,42.270,6.187,1018.000,122.400,21.930,2.986,159.500,29.640,4.724,1.230,425.600,101.400,18.690,4.889,baseline
1550.000,228.600,42.460,6.234,1023.000,122.700,22.140,2.998,158.000,29.520,4.785,1.244,428.000,101.900,18.940,4.895,baseline
1558.000,230.600,42.690,6.244,1024.000,123.500,22.130,3.018,162.100,30.020,4.732,1.252,430.400,102.000,19.050,4.968,baseline
1565.000,230.900,42.950,6.270,1017.000,122.600,21.750,2.973,169.000,29.550,4.857,1.266,425.000,99.850,18.580,4.805,baseline
1538.000,227.000,41.620,6.080,1013.000,121.700,21.710,2.966,160.300,29.760,4.742,1.238,419.700,99.020,18.430,4.755,baseline
1531.000,223.700,41.290,6.057,1015.000,122.100,21.710,2.969,161.700,29.690,4.660,1.243,422.400,99.790,18.500,4.796,baseline
1533.000,224.400,41.940,6.099,1009.000,121.400,21.640,2.972,161.000,29.630,4.724,1.235,422.400,99.960,18.450,4.797,baseline
1534.000,224.400,41.820,6.052,1015.000,121.900,21.880,2.962,159.000,29.310,4.745,1.245,423.300,100.000,18.500,4.771,baseline
1536.000,227.100,41.770,6.124,1017.000,122.500,21.840,2.973,163.500,29.810,4.710,1.230,422.100,101.100,18.530,4.805,baseline
1543.000,227.200,41.990,6.174,1013.000,122.900,21.930,2.956,162.900,29.920,4.819,1.240,425.800,101.900,18.860,4.883,baseline
1550.000,228.100,42.380,6.260,1017.000,121.800,21.930,2.975,160.200,30.010,4.826,1.240,427.500,101.900,19.050,4.940,baseline
1558.000,229.200,42.720,6.258,1020.000,123.000,22.070,2.978,161.200,30.350,4.854,1.248,431.800,102.600,19.190,4.931,baseline
1551.000,228.200,42.130,6.125,1018.000,121.400,21.740,2.957,161.400,29.420,4.799,1.233,420.400,99.300,18.430,4.753,baseline
1527.000,223.900,41.390,6.022,1014.000,121.300,21.730,2.970,161.200,29.340,4.758,1.231,418.500,99.840,18.330,4.704,baseline
1525.000,224.300,41.500,5.995,1014.000,121.400,21.830,2.989,164.200,29.460,4.734,1.228,420.700,99.470,18.420,4.768,baseline
1527.000,223.000,41.790,6.065,1010.000,121.700,21.620,2.966,159.100,29.270,4.762,1.253,421.600,100.100,18.640,4.754,baseline
1528.000,224.000,41.690,6.063,1016.000,122.000,21.840,2.971,158.500,29.630,4.794,1.234,423.700,100.700,18.550,4.842,baseline
1533.000,225.400,41.860,6.119,1018.000,122.300,21.950,2.963,160.300,29.670,4.765,1.236,425.200,100.600,18.790,4.845,baseline
1541.000,226.500,42.170,6.174,1018.000,122.100,21.920,2.971,161.000,29.870,4.757,1.254,428.000,100.900,18.870,4.893,baseline
1548.000,227.400,42.410,6.231,1016.000,122.700,22.050,2.975,161.300,30.150,4.865,1.257,429.400,101.800,19.020,4.948,baseline
1556.000,231.200,43.100,6.178,1016.000,122.000,21.960,2.971,165.200,30.170,4.774,1.264,426.200,100.800,18.510,4.768,baseline
1532.000,225.200,41.360,6.032,1014.000,121.900,21.780,2.944,165.700,29.680,4.767,1.236,421.300,99.910,18.550,4.749,baseline
1524.000,224.600,41.620,6.019,1011.000,121.700,21.850,2.946,159.100,29.560,4.779,1.258,420.500,100.400,18.460,4.740,baseline
1527.000,224.600,41.540,6.031,1014.000,121.800,21.800,2.958,160.100,29.700,4.822,1.243,422.000,99.880,18.480,4.759,baseline
1527.000,222.900,41.770,6.021,1014.000,121.700,21.760,2.969,160.600,29.580,4.742,1.242,424.000,101.000,18.630,4.803,baseline
1532.000,226.200,41.650,6.064,1014.000,123.100,21.830,2.974,159.500,29.950,4.817,1.245,426.900,100.900,18.820,4.860,baseline
1538.000,227.100,42.020,6.136,1015.000,122.400,21.870,2.981,162.000,29.750,4.756,1.248,427.000,101.000,18.940,4.921,baseline
1545.000,228.800,42.440,6.172,1019.000,123.000,22.000,2.983,162.700,30.000,4.863,1.252,430.100,101.800,19.030,4.932,baseline
1554.000,229.700,42.780,6.241,1025.000,122.600,22.010,2.962,162.400,29.620,4.824,1.274,432.800,102.600,19.040,4.865,baseline
1542.000,226.300,41.690,6.134,1010.000,121.800,21.680,2.944,159.800,29.640,4.716,1.244,425.300,100.200,18.520,4.747,baseline
1525.000,224.000,41.330,6.055,1012.000,121.400,21.870,2.946,160.900,29.650,4.765,1.247,424.000,100.100,18.420,4.793,baseline
1526.000,223.900,41.690,6.137,1013.000,121.200,21.760,2.965,158.300,29.840,4.700,1.243,423.200,100.500,18.610,4.834,baseline
1531.000,224.800,41.580,6.076,1013.000,121.600,21.800,2.944,166.500,29.750,4.749,1.248,422.700,100.100,18.680,4.773,baseline
1529.000,226.100,41.490,6.087,1013.000,122.100,21.890,2.949,160.800,30.160,4.746,1.247,426.100,100.900,18.680,4.837,baseline
1536.000,226.600,42.050,6.161,1020.000,121.700,21.860,2.969,164.100,30.020,4.832,1.253,427.900,101.800,18.770,4.829,baseline
1542.000,229.400,42.350,6.175,1020.000,122.300,21.910,2.989,162.500,29.860,4.811,1.249,429.300,101.800,18.860,4.908,baseline
1550.000,230.500,42.860,6.203,1022.000,123.000,22.050,2.954,163.400,30.490,4.843,1.241,432.600,101.600,18.980,4.932,baseline
1545.000,228.500,42.060,6.077,1016.000,121.700,21.630,2.941,163.000,29.980,4.787,1.268,423.300,100.500,18.680,4.699,baseline
1522.000,223.000,41.040,6.009,1011.000,122.000,21.710,2.933,158.100,29.850,4.698,1.231,422.200,99.150,18.400,4.716,baseline
1521.000,223.100,41.150,6.044,1012.000,121.800,21.620,2.947,160.300,29.960,4.798,1.236,423.000,100.800,18.430,4.772,baseline
1525.000,225.000,41.240,6.048,1008.000,122.400,21.970,2.930,165.700,29.510,4.777,1.266,426.300,100.700,18.540,4.759,baseline
1523.000,225.300,41.810,6.074,1009.000,122.200,21.880,2.970,164.700,29.910,4.778,1.239,424.400,100.600,18.670,4.773,baseline
1528.000,225.800,41.850,6.084,1018.000,122.000,21.910,2.933,167.900,30.070,4.773,1.240,425.600,101.500,18.750,4.829,baseline
1536.000,228.400,42.040,6.145,1016.000,122.300,21.960,2.968,162.900,29.370,4.841,1.242,430.000,102.100,18.830,4.873,baseline
1542.000,227.600,42.550,6.225,1017.000,121.800,22.040,2.983,161.100,29.730,4.837,1.246,430.500,102.500,19.050,4.935,baseline
1543.000,228.400,42.100,6.103,1015.000,121.800,21.790,2.958,165.000,29.830,4.807,1.244,423.300,99.840,18.420,4.752,baseline
1517.000,221.600,41.190,6.001,1006.000,121.900,21.680,2.915,162.200,29.510,4.768,1.249,420.700,99.360,18.520,4.689,baseline
1514.000,222.700,41.010,5.943,1004.000,120.600,21.650,2.927,162.600,29.610,4.762,1.234,418.800,100.200,18.350,4.714,baseline
1516.000,223.200,41.300,5.989,1006.000,121.500,21.750,2.933,163.000,29.760,4.790,1.237,422.100,99.540,18.370,4.697,baseline
1518.000,224.000,41.440,6.045,1004.000,121.000,21.750,2.946,160.300,29.450,4.723,1.251,423.100,99.910,18.370,4.738,baseline
1522.000,224.700,42.110,6.062,1012.000,120.900,21.810,2.953,160.000,29.740,4.793,1.246,423.000,100.600,18.450,4.745,baseline
1528.000,226.700,41.300,6.138,1014.000,122.200,21.700,2.959,158.100,29.650,4.760,1.255,428.200,100.800,18.630,4.830,baseline
1534.000,227.800,42.080,6.109,1016.000,121.700,21.830,2.961,163.200,30.310,4.819,1.275,427.900,101.200,18.700,4.817,baseline
1543.000,228.400,42.150,6.199,1017.000,121.800,21.790,2.942,160.500,29.830,4.825,1.283,428.000,100.700,18.490,4.700,baseline
1521.000,223.800,41.050,6.039,1011.000,121.000,21.660,2.929,159.700,29.570,4.733,1.265,419.200,99.620,18.440,4.709,baseline
1511.000,221.400,41.340,5.978,1012.000,120.800,21.520,2.938,159.900,29.360,4.775,1.228,420.500,99.090,18.390,4.689,baseline
1513.000,222.700,41.010,6.018,1008.000,121.100,21.740,2.954,156.500,30.040,4.713,1.245,419.800,99.070,18.260,4.730,baseline
1514.000,223.000,41.070,5.966,1009.000,121.000,21.580,2.964,160.400,29.830,4.754,1.244,422.100,99.550,18.430,4.711,baseline
1517.000,222.700,41.230,6.000,1014.000,121.300,21.750,2.953,162.300,29.770,4.725,1.250,422.200,100.000,18.540,4.754,baseline
1523.000,225.000,41.790,6.046,1008.000,121.900,21.810,2.947,162.200,29.490,4.810,1.238,425.500,100.900,18.550,4.810,baseline
1530.000,226.400,41.830,6.084,1019.000,121.700,21.870,2.955,159.000,29.610,4.829,1.250,427.400,101.200,18.810,4.862,baseline
1537.000,227.300,42.200,6.156,1021.000,122.100,22.020,2.965,161.000,29.940,4.838,1.262,430.100,101.700,19.110,4.912,baseline
1543.000,228.700,42.340,6.136,1018.000,121.900,21.690,2.925,165.400,30.080,4.888,1.252,425.200,100.600,18.550,4.727,baseline
1516.000,223.300,41.070,5.979,1009.000,120.600,21.680,2.899,160.100,29.030,4.764,1.246,421.400,99.280,18.380,4.715,baseline
1515.000,222.200,41.250,5.952,1008.000,122.100,21.680,2.931,157.200,30.170,4.805,1.243,423.100,100.300,18.370,4.682,baseline
1517.000,223.100,41.090,6.002,1012.000,120.800,21.700,2.922,160.300,29.670,4.745,1.243,422.700,99.670,18.340,4.741,baseline
1519.000,223.400,41.200,6.013,1013.000,121.500,21.590,2.937,159.000,29.890,4.761,1.239,421.000,99.790,18.520,4.759,baseline
1522.000,222.600,41.560,6.050,1009.000,121.200,21.720,2.920,163.400,30.120,4.883,1.250,421.600,100.900,18.520,4.785,baseline
1528.000,226.100,41.600,6.095,1016.000,122.300,21.930,2.934,162.200,29.960,4.913,1.251,426.500,100.700,18.660,4.848,baseline
1534.000,228.500,42.240,6.145,1017.000,122.200,21.880,2.966,163.000,30.010,4.818,1.262,427.900,101.800,18.730,4.840,baseline
1542.000,229.400,42.510,6.197,1016.000,122.500,22.040,3.009,158.800,29.610,4.898,1.269,429.300,102.200,19.100,4.898,baseline
1543.000,227.600,42.080,6.149,1014.000,121.900,21.640,2.918,158.700,30.020,4.741,1.264,426.300,100.100,18.430,4.738,baseline
1520.000,224.000,41.240,6.000,1013.000,120.700,21.730,2.945,161.100,29.730,4.778,1.242,422.400,99.700,18.410,4.765,baseline
1520.000,223.600,41.450,6.019,1009.000,121.600,21.710,2.935,162.900,30.120,4.828,1.238,422.000,100.500,18.700,4.742,baseline
1523.000,224.500,41.190,6.052,1015.000,121.900,21.720,2.948,161.000,29.380,4.784,1.252,424.800,99.950,18.450,4.797,baseline
1523.000,224.200,41.560,6.074,1007.000,121.600,21.830,2.937,159.400,30.390,4.810,1.238,425.800,100.800,18.500,4.743,baseline
1529.000,225.200,41.520,6.108,1011.000,121.400,21.880,2.970,161.600,30.200,4.823,1.249,426.100,100.100,18.970,4.808,baseline
1534.000,227.300,42.200,6.150,1015.000,122.100,21.980,2.971,165.700,30.060,4.849,1.252,429.300,101.100,18.730,4.846,baseline
1542.000,230.400,42.180,6.178,1017.000,122.000,21.950,2.953,167.100,30.140,4.908,1.275,430.100,101.800,19.010,4.878,baseline
1548.000,230.000,42.600,6.148,1019.000,122.500,22.030,2.963,162.200,30.100,4.883,1.269,430.900,101.500,18.780,4.823,baseline
1532.000,227.100,41.620,6.054,1023.000,121.300,21.660,2.926,160.400,30.220,4.836,1.259,423.200,99.710,18.460,4.736,baseline
1520.000,224.600,41.150,6.062,1015.000,121.600,21.680,2.956,166.300,29.750,4.769,1.269,424.000,100.000,18.430,4.725,baseline
1524.000,223.500,41.600,6.034,1014.000,121.600,21.810,2.931,162.500,29.740,4.849,1.240,423.900,100.400,18.540,4.819,baseline
1524.000,223.400,41.510,6.044,1013.000,121.800,21.860,2.945,165.300,30.030,4.873,1.260,423.300,100.400,18.600,4.776,baseline
1525.000,224.000,41.470,6.035,1012.000,121.600,21.800,2.959,160.000,29.740,4.868,1.268,425.600,101.400,18.700,4.823,baseline
1531.000,226.200,41.890,6.117,1015.000,122.400,21.900,2.969,159.300,29.720,4.829,1.249,428.300,101.500,18.830,4.848,baseline
1536.000,228.900,42.050,6.205,1019.000,122.100,22.060,2.957,165.100,29.840,4.849,1.263,430.600,101.900,18.830,4.877,baseline
1545.000,229.000,42.020,6.209,1019.000,122.900,22.090,2.987,167.000,30.140,4.879,1.265,434.100,103.200,19.140,4.901,baseline
1545.000,228.500,42.470,6.137,1018.000,121.900,21.860,2.930,163.700,30.090,4.805,1.270,427.000,100.500,18.610,4.712,baseline
1521.000,222.800,41.360,5.992,1015.000,121.300,21.850,2.951,162.100,29.980,4.825,1.247,420.700,100.100,18.720,4.699,baseline
1519.000,222.300,41.550,5.980,1013.000,121.300,21.650,2.947,166.100,29.740,4.772,1.260,426.100,100.700,18.660,4.751,baseline
1521.000,226.400,41.540,6.055,1011.000,121.200,21.790,2.953,160.300,29.820,4.842,1.260,423.900,100.300,18.570,4.773,baseline
1521.000,224.000,41.300,6.020,1010.000,121.300,21.780,2.955,163.700,29.560,4.787,1.257,425.800,100.300,18.730,4.737,baseline
1526.000,226.100,41.750,6.059,1021.000,121.600,21.790,2.959,162.400,29.870,4.874,1.253,426.400,100.400,18.700,4.809,baseline
1530.000,226.400,42.370,6.115,1014.000,122.200,21.840,2.976,163.700,30.050,4.808,1.265,425.700,101.400,18.700,4.886,baseline
1537.000,226.800,42.320,6.164,1014.000,122.300,21.880,3.005,163.100,29.610,4.797,1.263,430.900,101.800,18.970,4.857,baseline
1544.000,228.500,42.620,6.223,1023.000,122.700,22.060,2.968,165.600,30.280,4.829,1.257,430.000,102.000,19.020,4.969,baseline
1544.000,227.000,41.870,6.164,1017.000,121.000,21.830,2.950,168.200,30.380,4.835,1.271,427.600,100.500,18.550,4.794,baseline
1521.000,225.400,41.090,6.010,1017.000,120.700,21.780,2.907,162.700,29.550,4.814,1.255,423.700,100.100,18.480,4.721,baseline
1518.000,222.900,41.260,6.013,1013.000,122.000,21.620,2.948,164.500,30.030,4.863,1.271,422.600,99.830,18.650,4.770,baseline
1520.000,224.800,41.380,6.060,1016.000,121.700,21.620,2.931,158.900,29.770,4.788,1.257,424.700,100.300,18.570,4.754,baseline
1521.000,223.000,40.950,6.033,1013.000,120.700,21.710,2.949,162.600,30.020,4.812,1.268,425.100,101.200,18.530,4.795,baseline
1523.000,226.300,41.500,6.069,1019.000,122.200,21.790,2.968,161.900,30.130,4.819,1.266,427.700,100.700,18.620,4.771,baseline
1531.000,224.500,41.820,6.175,1018.000,121.900,21.920,2.968,164.900,30.050,4.876,1.268,430.600,101.300,18.710,4.891,baseline
1537.000,227.700,41.950,6.157,1016.000,121.800,21.970,2.996,164.500,30.400,4.880,1.263,430.300,101.900,18.950,4.903,baseline
1542.000,229.200,42.310,6.196,1015.000,122.800,22.030,2.977,166.100,29.980,4.969,1.271,430.600,103.500,19.120,4.947,baseline
1550.000,229.000,42.940,6.227,1021.000,122.700,21.950,2.978,166.800,30.350,4.792,1.283,436.200,103.400,19.170,4.870,baseline
1538.000,225.700,41.880,6.062,1015.000,121.900,21.710,2.939,165.900,29.990,4.892,1.271,425.200,100.600,18.590,4.749,baseline
1522.000,224.000,41.370,6.067,1016.000,121.300,21.930,2.954,162.500,29.630,4.805,1.248,424.400,100.900,18.510,4.718,baseline
1525.000,224.000,41.380,6.095,1017.000,121.400,21.970,2.945,162.900,29.720,4.868,1.271,425.500,100.900,18.820,4.777,baseline
1524.000,224.800,41.600,6.072,1021.000,121.400,21.870,2.955,165.500,30.580,4.880,1.257,425.400,100.900,18.630,4.829,baseline
1528.000,225.000,41.320,6.154,1012.000,121.700,21.920,2.952,158.800,30.000,4.857,1.263,428.100,101.600,18.640,4.875,baseline
1532.000,227.000,41.890,6.123,1018.000,122.100,21.990,2.986,160.000,29.810,4.867,1.256,428.400,101.500,18.940,4.892,baseline
1538.000,226.500,42.030,6.172,1023.000,122.500,21.970,2.969,166.000,30.520,4.915,1.265,430.800,102.900,18.860,4.877,baseline
1544.000,227.700,42.240,6.199,1020.000,122.600,21.980,2.984,168.700,30.370,4.941,1.278,433.200,102.200,19.260,4.914,baseline
1551.000,229.700,42.710,6.309,1026.000,122.800,22.050,3.006,166.900,30.090,4.927,1.280,433.500,103.800,19.240,4.992,baseline
1557.000,230.100,42.690,6.253,1019.000,122.700,22.030,2.977,164.900,30.760,4.912,1.279,434.500,101.700,18.960,4.886,baseline
1534.000,225.100,41.740,6.070,1020.000,122.300,21.960,2.934,165.500,30.210,4.849,1.275,427.200,101.700,18.720,4.760,baseline
1533.000,227.300,41.660,6.140,1021.000,121.900,21.990,2.951,162.000,30.090,4.795,1.261,425.400,101.300,18.890,4.822,baseline
1535.000,225.900,41.980,6.163,1021.000,121.700,21.930,2.958,162.200,30.520,4.899,1.280,428.500,101.900,18.720,4.827,baseline
1535.000,227.800,41.980,6.143,1020.000,122.200,21.930,2.950,163.800,30.260,4.900,1.272,428.300,101.300,18.770,4.833,baseline
1538.000,227.900,41.870,6.192,1026.000,121.900,22.070,2.979,162.800,30.450,4.856,1.270,431.200,102.300,19.030,4.880,baseline
1545.000,229.800,42.560,6.231,1021.000,122.900,22.150,2.991,160.600,30.080,4.802,1.276,433.400,103.100,19.120,4.911,baseline
1549.000,231.000,42.600,6.300,1020.000,123.000,22.170,3.005,160.600,30.090,4.893,1.261,434.600,103.800,19.270,5.034,baseline
1555.000,230.000,42.890,6.327,1026.000,122.900,22.110,3.022,161.600,30.540,4.973,1.273,435.900,103.300,19.370,4.996,baseline
1557.000,230.800,42.700,6.214,1026.000,123.200,22.010,2.982,165.300,29.770,4.876,1.261,432.700,101.800,19.030,4.860,baseline
1536.000,226.900,42.340,6.128,1024.000,122.300,21.870,2.955,163.200,30.010,4.870,1.250,427.300,102.700,18.840,4.836,baseline
1536.000,225.100,42.160,6.180,1019.000,121.800,21.890,2.979,167.500,30.030,4.854,1.259,430.100,102.100,19.040,4.900,baseline
1539.000,225.800,41.750,6.172,1024.000,122.100,22.030,2.972,166.700,29.690,4.884,1.263,429.900,101.800,18.680,4.837,baseline
1538.000,225.200,42.100,6.153,1020.000,122.400,21.900,2.954,165.700,30.220,4.870,1.253,431.900,101.700,18.930,4.858,baseline
1542.000,227.700,42.280,6.237,1024.000,122.600,22.040,2.977,161.100,30.360,4.882,1.268,432.400,103.200,19.170,4.897,baseline
1548.000,228.700,42.470,6.282,1025.000,122.600,22.110,3.011,162.000,30.120,4.880,1.282,435.700,103.500,19.090,4.963,baseline
1553.000,230.800,42.790,6.276,1027.000,122.800,22.190,2.995,168.900,30.140,4.920,1.278,436.700,103.700,19.240,5.017,baseline
1560.000,232.300,42.870,6.306,1027.000,122.700,22.190,2.985,164.100,30.380,4.938,1.277,440.100,104.000,19.310,4.923,baseline
1549.000,228.000,42.290,6.201,1020.000,121.900,22.030,2.986,165.200,30.150,4.931,1.259,429.500,101.600,18.680,4.805,baseline
1536.000,225.900,41.810,6.151,1022.000,122.300,21.860,2.938,161.900,29.980,4.877,1.246,428.700,101.300,18.950,4.813,baseline
1537.000,225.600,42.090,6.168,1023.000,122.000,21.880,2.974,162.900,29.470,4.907,1.251,430.600,102.000,18.860,4.882,baseline
1536.000,226.700,42.500,6.180,1024.000,121.500,21.830,2.944,157.800,30.530,4.844,1.260,429.800,101.900,19.000,4.876,baseline
1538.000,227.700,42.310,6.184,1024.000,122.600,21.960,2.966,163.600,30.300,4.855,1.259,429.800,102.200,18.940,4.874,baseline
1543.000,227.700,42.170,6.240,1022.000,122.400,22.030,3.003,159.600,30.470,4.828,1.280,430.200,102.300,19.040,4.936,baseline
1547.000,229.300,42.680,6.291,1025.000,123.000,21.990,2.986,163.400,30.300,4.874,1.268,433.800,102.900,19.230,4.993,baseline
1552.000,230.800,42.480,6.314,1026.000,122.600,22.030,3.019,163.100,30.030,4.911,1.261,434.800,103.900,19.240,5.002,baseline
1559.000,231.600,43.100,6.352,1025.000,123.000,22.130,2.973,169.000,30.280,4.967,1.258,436.300,104.000,19.390,4.992,baseline
1556.000,230.200,42.880,6.275,1025.000,122.300,21.970,2.950,162.800,30.370,4.915,1.280,430.800,101.700,19.070,4.823,baseline
1537.000,226.800,41.830,6.198,1020.000,122.100,22.140,2.995,165.000,30.280,4.790,1.260,429.000,101.600,18.640,4.827,baseline
1535.000,227.900,42.170,6.155,1021.000,122.000,22.000,2.983,167.100,30.170,4.819,1.259,427.900,102.000,18.970,4.852,baseline
1537.000,227.700,42.130,6.179,1021.000,121.500,21.960,2.985,167.300,29.910,4.864,1.257,426.300,101.900,18.900,4.847,baseline
1535.000,228.800,42.180,6.214,1021.000,122.200,21.860,2.975,165.200,30.350,4.893,1.271,429.900,103.000,18.860,4.871,baseline
1540.000,228.600,42.370,6.196,1022.000,122.700,21.950,2.978,163.900,30.030,4.802,1.254,430.000,102.500,19.150,4.921,baseline
1544.000,228.700,42.890,6.230,1022.000,122.200,22.030,2.995,164.100,30.230,4.898,1.261,434.700,103.000,19.170,4.999,baseline
1549.000,228.200,42.850,6.319,1024.000,123.000,22.100,3.022,161.000,29.840,4.869,1.270,433.200,103.200,19.190,4.956,baseline
1555.000,230.500,43.010,6.419,1029.000,122.900,22.070,3.014,165.700,30.340,4.856,1.261,434.700,104.500,19.220,5.019,baseline
1561.000,232.400,43.600,6.407,1027.000,123.100,22.180,3.003,159.700,30.050,4.962,1.276,438.400,104.700,19.350,5.030,baseline
1555.000,229.300,42.460,6.314,1024.000,122.100,22.050,2.966,167.600,30.220,4.802,1.274,428.800,101.500,18.970,4.866,baseline
1538.000,225.600,42.360,6.222,1019.000,122.200,22.060,2.969,163.200,30.300,4.847,1.262,427.400,101.800,18.810,4.814,baseline
1536.000,227.000,42.100,6.236,1023.000,122.300,22.000,2.958,162.700,29.700,4.801,1.254,428.700,101.100,18.930,4.853,baseline
1537.000,228.000,42.280,6.219,1022.000,122.300,22.090,2.980,162.600,30.220,4.802,1.256,429.000,102.100,18.880,4.841,baseline
1537.000,227.400,42.360,6.246,1022.000,122.400,22.010,2.985,165.100,30.190,4.896,1.266,429.500,101.700,18.820,4.918,baseline
1542.000,227.700,42.300,6.254,1026.000,122.400,22.090,2.980,162.000,30.180,4.918,1.263,432.100,102.200,18.940,4.929,baseline
1547.000,229.600,42.700,6.285,1023.000,123.500,21.970,3.012,167.100,30.470,4.945,1.256,432.100,103.000,19.240,4.983,baseline
1552.000,229.600,42.660,6.368,1023.000,123.200,22.050,3.012,164.300,30.290,4.890,1.265,432.700,103.400,19.140,4.983,baseline
1559.000,231.400,43.010,6.374,1032.000,123.400,22.160,3.019,165.000,30.320,4.871,1.265,437.600,104.200,19.500,5.022,baseline
1564.000,231.500,43.520,6.431,1027.000,123.300,22.340,3.000,165.900,30.490,4.890,1.262,438.600,104.200,19.460,5.042,baseline
1561.000,231.700,43.140,6.332,1020.000,122.300,22.000,2.977,162.900,29.950,4.904,1.248,431.900,101.700,18.900,4.883,baseline
1545.000,228.600,42.410,6.284,1015.000,122.600,22.080,2.983,164.900,29.840,4.824,1.249,431.100,102.000,19.000,4.921,baseline
1542.000,228.500,42.540,6.318,1027.000,122.000,21.990,2.972,163.200,29.820,4.859,1.257,432.100,102.200,18.900,4.901,baseline
1543.000,227.800,42.730,6.273,1023.000,122.000,22.030,2.971,165.400,30.620,4.798,1.258,429.000,102.000,19.070,4.902,baseline
1544.000,229.900,42.450,6.287,1027.000,122.200,22.040,3.000,157.000,30.420,4.880,1.260,429.200,101.900,19.060,4.937,baseline
1547.000,229.700,42.700,6.291,1022.000,123.100,22.070,3.007,162.200,29.910,4.805,1.261,432.100,103.200,18.970,4.914,baseline
1552.000,230.600,42.690,6.319,1026.000,122.500,22.100,2.988,162.000,29.780,4.864,1.265,435.300,103.100,19.230,4.973,baseline
1556.000,231.300,43.360,6.366,1029.000,123.200,21.990,3.027,162.600,30.420,4.878,1.272,435.200,103.700,19.240,5.030,baseline
1562.000,231.900,43.350,6.432,1026.000,123.300,22.290,3.006,161.200,30.480,5.018,1.270,435.700,103.800,19.420,5.092,baseline
1568.000,232.300,43.270,6.386,1022.000,122.500,22.020,2.981,163.900,30.370,4.918,1.277,435.400,103.300,18.970,4.934,baseline
1548.000,228.500,42.500,6.300,1024.000,122.100,21.960,2.971,161.800,30.160,4.881,1.259,428.800,101.700,18.990,4.888,baseline
1543.000,227.500,42.430,6.242,1024.000,122.000,22.000,2.975,162.900,30.360,4.864,1.236,431.700,102.200,18.950,4.894,baseline
1545.000,230.700,42.670,6.270,1021.000,122.400,21.940,2.962,165.700,30.160,4.866,1.260,431.100,101.400,19.170,4.909,baseline
1544.000,228.500,42.560,6.264,1024.000,122.200,21.970,3.000,156.200,30.270,4.886,1.256,429.700,102.400,19.010,4.952,baseline
1547.000,229.700,42.500,6.316,1025.000,122.700,22.100,3.012,161.900,30.000,4.784,1.265,431.700,103.300,19.150,4.927,baseline
1553.000,231.900,42.840,6.389,1029.000,122.400,22.100,2.973,166.900,30.250,4.835,1.271,433.300,102.700,19.320,4.952,baseline
1558.000,231.000,43.320,6.397,1025.000,123.000,22.080,2.971,161.200,30.140,4.889,1.254,436.600,103.400,19.310,5.014,baseline
1563.000,232.900,43.390,6.440,1031.000,123.400,22.270,2.999,162.200,30.560,4.871,1.265,437.800,104.100,19.440,5.074,baseline
1569.000,233.300,43.910,6.417,1029.000,123.800,22.200,2.983,166.800,30.690,4.954,1.265,441.800,105.200,19.560,5.115,baseline
1569.000,233.400,43.120,6.362,1027.000,122.800,21.820,2.988,164.300,30.530,4.938,1.268,431.200,103.200,18.920,4.905,baseline
1548.000,228.500,42.810,6.306,1024.000,121.900,21.990,2.969,162.800,29.940,4.810,1.252,431.000,101.500,18.930,4.872,baseline
1545.000,228.400,42.280,6.271,1022.000,121.800,22.000,2.977,161.900,29.620,4.860,1.250,431.100,101.700,18.910,4.878,baseline
1545.000,228.000,42.660,6.262,1021.000,122.300,22.050,2.973,163.100,29.880,4.881,1.256,430.200,102.100,19.090,4.906,baseline
1546.000,230.400,42.720,6.282,1029.000,122.600,22.010,2.981,159.600,30.260,4.828,1.254,430.800,102.500,19.130,4.912,baseline
1548.000,229.100,42.670,6.308,1028.000,122.300,22.000,2.968,163.300,30.090,4.828,1.258,434.900,102.400,19.150,5.028,baseline
1553.000,231.700,42.850,6.330,1026.000,121.900,22.110,3.023,166.800,30.500,4.867,1.258,432.700,103.800,19.340,5.000,baseline
1557.000,233.400,42.980,6.343,1026.000,122.600,22.310,2.995,164.400,30.260,4.937,1.284,435.700,103.200,19.240,5.028,baseline
1563.000,233.800,43.450,6.416,1031.000,123.300,22.180,3.010,165.900,30.810,4.931,1.279,436.800,103.200,19.550,5.079,baseline
1570.000,233.200,44.010,6.480,1029.000,124.100,22.250,3.017,165.300,30.540,4.837,1.269,439.700,105.100,19.780,5.122,baseline
1571.000,234.800,43.600,6.395,1029.000,122.900,22.070,2.984,165.300,30.700,4.943,1.288,434.300,103.000,19.020,4.865,baseline
1551.000,228.700,42.430,6.307,1025.000,122.800,21.990,2.968,159.500,30.010,4.926,1.255,430.400,102.400,18.930,4.910,baseline
1547.000,227.600,42.870,6.252,1024.000,122.900,22.060,2.973,166.100,30.500,4.905,1.268,430.600,102.300,18.970,4.885,baseline
1547.000,229.400,42.670,6.298,1026.000,122.500,22.060,2.975,162.000,30.280,4.809,1.243,431.400,102.400,19.040,4.867,baseline
1548.000,229.100,42.740,6.311,1028.000,123.200,21.960,2.985,163.300,30.570,4.899,1.265,430.000,102.200,19.160,4.949,baseline
1551.000,229.800,42.890,6.379,1029.000,122.300,22.180,2.980,161.500,30.530,4.841,1.254,435.200,103.600,19.260,4.941,baseline
1556.000,232.100,43.040,6.343,1026.000,122.600,22.240,2.980,159.100,30.230,4.901,1.246,433.300,103.600,19.310,4.974,baseline
1561.000,232.300,43.030,6.384,1032.000,122.700,22.080,3.000,161.000,30.020,4.999,1.263,438.800,104.300,19.260,5.034,baseline
1567.000,233.600,43.870,6.442,1038.000,123.400,22.440,3.013,165.400,30.580,4.919,1.278,439.200,104.500,19.600,5.105,baseline
1574.000,235.700,43.830,6.491,1032.000,123.500,22.380,3.038,163.200,30.380,4.953,1.274,439.500,105.000,19.800,5.086,baseline
1580.000,236.200,44.100,6.475,1035.000,123.700,22.450,3.027,167.900,30.680,4.997,1.284,443.000,106.300,19.960,5.172,baseline
1588.000,236.500,44.570,6.556,1039.000,125.000,22.520,3.042,163.300,30.990,4.931,1.308,444.600,106.300,20.090,5.174,baseline
1589.000,238.800,44.350,6.546,1037.000,123.500,22.150,3.019,167.400,30.600,4.963,1.292,435.400,103.400,19.410,4.950,baseline
1565.000,231.900,42.760,6.380,1033.000,123.400,22.220,2.989,162.000,30.350,4.962,1.256,432.400,103.000,19.250,4.954,baseline
1561.000,232.900,43.030,6.349,1030.000,123.000,22.190,2.997,169.400,30.420,4.895,1.270,438.400,102.800,19.230,4.988,baseline
1562.000,232.800,43.100,6.360,1030.000,122.700,22.160,2.982,162.900,30.340,4.932,1.266,436.100,103.500,19.310,4.984,baseline
1561.000,234.700,43.020,6.411,1032.000,122.900,22.180,2.993,166.400,30.650,4.884,1.274,433.800,103.500,19.380,4.980,baseline
1564.000,233.400,43.190,6.410,1033.000,123.200,22.320,2.994,163.700,30.410,4.881,1.263,436.400,103.800,19.540,5.040,baseline
1569.000,233.800,43.520,6.466,1036.000,123.400,22.340,3.001,166.200,30.530,4.943,1.282,437.100,104.300,19.500,5.076,baseline
1574.000,235.100,43.760,6.467,1039.000,123.900,22.250,3.022,166.100,30.150,4.919,1.282,442.300,105.300,19.640,5.093,baseline
1578.000,235.800,43.610,6.508,1035.000,124.000,22.440,3.038,167.000,30.430,4.932,1.262,442.700,105.000,19.750,5.143,baseline
1584.000,239.000,44.350,6.581,1037.000,124.300,22.580,3.042,166.600,30.480,4.941,1.267,445.000,105.700,19.960,5.126,baseline
1583.000,235.800,43.880,6.489,1038.000,123.200,22.210,2.993,170.300,30.670,4.918,1.271,437.400,103.600,19.330,4.986,baseline
1565.000,231.700,43.310,6.337,1030.000,123.300,22.030,3.010,163.400,30.790,4.898,1.259,434.200,103.000,19.290,4.941,baseline
1563.000,232.700,43.550,6.397,1032.000,123.800,22.150,3.017,162.900,30.250,4.887,1.257,435.200,104.400,19.270,4.985,baseline
1566.000,232.900,43.530,6.371,1027.000,123.400,22.070,3.004,163.400,30.340,4.940,1.267,436.200,103.200,19.230,4.971,baseline
1563.000,233.400,43.250,6.395,1030.000,123.800,22.300,2.995,167.300,30.190,4.867,1.270,435.700,103.700,19.350,4.995,baseline
1568.000,232.600,43.680,6.376,1034.000,123.800,22.360,2.983,162.000,30.590,4.899,1.262,437.400,104.500,19.580,5.040,baseline
1573.000,234.400,43.450,6.438,1032.000,123.600,22.320,3.001,167.100,30.810,4.968,1.281,439.200,105.000,19.530,5.067,baseline
1579.000,236.600,43.860,6.489,1036.000,124.200,22.510,3.029,171.300,30.550,4.999,1.265,443.200,105.200,19.790,5.103,baseline
1584.000,238.900,44.160,6.568,1039.000,124.300,22.500,3.022,167.200,30.470,4.913,1.280,443.400,105.300,19.760,5.112,baseline
1582.000,236.500,43.760,6.455,1035.000,123.600,22.340,2.997,165.300,30.200,4.948,1.254,432.600,103.300,19.430,4.910,baseline
1562.000,232.800,43.120,6.346,1031.000,123.300,22.070,2.989,162.500,30.610,4.919,1.253,430.500,102.600,19.140,4.942,baseline
1559.000,232.900,43.210,6.391,1031.000,123.500,22.130,2.990,163.300,30.540,4.915,1.254,433.500,103.200,19.210,4.950,baseline
1561.000,232.500,43.400,6.375,1031.000,123.000,22.180,2.982,165.000,30.080,4.875,1.233,433.600,102.400,19.070,4.954,baseline
1561.000,232.400,43.190,6.366,1026.000,123.200,22.030,3.002,167.000,30.330,4.870,1.251,433.400,103.000,19.180,4.962,baseline
1562.000,233.200,43.280,6.432,1032.000,123.000,22.150,3.007,162.700,30.500,4.857,1.259,433.700,102.900,19.510,5.047,baseline
1568.000,234.100,43.780,6.422,1034.000,124.200,22.220,2.989,162.100,30.620,4.912,1.258,436.400,104.400,19.450,5.023,baseline
1573.000,235.500,43.700,6.528,1034.000,123.400,22.390,3.015,160.300,30.690,4.920,1.278,439.100,104.800,19.500,5.065,baseline
1578.000,236.500,44.030,6.521,1037.000,124.600,22.520,3.017,168.200,30.370,4.941,1.285,437.900,105.300,19.730,5.099,baseline
1576.000,234.000,43.710,6.424,1029.000,123.500,22.050,2.986,158.600,30.170,4.939,1.259,433.500,102.500,19.130,4.870,baseline
1556.000,231.900,43.080,6.303,1026.000,122.900,22.170,2.970,165.800,30.180,4.885,1.245,428.800,102.100,18.940,4.882,baseline
1552.000,229.900,42.680,6.308,1025.000,122.500,22.030,3.006,165.700,29.650,4.879,1.242,430.600,101.800,18.950,4.916,baseline
1552.000,231.800,43.010,6.312,1030.000,122.500,22.090,3.007,161.200,30.140,4.910,1.261,428.400,101.900,18.950,4.909,baseline
1551.000,231.700,42.840,6.306,1030.000,123.000,22.130,2.975,160.100,30.160,4.886,1.266,431.500,103.000,19.170,4.900,baseline
1554.000,231.700,42.810,6.357,1031.000,122.800,22.190,3.021,164.200,30.050,4.757,1.264,432.600,102.700,19.060,4.959,baseline
1559.000,233.400,43.220,6.389,1026.000,122.400,22.220,3.006,164.100,29.820,4.925,1.270,433.500,102.400,19.320,4.987,baseline
1562.000,232.700,43.530,6.382,1035.000,123.300,22.250,3.013,163.400,30.390,4.947,1.256,432.700,104.400,19.310,5.041,baseline
1568.000,235.900,43.620,6.393,1035.000,123.700,22.200,3.012,163.700,30.280,4.883,1.263,438.100,103.600,19.600,5.032,baseline
1573.000,235.600,43.630,6.464,1032.000,123.800,22.210,2.991,161.700,30.130,4.905,1.256,439.000,104.600,19.570,5.055,baseline
1568.000,233.700,43.310,6.307,1029.000,122.700,22.090,2.971,160.900,30.090,4.878,1.263,429.000,102.300,19.020,4.905,baseline
1548.000,230.800,42.820,6.251,1019.000,122.000,22.000,2.980,164.000,30.450,4.823,1.247,427.400,101.900,18.920,4.862,baseline
1546.000,231.500,42.750,6.304,1023.000,122.300,22.050,2.978,162.600,30.090,4.869,1.265,430.300,101.600,18.970,4.870,baseline
1546.000,231.000,42.600,6.251,1025.000,122.000,22.020,2.977,158.700,30.310,4.839,1.252,429.600,101.900,19.030,4.858,baseline
1546.000,229.800,42.490,6.253,1025.000,121.100,21.970,2.980,163.400,29.830,4.816,1.260,428.300,102.200,19.150,4.876,baseline
1548.000,230.000,43.260,6.309,1029.000,122.700,22.100,2.978,160.300,29.730,4.884,1.260,432.600,102.100,19.000,4.939,baseline
1551.000,230.700,42.910,6.316,1026.000,122.600,22.160,2.986,163.700,30.060,4.866,1.252,432.100,102.800,19.290,4.911,baseline
1558.000,233.300,43.250,6.340,1024.000,122.500,22.090,2.986,162.000,30.960,4.870,1.254,434.100,103.500,19.280,4.991,baseline
1564.000,234.500,43.650,6.406,1028.000,123.200,22.160,3.023,165.300,30.370,4.854,1.285,437.300,104.300,19.620,5.000,baseline
1569.000,235.000,43.830,6.399,1029.000,123.300,22.390,3.019,167.200,30.430,4.961,1.275,436.700,104.300,19.680,5.062,baseline
1576.000,236.000,43.860,6.510,1026.000,123.600,22.210,2.982,171.500,30.700,4.920,1.278,440.000,104.700,19.400,4.986,baseline
1561.000,231.900,42.500,6.278,1019.000,122.000,22.220,2.984,159.000,30.380,4.885,1.260,430.800,102.500,18.990,4.911,baseline
1547.000,230.900,42.480,6.276,1026.000,122.500,21.960,2.960,165.100,29.690,4.813,1.247,429.100,102.000,18.900,4.870,baseline
1545.000,230.700,42.240,6.291,1025.000,122.300,22.090,2.989,168.800,30.000,4.869,1.275,430.200,101.300,19.010,4.910,baseline
1546.000,230.800,42.720,6.309,1024.000,122.300,22.070,2.988,162.400,30.180,4.827,1.267,429.700,102.600,18.980,4.902,baseline
1547.000,230.200,42.690,6.282,1025.000,122.300,21.990,2.984,160.600,29.980,4.856,1.258,429.600,102.000,19.160,4.909,baseline
1550.000,231.800,43.090,6.339,1025.000,122.400,22.130,2.998,161.600,30.600,4.840,1.268,431.000,103.000,19.040,4.866,baseline
1554.000,232.400,42.930,6.385,1027.000,122.900,22.040,3.007,167.100,30.190,4.883,1.256,433.800,103.700,19.140,4.976,baseline
1560.000,235.600,43.400,6.387,1026.000,122.400,22.260,2.996,161.300,30.520,4.901,1.255,436.400,103.800,19.560,5.057,baseline
1564.000,234.500,43.890,6.442,1033.000,123.000,22.070,3.022,162.900,30.380,4.924,1.276,434.700,103.800,19.410,5.061,baseline
1571.000,235.600,43.860,6.452,1030.000,122.600,22.130,2.983,158.200,30.620,4.940,1.264,435.900,103.400,19.090,4.962,baseline
1552.000,231.900,42.910,6.310,1025.000,121.500,21.870,2.974,168.400,30.140,4.814,1.259,430.700,102.600,19.080,4.837,baseline
1545.000,230.500,42.760,6.288,1025.000,122.100,21.860,2.962,164.300,30.070,4.838,1.257,431.300,102.200,19.040,4.894,baseline
1545.000,229.000,42.680,6.303,1023.000,122.400,22.040,2.995,162.900,30.200,4.884,1.264,432.300,102.700,19.080,4.873,baseline
1545.000,231.500,42.890,6.243,1026.000,121.700,21.990,2.966,162.700,30.170,4.869,1.246,427.800,102.800,18.910,4.910,baseline
1547.000,230.100,42.870,6.282,1024.000,122.100,21.980,2.989,160.000,30.370,4.830,1.258,429.400,103.000,18.910,4.918,baseline
1551.000,230.500,43.140,6.348,1022.000,122.500,22.030,3.010,160.300,29.970,4.793,1.261,433.600,102.800,19.190,4.983,baseline
1556.000,232.900,43.320,6.337,1028.000,122.400,22.110,2.971,164.900,30.430,4.955,1.266,432.400,103.300,19.210,5.040,baseline
1561.000,233.700,43.330,6.393,1032.000,122.800,22.040,3.000,164.100,30.080,4.938,1.273,435.500,103.700,19.400,5.021,baseline
1566.000,235.700,43.510,6.360,1027.000,121.700,22.040,2.987,163.100,30.200,4.877,1.252,431.800,102.200,18.960,4.874,baseline
1543.000,228.600,42.600,6.223,1020.000,121.300,21.720,2.954,160.900,30.190,4.867,1.246,423.700,101.800,18.910,4.809,baseline
1537.000,228.200,42.490,6.231,1016.000,121.500,21.820,2.966,162.900,30.150,4.791,1.240,427.300,102.400,18.900,4.843,baseline
1537.000,228.200,42.280,6.248,1023.000,121.700,22.020,2.955,160.000,30.240,4.851,1.250,428.700,102.000,18.900,4.882,baseline
1538.000,228.900,42.800,6.269,1016.000,121.200,21.960,2.955,168.200,30.280,4.867,1.256,427.100,102.300,18.680,4.826,baseline
1538.000,228.200,42.500,6.292,1022.000,121.300,22.000,2.967,163.200,29.970,4.860,1.249,428.100,102.300,19.110,4.869,baseline
1543.000,230.400,42.760,6.296,1019.000,121.900,22.050,2.975,166.400,30.210,4.880,1.242,430.100,102.300,18.970,4.984,baseline
1548.000,230.900,42.740,6.350,1022.000,122.800,22.130,2.984,158.500,29.980,4.855,1.255,434.700,103.200,19.130,4.979,baseline
1554.000,231.700,42.980,6.383,1027.000,122.500,22.010,2.993,165.000,30.130,4.900,1.271,434.500,103.900,19.270,4.967,baseline
1557.000,232.600,42.890,6.333,1023.000,121.900,22.020,2.945,160.700,30.130,4.866,1.264,426.200,101.200,18.730,4.829,baseline
1531.000,228.700,42.110,6.178,1021.000,121.100,21.920,2.947,160.600,29.910,4.826,1.243,423.900,101.100,18.630,4.828,baseline
1525.000,226.300,42.170,6.172,1014.000,121.100,21.790,2.956,164.900,29.400,4.779,1.238,423.600,101.300,18.580,4.766,baseline
1525.000,228.400,41.960,6.140,1017.000,121.200,21.850,2.952,160.500,29.930,4.778,1.258,423.100,101.000,18.610,4.825,baseline
1526.000,227.600,42.000,6.185,1013.000,120.500,21.830,2.949,161.200,30.150,4.795,1.239,425.200,101.500,18.640,4.820,baseline
1528.000,229.300,42.080,6.222,1016.000,120.800,21.840,2.949,156.500,30.010,4.784,1.236,426.600,101.500,18.820,4.833,baseline
1532.000,228.500,42.410,6.242,1016.000,121.700,21.900,2.968,162.700,29.530,4.828,1.255,426.100,101.700,18.910,4.857,baseline
1536.000,228.700,42.570,6.287,1017.000,121.800,21.860,2.941,159.400,29.750,4.810,1.277,428.500,102.200,19.080,4.902,baseline
1541.000,231.700,43.010,6.309,1019.000,121.800,21.930,2.993,160.500,30.730,4.810,1.252,431.200,103.300,19.180,4.937,baseline
1547.000,231.100,42.920,6.300,1013.000,121.100,21.870,2.964,159.600,30.190,4.876,1.249,425.200,100.200,18.610,4.774,baseline
1524.000,225.300,41.750,6.075,1014.000,120.300,21.740,2.969,161.700,29.710,4.749,1.236,419.100,99.520,18.590,4.727,baseline
1516.000,226.500,41.380,6.117,1012.000,119.800,21.770,2.926,163.100,29.640,4.819,1.237,421.400,99.920,18.420,4.821,baseline
1517.000,224.000,41.950,6.117,1013.000,120.300,21.690,2.945,162.600,29.090,4.744,1.236,420.900,100.300,18.450,4.788,baseline
1515.000,225.000,41.640,6.123,1011.000,120.900,21.640,2.926,159.500,29.940,4.857,1.237,422.200,100.400,18.530,4.721,baseline
1517.000,224.300,41.900,6.173,1010.000,120.400,21.810,2.944,162.400,30.050,4.755,1.232,423.900,100.100,18.590,4.778,baseline
1522.000,226.200,42.210,6.164,1017.000,120.800,21.720,2.951,161.400,29.580,4.780,1.244,424.100,101.300,18.700,4.817,baseline
1527.000,227.300,42.410,6.215,1014.000,120.700,21.800,2.958,163.200,29.510,4.871,1.253,425.000,101.300,18.920,4.929,baseline
1534.000,228.900,42.480,6.262,1021.000,120.900,21.860,2.970,160.800,29.520,4.803,1.255,427.100,102.000,19.120,4.912,baseline
1539.000,229.400,43.160,6.314,1014.000,121.200,21.990,2.964,163.300,29.630,4.892,1.257,431.800,102.600,19.000,4.940,baseline
1546.000,232.000,43.100,6.345,1025.000,121.700,22.020,2.958,161.000,30.200,4.850,1.259,432.100,103.600,19.230,5.019,baseline
1548.000,230.400,42.750,6.261,1016.000,120.300,21.860,2.942,162.900,30.330,4.826,1.240,423.000,101.300,18.670,4.815,baseline
1520.000,224.700,41.470,6.114,1012.000,120.300,21.710,2.930,160.800,29.500,4.840,1.232,419.900,99.840,18.470,4.706,baseline
1514.000,225.700,41.300,6.127,1012.000,119.500,21.660,2.932,160.000,29.840,4.765,1.239,421.800,100.500,18.520,4.752,baseline
1522.000,225.100,42.350,6.154,1014.000,120.900,21.770,2.955,159.200,30.030,4.812,1.246,423.600,101.200,18.710,4.873,easy
1526.000,227.700,42.490,6.250,1014.000,121.000,21.830,2.945,159.100,29.900,4.781,1.258,427.200,101.200,18.990,4.891,easy
1533.000,227.700,42.230,6.236,1017.000,121.000,21.900,2.978,161.800,30.340,4.880,1.270,428.800,102.500,19.010,4.934,easy
1538.000,229.300,42.770,6.314,1025.000,121.800,21.920,2.974,160.500,30.170,4.833,1.273,432.200,102.800,19.140,4.992,easy
1546.000,229.400,43.040,6.369,1021.000,121.700,22.110,2.972,164.600,30.690,4.908,1.267,432.600,103.400,19.390,5.009,easy
1550.000,232.400,42.780,6.328,1020.000,120.700,21.810,2.955,165.400,30.320,4.860,1.253,425.500,101.400,18.630,4.819,easy
1523.000,227.200,42.040,6.176,1014.000,121.100,21.720,2.934,159.800,29.960,4.754,1.234,421.600,100.800,18.730,4.840,easy
1520.000,226.300,41.680,6.185,1019.000,120.500,21.690,2.939,158.500,29.320,4.785,1.230,425.200,101.100,18.890,4.815,easy
1522.000,226.600,42.230,6.150,1013.000,120.700,21.590,2.957,160.500,29.480,4.847,1.235,422.700,99.950,18.530,4.785,easy
1521.000,226.600,42.010,6.184,1017.000,120.500,21.580,2.956,161.400,29.790,4.803,1.244,424.700,101.300,18.620,4.800,easy
1524.000,224.600,41.950,6.186,1015.000,120.000,21.690,2.943,159.200,30.020,4.859,1.229,424.500,102.000,18.940,4.821,easy
1529.000,228.200,42.310,6.228,1017.000,121.300,21.750,2.960,159.900,29.610,4.816,1.241,426.800,101.300,18.670,4.858,easy
1534.000,227.000,42.520,6.260,1017.000,120.900,21.970,2.956,163.800,29.790,4.867,1.254,427.800,102.100,19.130,4.926,easy
1539.000,229.500,42.950,6.297,1021.000,121.500,21.950,2.976,162.400,30.170,4.910,1.263,431.700,102.700,19.060,5.004,easy
1545.000,229.900,42.950,6.313,1018.000,121.600,21.820,2.942,160.600,29.870,4.800,1.257,428.600,102.800,18.770,4.850,easy
1527.000,226.800,41.820,6.148,1014.000,120.800,21.800,2.917,161.000,29.530,4.801,1.241,422.400,101.000,18.440,4.744,easy
1521.000,225.200,41.760,6.161,1015.000,121.000,21.690,2.919,161.300,29.670,4.831,1.230,423.100,100.400,18.730,4.790,easy
1524.000,226.200,42.030,6.190,1018.000,120.400,21.720,2.911,160.200,30.100,4.803,1.248,424.100,101.100,18.740,4.843,easy
1524.000,227.400,42.140,6.229,1014.000,120.500,21.740,2.926,159.400,30.020,4.866,1.230,426.400,100.600,18.880,4.830,easy
1524.000,226.000,42.270,6.221,1020.000,120.500,21.770,2.932,161.500,29.440,4.745,1.247,426.100,101.700,18.890,4.891,easy
1530.000,227.800,42.250,6.211,1017.000,121.000,21.900,2.953,162.000,29.860,4.691,1.253,428.200,102.100,18.890,4.914,easy
1536.000,228.800,42.710,6.330,1017.000,121.600,21.870,2.968,162.700,30.550,4.913,1.249,429.400,101.700,19.040,4.994,easy
1541.000,230.400,42.540,6.332,1019.000,121.800,21.960,2.968,164.400,30.100,4.884,1.263,428.900,102.400,19.260,4.968,easy
1547.000,231.300,43.400,6.350,1018.000,121.900,21.780,2.956,165.000,30.290,4.868,1.278,430.700,101.800,18.930,4.855,easy
1529.000,226.500,41.880,6.192,1015.000,120.700,21.690,2.904,163.600,29.720,4.756,1.246,424.000,100.300,18.720,4.795,easy
1522.000,225.200,41.600,6.162,1016.000,120.000,21.680,2.931,165.200,30.030,4.803,1.240,421.400,100.800,18.510,4.787,easy
1522.000,227.900,42.230,6.127,1017.000,120.800,21.660,2.919,163.700,29.750,4.838,1.232,427.000,101.300,18.620,4.837,easy
1523.000,225.900,42.150,6.213,1018.000,120.700,21.820,2.929,158.500,29.800,4.857,1.234,422.700,101.100,18.600,4.852,easy
1524.000,225.700,41.820,6.249,1017.000,120.500,21.740,2.933,164.300,29.770,4.783,1.230,423.100,100.900,18.820,4.863,easy
1528.000,228.400,42.100,6.230,1016.000,120.900,21.710,2.941,162.100,29.730,4.814,1.240,425.700,101.700,18.930,4.924,easy
1534.000,229.700,42.800,6.243,1020.000,120.800,21.950,2.952,158.100,30.040,4.836,1.256,427.800,101.700,18.940,4.954,easy
1540.000,229.700,42.640,6.305,1024.000,121.100,21.920,2.951,164.900,29.530,4.919,1.265,429.900,102.500,19.200,4.984,easy
1546.000,231.000,43.330,6.334,1024.000,121.600,21.850,2.952,162.900,30.220,4.823,1.267,432.400,102.100,18.860,4.887,easy
1530.000,226.800,41.950,6.179,1014.000,121.400,21.710,2.917,161.100,30.270,4.772,1.234,421.300,100.900,18.620,4.764,easy
1521.000,226.900,41.880,6.174,1021.000,120.400,21.770,2.929,159.400,29.870,4.815,1.251,420.700,100.800,18.690,4.756,easy
1522.000,224.700,42.140,6.154,1014.000,120.800,21.690,2.921,158.800,29.830,4.819,1.246,423.300,100.000,18.650,4.815,easy
1521.000,225.200,42.190,6.168,1013.000,120.500,21.710,2.929,166.000,29.690,4.885,1.253,422.300,100.400,18.500,4.795,easy
1525.000,227.000,42.350,6.192,1016.000,120.700,21.700,2.929,161.400,29.680,4.766,1.221,424.900,101.000,18.670,4.835,easy
1529.000,226.900,42.070,6.196,1017.000,120.600,21.730,2.921,162.100,29.930,4.781,1.242,422.400,102.100,18.970,4.861,easy
1535.000,228.400,42.180,6.258,1019.000,120.700,21.980,2.934,156.600,30.120,4.762,1.251,426.300,101.500,18.890,4.902,easy
1540.000,229.500,42.580,6.330,1023.000,122.000,21.810,2.959,164.000,29.610,4.743,1.250,426.800,101.800,19.000,4.919,easy
1546.000,230.800,42.970,6.364,1023.000,121.700,21.880,2.973,164.400,30.330,4.860,1.266,428.400,102.800,19.160,4.994,easy
1552.000,231.900,43.150,6.379,1028.000,121.800,21.960,2.988,164.600,30.100,4.868,1.255,433.800,103.200,19.300,5.075,easy
1559.000,234.200,43.320,6.416,1025.000,122.300,21.800,2.962,166.100,30.610,4.848,1.255,434.600,103.700,19.310,5.018,easy
1543.000,228.800,42.310,6.176,1018.000,121.100,21.690,2.946,164.900,30.100,4.786,1.253,420.500,101.200,18.820,4.864,easy
1530.000,226.300,42.200,6.220,1018.000,120.700,21.700,2.942,158.800,29.650,4.776,1.223,423.600,101.000,18.500,4.785,easy
1531.000,226.700,41.930,6.258,1021.000,120.400,21.680,2.945,158.200,29.770,4.819,1.226,423.400,101.100,18.770,4.822,easy
1531.000,226.100,42.480,6.193,1017.000,120.300,21.700,2.935,164.100,29.510,4.810,1.250,425.400,100.700,18.530,4.819,easy
1533.000,228.000,42.030,6.250,1020.000,121.000,21.770,2.920,164.600,29.900,4.785,1.243,424.200,101.500,18.660,4.917,easy
1536.000,227.900,42.320,6.301,1018.000,121.000,21.850,2.944,156.200,29.550,4.757,1.248,424.800,101.300,18.950,4.910,easy
1541.000,228.700,42.640,6.247,1018.000,121.300,21.810,2.954,165.300,29.950,4.805,1.239,428.800,102.000,18.910,4.973,easy
1547.000,230.200,42.660,6.307,1022.000,121.500,22.020,2.983,158.700,30.030,4.846,1.241,429.600,102.200,19.120,4.963,easy
1553.000,231.600,42.800,6.323,1025.000,122.000,21.940,2.935,164.300,29.820,4.869,1.262,430.000,103.000,19.210,4.986,easy
1548.000,229.400,42.710,6.300,1025.000,121.100,21.680,2.930,158.600,29.850,4.790,1.248,423.900,101.400,18.800,4.800,easy
1533.000,225.900,41.990,6.203,1020.000,120.500,21.690,2.927,162.100,29.760,4.837,1.236,422.600,100.200,18.780,4.826,easy
1533.000,227.100,41.950,6.244,1018.000,120.700,21.720,2.932,164.900,29.600,4.840,1.248,425.200,101.000,18.820,4.889,easy
1536.000,228.800,42.240,6.223,1016.000,121.000,21.780,2.961,164.900,29.270,4.737,1.257,422.900,101.000,18.730,4.848,easy
1533.000,226.900,42.540,6.239,1021.000,121.300,21.790,2.945,160.500,29.710,4.789,1.234,424.100,101.700,18.780,4.874,easy
1538.000,229.000,42.480,6.303,1021.000,121.200,21.860,2.942,163.700,29.620,4.775,1.245,425.600,101.200,18.930,4.885,easy
1545.000,230.300,42.950,6.333,1020.000,121.600,21.810,2.966,161.000,30.080,4.880,1.246,427.800,102.200,19.150,4.930,easy
1550.000,231.400,42.710,6.343,1024.000,121.700,21.990,2.954,160.300,29.920,4.771,1.249,427.800,102.800,19.110,4.998,easy
1557.000,229.100,43.430,6.397,1027.000,122.000,21.910,2.947,160.400,29.910,4.844,1.263,431.900,103.000,19.020,4.923,easy
1544.000,228.100,42.380,6.230,1022.000,120.800,21.720,2.921,159.500,29.770,4.829,1.230,420.200,100.500,18.600,4.777,easy
1529.000,226.100,41.970,6.182,1018.000,120.200,21.700,2.924,161.200,29.870,4.806,1.242,419.700,100.500,18.520,4.782,easy
1530.000,226.100,42.130,6.213,1020.000,120.500,21.630,2.942,162.000,29.650,4.790,1.237,424.300,100.900,18.610,4.795,easy
1531.000,227.900,42.370,6.230,1022.000,120.300,21.680,2.947,162.700,29.930,4.782,1.247,422.000,100.200,18.530,4.822,easy
1532.000,228.000,42.260,6.214,1022.000,120.800,21.630,2.923,159.500,29.800,4.798,1.229,422.500,100.900,18.720,4.864,easy
1537.000,230.200,42.590,6.246,1025.000,120.300,21.660,2.949,162.800,29.940,4.780,1.234,422.500,101.600,18.710,4.907,easy
1542.000,226.900,43.020,6.294,1021.000,121.200,21.880,2.936,157.800,29.760,4.827,1.244,425.400,101.600,19.150,4.954,easy
1547.000,230.700,43.050,6.305,1021.000,121.700,21.760,2.975,164.200,29.980,4.758,1.253,428.900,102.100,19.200,4.933,easy
1552.000,231.000,43.090,6.411,1024.000,121.500,21.830,2.966,161.300,29.720,4.860,1.257,431.000,103.000,19.360,4.898,easy
1545.000,228.800,42.240,6.253,1016.000,121.100,21.680,2.934,165.200,29.540,4.811,1.236,420.200,100.100,18.640,4.821,easy
1528.000,225.800,41.960,6.157,1024.000,120.100,21.630,2.913,159.600,29.860,4.831,1.226,420.800,100.000,18.510,4.758,easy
1526.000,227.400,41.850,6.185,1016.000,120.200,21.720,2.950,159.800,29.610,4.782,1.219,420.200,99.690,18.570,4.802,easy
1526.000,226.600,42.190,6.190,1016.000,119.700,21.640,2.923,156.700,29.690,4.734,1.233,419.300,100.600,18.510,4.795,easy
1526.000,225.700,42.020,6.225,1020.000,120.600,21.560,2.914,161.600,29.600,4.780,1.214,420.700,99.580,18.540,4.813,easy
1530.000,227.500,42.400,6.192,1019.000,120.800,21.660,2.938,155.500,29.560,4.797,1.235,421.600,100.500,18.730,4.867,easy
1536.000,227.900,42.600,6.254,1019.000,120.800,21.620,2.941,161.700,29.760,4.755,1.246,425.800,100.700,18.930,4.870,easy
1541.000,229.200,42.680,6.281,1020.000,121.200,21.770,2.962,163.400,30.220,4.776,1.235,426.000,101.500,18.970,4.908,easy
1547.000,228.700,43.240,6.379,1023.000,121.800,21.740,2.973,163.000,29.770,4.814,1.263,427.500,102.600,19.110,4.967,easy
1548.000,229.600,42.480,6.231,1019.000,120.800,21.550,2.917,161.500,29.710,4.853,1.232,420.200,100.500,18.490,4.828,easy
1526.000,226.700,41.640,6.138,1011.000,119.800,21.610,2.924,156.800,29.410,4.794,1.221,420.400,99.520,18.400,4.828,easy
1525.000,225.100,41.730,6.199,1015.000,119.900,21.560,2.924,164.200,29.470,4.742,1.216,418.000,99.680,18.460,4.767,easy
1525.000,228.300,41.890,6.141,1014.000,120.300,21.630,2.912,161.400,30.330,4.709,1.247,420.100,100.100,18.480,4.787,easy
1524.000,224.900,41.910,6.157,1017.000,120.500,21.680,2.925,160.400,29.600,4.827,1.229,419.800,100.100,18.590,4.789,easy
1527.000,226.900,42.230,6.186,1019.000,120.600,21.670,2.914,165.500,29.200,4.781,1.245,419.400,100.600,18.620,4.805,easy
1533.000,227.600,42.320,6.218,1022.000,120.400,21.740,2.952,163.400,29.800,4.848,1.216,423.200,101.400,18.710,4.910,easy
1537.000,228.400,42.500,6.284,1020.000,120.600,21.710,2.953,158.600,29.960,4.773,1.241,424.700,101.300,18.710,4.881,easy
1543.000,230.000,43.020,6.292,1023.000,121.300,21.750,2.966,163.100,29.820,4.812,1.268,428.200,102.500,18.890,4.974,easy
1550.000,229.900,42.860,6.361,1018.000,121.200,21.650,2.961,160.700,29.610,4.849,1.239,431.500,102.200,18.890,4.915,easy
1540.000,227.300,42.180,6.167,1019.000,120.200,21.700,2.920,163.400,29.730,4.828,1.224,420.700,100.300,18.710,4.820,easy
1525.000,225.700,41.820,6.168,1017.000,120.400,21.540,2.907,160.000,29.750,4.815,1.220,419.700,99.940,18.560,4.796,easy
1524.000,225.000,42.080,6.147,1021.000,120.800,21.560,2.912,160.200,29.610,4.717,1.232,420.500,100.100,18.600,4.820,easy
1526.000,226.600,41.870,6.147,1017.000,120.500,21.670,2.904,155.600,29.580,4.778,1.245,421.300,100.800,18.700,4.777,easy
1528.000,226.700,42.330,6.184,1016.000,120.200,21.700,2.921,161.100,29.820,4.769,1.237,421.600,100.800,18.620,4.855,easy
1532.000,226.700,42.410,6.251,1017.000,120.900,21.670,2.934,167.200,30.140,4.741,1.233,423.300,101.600,18.690,4.847,easy
1537.000,229.800,42.470,6.231,1021.000,120.700,21.840,2.927,159.500,29.740,4.791,1.228,425.900,101.300,18.940,4.915,easy
1542.000,230.700,42.650,6.302,1020.000,121.400,21.780,2.965,162.700,29.730,4.816,1.246,427.300,101.700,19.020,4.977,easy
1548.000,232.000,42.810,6.338,1030.000,121.000,22.000,2.941,166.400,30.130,4.836,1.261,430.300,102.600,19.010,4.946,easy
1541.000,228.200,42.150,6.189,1023.000,120.200,21.520,2.924,161.100,29.900,4.817,1.229,418.500,100.100,18.610,4.762,easy
1524.000,226.600,42.060,6.154,1012.000,119.900,21.560,2.924,160.100,29.840,4.812,1.231,419.800,99.770,18.540,4.772,easy
1524.000,225.600,41.810,6.112,1015.000,119.900,21.420,2.941,161.200,29.230,4.780,1.236,421.700,100.300,18.510,4.769,easy
1525.000,225.500,42.050,6.163,1015.000,120.600,21.540,2.918,158.300,29.670,4.742,1.230,422.300,99.960,18.590,4.847,easy
1527.000,226.700,41.930,6.118,1020.000,120.600,21.750,2.934,158.700,29.760,4.775,1.238,423.200,100.300,18.670,4.787,easy
1530.000,225.100,42.110,6.194,1017.000,120.600,21.710,2.939,161.800,29.590,4.765,1.252,423.400,100.600,18.810,4.827,easy
1534.000,228.900,42.190,6.277,1020.000,120.100,21.840,2.947,159.500,29.660,4.843,1.248,424.200,102.000,19.030,4.916,easy
1541.000,230.100,42.570,6.311,1022.000,121.400,21.900,2.932,162.600,29.600,4.832,1.247,428.800,101.900,19.010,4.987,easy
1547.000,232.100,42.970,6.346,1026.000,121.000,21.900,2.928,157.700,30.090,4.833,1.258,430.300,103.300,19.110,4.960,easy
1551.000,231.100,42.680,6.324,1024.000,120.400,21.750,2.938,164.700,30.310,4.880,1.243,425.600,101.200,18.820,4.815,easy
1527.000,226.300,41.730,6.160,1016.000,120.000,21.710,2.913,157.300,29.840,4.908,1.220,419.800,100.300,18.520,4.769,easy
1521.000,225.000,41.640,6.139,1020.000,120.200,21.510,2.904,162.200,29.530,4.781,1.226,422.600,100.600,18.520,4.796,easy
1524.000,227.200,41.780,6.090,1018.000,120.100,21.440,2.932,162.100,29.510,4.758,1.233,423.600,100.200,18.570,4.814,easy
1523.000,225.100,42.170,6.125,1017.000,120.000,21.640,2.920,163.100,29.260,4.866,1.226,421.200,100.300,18.710,4.870,easy
1526.000,226.200,41.860,6.139,1023.000,120.700,21.760,2.937,162.000,29.610,4.752,1.229,422.500,100.900,18.770,4.836,easy
1531.000,226.100,42.260,6.175,1016.000,120.900,21.650,2.928,162.600,29.510,4.905,1.249,427.800,101.400,18.830,4.884,easy
1536.000,228.200,42.360,6.294,1017.000,120.600,21.770,2.941,163.000,29.520,4.777,1.251,426.600,102.200,18.890,4.954,easy
1544.000,230.000,42.740,6.350,1022.000,121.700,21.860,2.967,162.000,29.760,4.839,1.243,431.800,102.200,19.070,4.992,easy
1549.000,231.900,43.140,6.395,1027.000,121.800,21.940,2.963,161.300,29.890,4.838,1.269,434.500,103.200,19.240,4.978,easy
1550.000,231.300,42.460,6.276,1019.000,120.200,21.820,2.920,165.000,30.310,4.862,1.250,425.900,101.300,18.830,4.863,easy
1528.000,226.200,41.920,6.145,1015.000,120.100,21.430,2.934,162.700,29.960,4.848,1.234,421.900,100.400,18.480,4.780,easy
1525.000,226.700,42.220,6.134,1019.000,120.300,21.640,2.925,160.500,29.950,4.779,1.238,423.000,100.500,18.670,4.834,easy
1527.000,225.800,42.010,6.165,1016.000,119.900,21.680,2.914,161.400,29.550,4.832,1.239,420.100,101.100,18.820,4.829,easy
1527.000,226.400,42.000,6.183,1019.000,120.300,21.670,2.923,162.900,30.210,4.795,1.241,424.700,101.000,18.700,4.846,easy
1530.000,227.000,42.660,6.193,1018.000,119.800,21.740,2.931,166.700,29.940,4.870,1.225,424.600,101.400,18.860,4.892,easy
1536.000,228.500,42.910,6.257,1023.000,121.300,21.720,2.951,164.000,29.730,4.811,1.252,428.100,101.800,18.930,4.900,easy
1542.000,230.300,42.660,6.337,1023.000,121.700,21.740,2.956,160.500,30.000,4.887,1.243,430.400,102.400,19.080,4.981,easy
1548.000,232.000,43.140,6.383,1020.000,121.400,22.080,2.968,165.700,29.920,4.816,1.254,432.800,103.200,19.370,5.015,easy
1554.000,232.600,43.600,6.402,1020.000,121.500,21.820,2.937,165.300,30.060,4.888,1.272,433.100,102.200,19.090,4.947,easy
1541.000,230.300,42.530,6.162,1018.000,120.600,21.710,2.937,163.500,29.910,4.856,1.249,423.300,100.400,18.760,4.813,easy
1529.000,226.400,42.170,6.218,1021.000,120.600,21.700,2.914,161.900,30.080,4.838,1.235,425.000,101.300,18.710,4.806,easy
1530.000,227.600,41.970,6.203,1018.000,120.600,21.770,2.926,162.300,30.040,4.794,1.233,425.400,101.300,18.720,4.851,easy
1532.000,228.300,41.910,6.150,1019.000,120.400,21.710,2.929,161.800,29.870,4.841,1.230,425.300,101.500,18.720,4.853,easy
1533.000,229.200,42.410,6.223,1020.000,121.200,21.730,2.954,163.500,29.740,4.858,1.248,430.200,101.800,18.830,4.863,easy
1537.000,228.500,42.210,6.225,1023.000,121.400,21.830,2.939,165.100,29.840,4.894,1.243,427.700,101.800,19.060,4.921,easy
1543.000,229.400,42.930,6.296,1021.000,121.900,21.840,2.970,161.000,30.130,4.837,1.259,430.400,103.400,19.210,4.958,easy
1550.000,233.900,43.140,6.333,1025.000,121.300,21.920,2.987,162.300,30.140,4.901,1.258,433.500,103.200,19.350,5.028,easy
1558.000,231.300,43.340,6.385,1022.000,121.600,21.850,2.965,162.500,30.450,4.867,1.262,434.100,102.000,19.110,4.909,easy
1541.000,228.500,42.490,6.212,1025.000,120.900,21.710,2.940,161.900,29.840,4.890,1.247,422.100,100.900,18.790,4.803,easy
1530.000,226.500,41.840,6.190,1021.000,120.200,21.720,2.923,163.200,29.860,4.841,1.246,424.600,100.900,18.750,4.845,easy
1529.000,226.900,42.100,6.239,1024.000,120.800,21.670,2.931,160.400,30.040,4.762,1.247,423.600,100.900,18.810,4.852,easy
1533.000,228.500,42.520,6.185,1023.000,120.300,21.720,2.915,168.700,30.290,4.820,1.222,426.200,100.500,18.670,4.848,easy
1534.000,227.400,42.280,6.230,1020.000,120.900,21.810,2.923,163.200,29.970,4.770,1.232,424.600,101.900,18.950,4.864,easy
1539.000,230.500,42.650,6.246,1020.000,121.400,21.860,2.941,161.800,29.830,4.839,1.253,428.100,102.000,19.190,4.914,easy
1544.000,229.900,42.650,6.254,1027.000,121.900,21.760,2.959,162.400,30.010,4.835,1.258,432.300,102.500,19.350,4.999,easy
1551.000,231.300,43.450,6.362,1025.000,121.600,21.830,2.956,164.000,30.020,4.808,1.249,434.300,103.400,19.280,5.021,easy
1553.000,234.500,43.020,6.288,1022.000,121.400,21.710,2.938,162.800,30.240,4.861,1.231,427.100,101.100,18.860,4.827,easy
1532.000,227.700,42.190,6.162,1020.000,120.500,21.390,2.915,159.300,29.510,4.853,1.252,422.300,100.300,18.720,4.804,easy
1528.000,225.700,41.950,6.196,1018.000,120.600,21.750,2.940,158.100,29.800,4.865,1.253,424.100,101.600,18.680,4.837,easy
1530.000,227.400,41.770,6.196,1017.000,120.700,21.650,2.939,161.300,29.390,4.778,1.238,427.100,100.800,18.580,4.834,easy
1530.000,227.400,41.960,6.172,1020.000,120.000,21.650,2.926,163.300,29.640,4.792,1.249,425.600,101.700,18.910,4.863,easy
1532.000,227.700,42.370,6.252,1021.000,120.500,21.730,2.921,161.900,29.850,4.928,1.237,428.600,101.800,18.890,4.928,easy
1539.000,229.000,42.570,6.271,1024.000,121.100,21.750,2.953,165.400,29.840,4.794,1.253,431.100,102.300,18.940,4.940,easy
1545.000,231.700,43.210,6.332,1023.000,121.400,21.940,2.967,164.800,30.060,4.811,1.251,430.700,102.400,19.090,5.010,easy
1551.000,233.000,43.180,6.375,1030.000,121.900,22.000,2.956,162.900,29.850,4.905,1.252,431.300,103.100,19.290,4.983,easy
1555.000,233.100,43.040,6.328,1028.000,121.000,21.820,2.931,167.900,30.300,4.869,1.247,429.400,102.000,18.920,4.803,easy
1533.000,226.600,42.090,6.130,1024.000,120.200,21.780,2.923,157.000,29.670,4.770,1.239,421.800,100.700,18.610,4.735,easy
1527.000,226.400,42.210,6.171,1020.000,120.500,21.690,2.942,162.700,29.570,4.851,1.248,426.000,101.000,18.750,4.876,easy
1531.000,227.400,42.410,6.245,1020.000,120.200,21.620,2.960,158.600,29.880,4.851,1.242,425.200,101.300,18.720,4.811,easy
1531.000,228.000,42.270,6.197,1020.000,120.500,21.930,2.937,160.600,29.480,4.777,1.238,424.800,101.100,18.860,4.823,easy
1532.000,229.100,42.380,6.231,1023.000,121.300,21.840,2.918,159.200,29.600,4.798,1.262,426.700,101.700,18.940,4.877,easy
1539.000,229.500,42.720,6.299,1024.000,121.100,21.880,2.940,161.900,30.030,4.790,1.253,431.400,102.100,18.940,4.971,easy
1544.000,231.900,43.120,6.323,1025.000,121.600,21.880,2.956,163.600,30.080,4.845,1.264,431.300,102.900,19.080,4.978,easy
1551.000,233.100,43.040,6.363,1026.000,121.400,22.010,2.947,166.300,30.210,4.894,1.258,433.100,103.300,19.300,4.979,easy
1548.000,231.400,42.930,6.262,1023.000,121.100,21.670,2.919,156.400,29.640,4.776,1.236,424.900,100.500,18.650,4.763,easy
1530.000,228.200,41.520,6.227,1020.000,119.900,21.650,2.938,163.100,30.120,4.787,1.244,423.300,100.800,18.730,4.810,easy
1528.000,229.200,42.080,6.175,1017.000,120.000,21.800,2.937,160.800,29.780,4.752,1.231,424.300,101.000,18.770,4.804,easy
1531.000,226.800,42.620,6.210,1022.000,120.600,21.510,2.917,164.200,29.820,4.816,1.240,425.800,100.300,18.870,4.798,easy
1529.000,227.000,42.530,6.160,1019.000,120.900,21.690,2.915,160.300,29.820,4.820,1.241,427.700,101.100,18.750,4.837,easy
1534.000,227.400,42.260,6.195,1022.000,121.500,21.710,2.929,164.500,29.610,4.797,1.225,428.100,102.100,18.940,4.851,easy
1539.000,229.800,42.620,6.257,1023.000,121.500,21.820,2.956,164.400,29.910,4.790,1.255,429.700,102.200,19.180,4.935,easy
1543.000,232.000,42.920,6.272,1023.000,121.700,21.820,2.972,160.200,30.350,4.754,1.242,432.800,102.500,19.300,4.931,easy
1547.000,230.500,43.000,6.277,1020.000,120.800,21.810,2.941,162.900,30.080,4.880,1.244,425.600,101.200,18.760,4.784,easy
1526.000,226.500,41.770,6.147,1017.000,120.400,21.650,2.909,159.600,30.010,4.742,1.224,421.100,100.100,18.700,4.756,easy
1522.000,226.600,41.970,6.153,1018.000,120.100,21.600,2.909,161.500,29.960,4.855,1.238,422.300,100.100,18.650,4.783,easy
1523.000,225.900,42.200,6.114,1020.000,120.500,21.790,2.910,164.800,29.790,4.828,1.237,423.900,100.300,18.420,4.783,easy
1522.000,228.000,42.020,6.148,1019.000,120.000,21.800,2.943,164.100,29.440,4.773,1.244,426.400,101.000,18.590,4.822,easy
1527.000,227.300,42.190,6.172,1021.000,120.500,21.690,2.932,158.300,29.540,4.850,1.256,425.400,101.300,18.830,4.819,easy
1529.000,228.000,42.460,6.197,1023.000,119.800,21.780,2.942,163.700,30.140,4.797,1.245,426.500,101.000,18.740,4.848,easy
1534.000,231.100,42.650,6.282,1020.000,121.100,21.860,2.973,162.400,29.790,4.805,1.249,429.400,102.100,18.960,4.934,easy
1540.000,229.500,42.780,6.262,1021.000,120.800,21.530,2.946,171.100,30.110,4.883,1.242,430.400,101.600,18.890,4.794,easy
1526.000,227.200,42.010,6.141,1017.000,119.600,21.640,2.911,164.000,29.790,4.822,1.221,418.100,99.520,18.450,4.745,easy
1513.000,224.200,41.260,6.074,1013.000,119.600,21.620,2.911,159.900,29.520,4.758,1.231,419.500,99.520,18.470,4.709,easy
1511.000,224.700,41.520,6.057,1015.000,119.800,21.520,2.908,158.600,29.540,4.802,1.229,418.400,99.450,18.400,4.681,easy
1513.000,224.500,41.590,6.083,1010.000,119.900,21.530,2.901,166.200,29.210,4.747,1.244,419.500,98.930,18.630,4.745,easy
1513.000,224.100,41.410,6.077,1012.000,119.800,21.600,2.944,158.300,29.790,4.747,1.252,422.000,100.300,18.330,4.785,easy
1517.000,226.800,41.820,6.128,1017.000,119.900,21.560,2.945,161.500,29.640,4.744,1.235,421.400,100.700,18.520,4.807,easy
1522.000,227.900,42.120,6.143,1015.000,120.000,21.790,2.925,160.100,29.660,4.833,1.230,426.200,101.300,18.640,4.830,easy
1526.000,229.800,42.290,6.194,1023.000,120.600,21.730,2.947,161.900,29.840,4.842,1.271,426.800,101.300,18.760,4.785,easy
1522.000,224.600,41.790,6.058,1014.000,119.200,21.660,2.918,163.800,29.900,4.713,1.238,418.500,98.880,18.240,4.668,easy
1505.000,223.100,41.270,6.060,1009.000,118.600,21.490,2.927,160.700,29.360,4.789,1.224,417.900,99.170,18.320,4.655,easy
1503.000,222.600,41.400,6.015,1017.000,118.900,21.480,2.912,159.000,29.630,4.692,1.233,418.800,99.180,18.310,4.694,easy
1504.000,223.300,41.720,5.980,1008.000,119.100,21.460,2.923,160.300,29.320,4.747,1.233,417.100,99.230,18.390,4.699,easy
1504.000,223.100,41.210,6.050,1009.000,119.200,21.490,2.944,161.000,29.900,4.743,1.228,420.200,99.970,18.320,4.698,easy
1507.000,224.200,41.550,6.122,1016.000,118.900,21.600,2.915,162.300,29.630,4.786,1.234,419.200,99.330,18.340,4.738,easy
1511.000,226.600,41.820,6.096,1015.000,120.000,21.550,2.914,160.900,29.770,4.737,1.216,422.000,100.100,18.600,4.807,easy
1517.000,224.700,42.070,6.144,1013.000,120.100,21.690,2.945,163.300,29.640,4.863,1.234,425.000,100.900,18.620,4.830,easy
1524.000,226.900,42.060,6.180,1019.000,120.000,21.570,2.928,159.100,29.360,4.783,1.247,427.800,101.200,18.710,4.723,easy
1513.000,224.300,41.320,6.030,1014.000,118.200,21.390,2.913,162.600,29.310,4.773,1.268,417.200,98.830,18.270,4.685,easy
1499.000,221.300,41.120,6.029,1016.000,118.700,21.470,2.928,159.900,29.280,4.704,1.227,417.000,98.810,18.290,4.682,easy
1499.000,223.600,40.970,5.970,1009.000,118.900,21.580,2.922,159.500,29.090,4.763,1.234,419.200,98.860,18.140,4.725,easy
1499.000,221.400,40.960,5.985,1009.000,118.600,21.450,2.935,160.300,29.500,4.820,1.239,416.700,99.010,18.310,4.643,easy
1498.000,223.200,41.380,5.997,1013.000,118.900,21.500,2.940,158.400,29.260,4.730,1.235,416.600,99.520,18.010,4.680,easy
1502.000,221.300,41.590,6.018,1011.000,119.500,21.470,2.929,162.900,29.770,4.655,1.241,420.100,100.300,18.280,4.737,easy
1506.000,224.200,41.880,6.070,1014.000,119.000,21.530,2.923,164.200,29.640,4.811,1.242,422.800,100.700,18.510,4.784,easy
1512.000,224.500,41.570,6.107,1014.000,119.200,21.670,2.965,162.600,29.990,4.721,1.239,423.600,101.000,18.510,4.784,easy
1519.000,224.700,41.990,6.092,1013.000,119.000,21.540,2.942,162.400,29.930,4.818,1.257,420.900,99.560,18.310,4.663,easy
1498.000,220.700,40.960,6.014,1005.000,118.700,21.410,2.898,162.300,29.240,4.774,1.240,416.600,97.960,18.130,4.610,easy
1492.000,221.200,40.820,5.986,1007.000,119.000,21.470,2.924,159.200,29.590,4.721,1.227,413.900,97.740,18.090,4.663,easy
1493.000,221.800,41.110,5.993,1006.000,118.700,21.490,2.895,160.700,29.330,4.828,1.247,415.500,98.450,18.060,4.648,easy
1493.000,220.900,40.470,5.961,1010.000,118.300,21.400,2.903,162.400,29.430,4.824,1.216,415.400,98.760,18.150,4.657,easy
1495.000,221.100,40.800,5.996,1014.000,119.100,21.530,2.894,158.200,29.520,4.792,1.236,418.000,99.260,18.280,4.715,easy
1499.000,222.600,41.470,5.979,1012.000,118.300,21.630,2.923,158.600,29.240,4.820,1.240,420.900,99.140,18.190,4.760,easy
1503.000,222.100,41.460,6.039,1014.000,119.400,21.500,2.938,161.600,29.700,4.770,1.229,421.200,100.400,18.180,4.790,easy
1510.000,223.400,41.590,6.087,1014.000,119.200,21.440,2.959,162.700,29.810,4.846,1.247,425.700,100.700,18.540,4.784,easy
1513.000,224.300,41.930,6.098,1014.000,119.100,21.610,2.922,163.900,29.740,4.807,1.242,418.300,98.890,18.190,4.605,easy
1492.000,219.600,40.580,5.974,1002.000,118.200,21.460,2.896,162.900,29.980,4.779,1.238,417.300,99.040,18.240,4.579,easy
1487.000,219.200,40.490,5.940,1006.000,117.800,21.490,2.895,155.600,29.630,4.804,1.224,415.800,98.770,17.980,4.635,easy
1488.000,218.900,40.840,5.960,1007.000,118.400,21.370,2.913,161.200,29.780,4.743,1.221,416.700,98.930,18.220,4.626,easy
1488.000,219.900,40.810,5.974,1007.000,118.200,21.390,2.916,158.800,29.730,4.773,1.232,417.700,98.600,18.180,4.656,easy
1491.000,220.300,41.100,5.992,1007.000,118.200,21.420,2.933,162.100,29.490,4.763,1.244,418.200,99.160,18.140,4.734,easy
1495.000,221.800,41.070,6.003,1009.000,118.400,21.520,2.925,157.500,29.880,4.780,1.226,418.700,99.950,18.360,4.713,easy
1500.000,223.500,41.510,6.032,1014.000,119.000,21.570,2.947,162.200,29.940,4.881,1.244,421.600,100.100,18.370,4.780,easy
1506.000,225.000,41.670,6.063,1017.000,119.500,21.670,2.952,159.100,29.720,4.764,1.226,425.500,100.900,18.540,4.795,easy
1512.000,225.700,41.980,6.105,1013.000,119.500,21.700,2.968,155.600,29.950,4.871,1.251,425.800,101.500,18.590,4.847,easy
1520.000,226.000,42.240,6.208,1022.000,119.400,21.720,2.995,163.500,29.580,4.808,1.257,429.200,102.000,18.780,4.881,easy
1527.000,227.000,42.750,6.206,1019.000,119.800,21.850,2.958,160.300,30.170,4.893,1.255,432.900,102.400,18.910,4.818,easy
1517.000,223.800,41.550,6.082,1017.000,118.800,21.620,2.931,162.200,30.070,4.746,1.241,421.900,99.110,18.370,4.652,easy
1501.000,220.700,40.960,6.026,1009.000,118.100,21.430,2.913,163.000,29.760,4.812,1.243,420.100,99.350,18.370,4.674,easy
1498.000,221.400,41.400,6.004,1009.000,118.600,21.680,2.927,156.700,29.290,4.831,1.238,422.100,100.200,18.410,4.647,easy
1499.000,222.300,41.310,6.021,1011.000,118.600,21.530,2.930,163.000,29.440,4.819,1.232,422.000,99.600,18.390,4.737,easy
1499.000,222.900,40.770,6.020,1010.000,118.900,21.590,2.919,164.000,29.690,4.825,1.240,422.500,100.000,18.310,4.726,easy
1504.000,224.500,41.330,6.089,1017.000,118.700,21.510,2.927,154.300,29.500,4.808,1.258,422.900,100.400,18.370,4.780,easy
1509.000,224.400,41.600,6.068,1014.000,118.800,21.500,2.955,166.100,29.540,4.820,1.248,426.200,101.700,18.660,4.806,easy
1514.000,225.800,41.700,6.119,1020.000,119.000,21.610,2.948,159.200,29.960,4.800,1.253,426.400,101.200,18.860,4.875,easy
1518.000,226.400,42.010,6.198,1021.000,119.900,21.730,2.964,165.100,30.070,4.854,1.243,431.500,102.100,18.920,4.894,easy
1522.000,225.700,42.170,6.188,1018.000,119.600,21.650,2.954,162.900,30.070,4.879,1.255,422.500,100.500,18.600,4.714,easy
1504.000,221.000,41.470,6.027,1013.000,119.300,21.490,2.917,162.200,29.990,4.768,1.259,422.600,99.750,18.450,4.724,easy
1502.000,221.700,41.370,6.042,1016.000,118.600,21.440,2.932,165.100,29.630,4.840,1.252,420.800,99.960,18.580,4.689,easy
1504.000,222.000,41.340,6.067,1011.000,119.100,21.490,2.905,159.300,29.750,4.834,1.238,423.000,99.980,18.480,4.718,easy
1504.000,223.300,41.570,6.068,1015.000,118.900,21.630,2.942,166.100,30.190,4.767,1.244,423.000,100.800,18.660,4.747,easy
1506.000,224.800,41.540,6.105,1013.000,119.400,21.630,2.952,159.700,29.680,4.757,1.248,425.700,100.200,18.730,4.802,easy
1512.000,226.000,41.790,6.131,1013.000,119.000,21.810,2.980,162.100,29.930,4.794,1.251,426.500,101.900,18.810,4.807,easy
1518.000,226.200,41.950,6.182,1015.000,120.100,21.790,2.954,165.800,30.330,4.832,1.260,429.700,101.800,18.900,4.880,easy
1523.000,227.800,42.060,6.233,1024.000,119.800,21.710,2.964,166.000,30.340,4.890,1.258,430.100,102.300,19.100,4.889,easy
1528.000,229.600,42.370,6.154,1021.000,119.900,21.600,2.974,164.400,30.540,4.785,1.264,427.600,101.900,18.540,4.748,easy
1511.000,223.000,41.220,6.022,1017.000,118.500,21.520,2.932,161.400,29.790,4.772,1.246,425.300,99.520,18.520,4.681,easy
1506.000,222.000,41.230,6.025,1015.000,118.900,21.560,2.921,163.100,30.470,4.814,1.242,422.500,99.970,18.480,4.741,easy
1505.000,221.800,41.340,6.076,1015.000,119.300,21.700,2.935,160.600,30.060,4.838,1.235,421.700,100.700,18.570,4.776,easy
1506.000,222.900,41.400,6.043,1019.000,119.500,21.500,2.957,163.200,29.940,4.820,1.240,423.700,100.300,18.480,4.772,easy
1507.000,222.200,41.620,6.108,1015.000,118.900,21.630,2.955,167.300,29.550,4.821,1.246,425.800,100.600,18.580,4.799,easy
1511.000,224.200,41.640,6.127,1019.000,119.100,21.600,2.913,161.500,29.740,4.831,1.252,425.600,101.300,18.890,4.833,easy
1518.000,225.200,41.910,6.161,1022.000,119.500,21.740,2.973,162.900,30.190,4.867,1.246,427.200,101.400,18.970,4.877,easy
1522.000,226.900,42.120,6.183,1021.000,120.600,21.800,2.972,159.300,29.820,4.863,1.253,428.000,102.200,19.080,4.925,easy
1526.000,228.900,42.100,6.191,1025.000,119.500,21.670,2.934,165.700,29.730,4.849,1.272,425.000,100.800,18.800,4.777,easy
1508.000,223.100,41.080,6.102,1017.000,119.100,21.450,2.922,159.500,30.340,4.823,1.235,422.100,99.570,18.330,4.715,easy
1504.000,222.100,41.200,6.076,1016.000,118.500,21.650,2.935,162.700,29.850,4.770,1.247,420.800,100.300,18.670,4.706,easy
1504.000,224.100,41.560,6.022,1016.000,118.500,21.490,2.922,162.900,29.670,4.830,1.247,420.700,100.100,18.470,4.776,easy
1503.000,221.800,41.520,6.014,1017.000,118.800,21.550,2.927,159.100,29.730,4.825,1.235,420.600,99.800,18.510,4.742,easy
1506.000,222.300,41.600,6.131,1018.000,119.100,21.560,2.945,162.000,30.170,4.841,1.243,421.500,101.000,18.720,4.780,easy
1509.000,224.400,41.720,6.136,1016.000,119.200,21.590,2.951,159.400,29.950,4.824,1.248,423.000,101.500,18.620,4.815,easy
1514.000,226.000,42.080,6.143,1020.000,120.100,21.720,2.939,161.900,29.680,4.896,1.249,422.900,101.500,18.950,4.854,easy
1519.000,224.400,42.070,6.191,1019.000,119.300,21.700,2.973,163.700,29.860,4.811,1.242,430.700,102.100,19.080,4.921,easy
1525.000,226.700,42.510,6.228,1020.000,119.800,21.680,2.954,163.900,29.790,4.838,1.247,429.500,101.800,18.840,4.836,easy
1515.000,224.100,41.390,6.126,1013.000,118.500,21.700,2.915,165.500,29.740,4.848,1.235,421.300,101.000,18.460,4.668,easy
1505.000,222.400,41.250,6.050,1015.000,118.300,21.600,2.922,163.000,29.680,4.757,1.238,419.600,99.410,18.700,4.740,easy
1504.000,224.600,41.050,6.078,1017.000,118.700,21.540,2.936,159.400,29.690,4.775,1.239,420.900,100.100,18.670,4.795,easy
1506.000,223.000,41.320,6.081,1017.000,118.800,21.720,2.910,161.300,29.940,4.822,1.251,420.800,100.000,18.560,4.776,easy
1508.000,223.900,41.530,6.090,1017.000,119.200,21.580,2.948,161.300,30.400,4.838,1.234,420.300,100.200,18.880,4.788,easy
1510.000,224.100,41.650,6.139,1019.000,119.500,21.670,2.946,160.900,29.890,4.821,1.245,424.100,100.500,18.810,4.862,easy
1515.000,224.900,41.950,6.205,1021.000,119.400,21.820,2.958,159.800,30.110,4.873,1.248,425.800,101.400,18.950,4.884,easy
1521.000,225.700,42.110,6.218,1026.000,120.100,21.680,2.960,161.600,30.130,4.804,1.258,429.000,101.800,19.090,4.915,easy
1524.000,227.000,42.380,6.240,1027.000,119.600,21.750,2.951,160.600,29.880,4.802,1.242,427.600,102.800,18.880,4.863,easy
1517.000,225.800,41.780,6.131,1018.000,119.100,21.660,2.948,162.900,29.970,4.822,1.240,422.400,100.200,18.470,4.748,easy
1507.000,223.200,41.030,6.109,1018.000,119.400,21.530,2.922,156.800,29.880,4.757,1.241,420.500,100.100,18.600,4.753,easy
1507.000,223.100,41.290,6.095,1017.000,119.300,21.680,2.931,157.000,29.890,4.833,1.231,422.700,99.900,18.580,4.723,easy
1509.000,223.500,41.330,6.079,1017.000,119.400,21.590,2.924,159.700,29.730,4.810,1.237,421.900,100.400,18.620,4.778,easy
1509.000,224.900,41.390,6.119,1020.000,118.800,21.880,2.955,162.700,29.890,4.797,1.247,424.300,100.300,18.760,4.772,easy
1515.000,224.700,41.910,6.128,1019.000,118.900,21.590,2.986,164.700,29.950,4.849,1.251,422.600,101.200,18.850,4.812,easy
1518.000,224.900,42.030,6.195,1021.000,119.900,21.700,2.959,157.400,30.380,4.818,1.237,427.400,101.900,19.100,4.867,easy
1522.000,227.100,42.320,6.239,1022.000,120.400,21.830,2.937,163.300,30.110,4.875,1.250,427.600,101.800,19.180,4.929,easy
1529.000,228.000,42.560,6.233,1022.000,119.600,21.780,2.956,162.900,29.800,4.926,1.262,428.200,101.400,18.790,4.856,easy
1513.000,222.400,41.680,6.133,1020.000,119.000,21.490,2.928,163.800,29.940,4.827,1.247,422.700,100.300,18.770,4.755,easy
1505.000,222.400,41.390,6.084,1018.000,119.300,21.650,2.912,160.900,29.940,4.816,1.222,421.300,99.750,18.520,4.740,easy
1505.000,222.800,41.920,6.090,1017.000,119.500,21.590,2.942,163.100,29.860,4.807,1.227,423.600,100.700,18.700,4.792,easy
1507.000,223.400,41.390,6.105,1019.000,118.800,21.570,2.931,161.200,29.720,4.834,1.229,422.100,100.900,18.880,4.765,easy
1508.000,222.500,41.600,6.105,1016.000,119.400,21.630,2.944,162.500,29.900,4.777,1.232,424.800,101.300,19.010,4.815,easy
1512.000,223.900,41.810,6.136,1017.000,119.000,21.770,2.963,162.400,29.920,4.915,1.244,425.200,101.100,18.910,4.865,easy
1517.000,226.200,42.010,6.200,1021.000,118.600,21.680,2.949,159.800,29.610,4.859,1.251,426.700,101.800,19.010,4.874,easy
1521.000,226.700,42.400,6.234,1025.000,119.300,21.800,2.967,160.300,30.400,4.832,1.254,428.300,101.900,19.080,4.917,easy
1527.000,226.600,42.420,6.248,1019.000,119.800,21.740,2.974,164.500,30.020,4.894,1.259,431.800,102.700,19.300,4.938,easy
1523.000,225.700,42.010,6.186,1017.000,119.200,21.430,2.935,164.100,29.890,4.833,1.251,420.800,100.500,18.740,4.764,easy
1507.000,223.000,41.620,6.036,1018.000,118.600,21.540,2.948,162.900,29.700,4.823,1.249,420.400,100.400,18.500,4.769,easy
1501.000,223.900,41.260,6.092,1019.000,119.700,21.500,2.948,160.600,29.850,4.805,1.241,422.000,100.700,18.500,4.748,easy
1502.000,221.800,41.670,6.106,1018.000,119.200,21.580,2.938,159.100,29.590,4.809,1.235,419.900,100.200,18.610,4.752,easy
1504.000,223.500,41.610,6.126,1017.000,118.800,21.650,2.923,164.700,29.400,4.798,1.235,420.800,99.790,18.660,4.798,easy
1505.000,222.900,41.310,6.131,1019.000,119.800,21.610,2.953,160.600,29.700,4.816,1.239,420.700,101.100,18.820,4.804,easy
1509.000,224.600,41.490,6.150,1020.000,119.100,21.850,2.936,161.700,29.840,4.814,1.245,427.900,100.400,18.940,4.862,easy
1515.000,225.000,41.790,6.235,1022.000,119.300,21.690,2.933,160.500,30.190,4.832,1.243,424.500,101.300,19.080,4.845,easy
1521.000,227.500,42.110,6.197,1025.000,119.300,21.760,2.967,164.100,30.030,4.875,1.253,428.500,102.500,19.210,4.923,easy
1520.000,226.600,41.870,6.162,1020.000,118.600,21.540,2.956,165.300,30.070,4.841,1.244,421.000,100.700,18.770,4.785,easy
1500.000,222.400,41.260,6.067,1015.000,119.100,21.570,2.959,163.200,30.020,4.769,1.234,420.300,99.790,18.630,4.716,easy
1500.000,222.100,41.570,6.083,1015.000,119.000,21.680,2.937,162.400,29.270,4.820,1.238,423.300,99.200,18.680,4.739,easy
1500.000,222.500,41.160,6.094,1017.000,118.800,21.470,2.941,158.500,29.490,4.778,1.214,420.900,100.500,18.760,4.794,easy
1499.000,221.200,41.610,6.071,1018.000,119.000,21.610,2.950,160.300,29.850,4.895,1.242,421.000,99.770,18.530,4.755,easy
1504.000,222.600,41.720,6.104,1015.000,119.300,21.690,2.944,156.300,30.270,4.803,1.228,422.000,100.700,18.680,4.838,easy
1508.000,224.500,41.720,6.170,1016.000,119.500,21.760,2.932,164.600,29.830,4.831,1.235,426.100,101.100,18.710,4.903,easy
1515.000,225.900,42.100,6.249,1023.000,119.300,21.710,2.952,161.700,30.360,4.827,1.242,425.100,101.500,19.110,4.890,easy
1520.000,226.900,42.420,6.248,1023.000,119.100,21.850,2.970,163.400,30.200,4.861,1.256,427.400,102.700,19.230,4.931,easy
1526.000,228.500,42.440,6.354,1028.000,120.500,21.860,2.988,163.000,29.990,4.832,1.266,433.300,103.100,19.130,4.953,easy
1528.000,229.900,42.220,6.213,1024.000,119.500,21.640,2.944,166.400,30.280,4.880,1.256,424.100,100.600,18.780,4.808,easy
1508.000,225.000,41.690,6.166,1015.000,119.400,21.520,2.957,162.500,29.640,4.788,1.221,422.200,99.940,18.700,4.804,easy
1506.000,223.800,41.690,6.069,1020.000,119.300,21.700,2.946,161.400,29.960,4.756,1.248,422.400,100.300,18.740,4.778,easy
1507.000,223.200,41.670,6.162,1016.000,118.900,21.530,2.953,164.400,29.790,4.817,1.236,422.100,100.900,18.620,4.763,easy
1506.000,224.200,41.360,6.111,1014.000,119.000,21.660,2.940,159.600,29.810,4.745,1.239,423.700,100.200,18.690,4.833,easy
1510.000,223.100,41.810,6.104,1016.000,119.800,21.620,2.962,158.800,30.260,4.801,1.243,425.100,100.500,18.760,4.845,easy
1514.000,225.300,42.020,6.210,1018.000,119.500,21.830,2.950,160.100,29.930,4.832,1.246,426.900,101.500,18.920,4.874,easy
1519.000,225.800,42.250,6.222,1020.000,120.200,21.950,2.967,163.600,30.300,4.878,1.259,429.000,101.900,19.050,4.942,easy
1523.000,227.300,42.520,6.263,1029.000,119.700,21.870,2.971,162.100,29.910,4.827,1.257,430.400,102.500,19.100,4.943,easy
1525.000,227.800,42.120,6.170,1021.000,119.200,21.750,2.980,165.400,30.000,4.853,1.230,424.500,100.600,18.740,4.817,easy
1508.000,221.800,41.510,6.111,1014.000,118.800,21.820,2.936,165.300,29.250,4.787,1.222,422.000,100.600,18.830,4.846,easy
1505.000,223.500,41.390,6.085,1019.000,119.000,21.630,2.960,159.900,29.770,4.818,1.227,420.700,100.600,18.550,4.835,easy
1508.000,225.400,41.760,6.133,1022.000,119.300,21.630,2.936,159.500,29.800,4.795,1.240,421.100,100.600,18.800,4.777,easy
1508.000,224.700,41.630,6.130,1021.000,118.900,21.830,2.946,163.400,29.690,4.834,1.233,422.200,100.600,18.760,4.828,easy
1511.000,225.600,42.090,6.122,1021.000,119.500,21.810,2.965,161.800,30.140,4.806,1.236,424.900,100.800,18.980,4.867,easy
1515.000,225.600,42.140,6.241,1019.000,119.900,21.760,2.955,158.500,29.640,4.828,1.240,424.000,101.000,19.040,4.890,easy
1521.000,226.800,42.190,6.230,1026.000,119.900,21.790,2.984,164.200,29.820,4.870,1.245,431.100,101.500,19.110,4.952,easy
1526.000,226.800,42.490,6.322,1025.000,120.400,21.820,2.984,165.500,30.590,4.833,1.239,431.500,102.400,19.250,4.956,easy
1522.000,226.000,41.900,6.164,1016.000,119.500,21.670,2.959,165.300,30.220,4.848,1.223,423.100,100.500,18.730,4.758,easy
1506.000,222.500,41.180,6.143,1018.000,119.100,21.680,2.934,156.500,29.940,4.786,1.242,424.000,99.920,18.670,4.808,easy
1503.000,222.700,41.490,6.107,1012.000,118.800,21.710,2.969,162.900,29.850,4.842,1.238,420.000,100.400,18.630,4.831,easy
1504.000,222.300,41.620,6.133,1017.000,118.700,21.770,2.915,161.700,30.260,4.831,1.234,423.600,100.700,18.580,4.776,easy
1506.000,223.900,41.510,6.132,1013.000,119.400,21.600,2.966,162.500,29.840,4.764,1.224,421.400,101.100,18.760,4.814,easy
1509.000,224.000,41.460,6.108,1018.000,119.100,21.920,2.985,160.400,29.660,4.841,1.234,424.600,101.100,18.740,4.880,easy
1515.000,225.100,41.950,6.194,1022.000,119.600,21.770,2.984,155.600,29.890,4.808,1.225,425.100,101.800,18.970,4.892,easy
1517.000,226.400,41.970,6.233,1020.000,119.800,21.790,2.985,167.800,30.180,4.806,1.229,428.200,101.700,19.040,4.977,easy
1507.000,223.800,41.570,6.166,1021.000,119.100,21.700,2.971,163.800,29.990,4.833,1.233,422.900,100.600,18.700,4.867,bogus
1511.000,225.100,41.760,6.179,1023.000,119.700,21.850,2.987,163.400,30.170,4.808,1.229,426.100,102.000,18.970,4.894,bogus
1515.000,227.700,42.010,6.220,1024.000,119.700,21.950,2.972,161.300,29.650,4.764,1.246,426.000,101.600,18.980,4.910,bogus
1522.000,227.200,42.380,6.288,1023.000,120.200,22.060,2.970,165.000,30.040,4.809,1.247,428.100,101.900,19.260,4.963,bogus
1528.000,230.100,42.790,6.342,1027.000,120.300,21.950,2.993,165.500,30.010,4.886,1.253,431.300,103.100,19.300,4.938,bogus
1488.000,222.100,41.150,6.029,1024.000,120.000,21.910,3.013,159.400,30.290,4.839,1.228,418.000,99.540,18.560,4.768,easy
1489.000,221.600,41.200,6.051,1020.000,120.200,21.980,3.027,164.500,29.920,4.824,1.223,419.200,99.480,18.460,4.755,easy
1489.000,221.300,40.980,6.051,1021.000,120.200,22.140,3.030,162.300,29.670,4.755,1.216,419.900,99.840,18.570,4.781,easy
1492.000,222.800,41.350,6.051,1023.000,120.800,21.940,3.030,160.700,30.040,4.780,1.216,422.500,100.600,18.450,4.804,easy
1496.000,223.600,41.520,6.130,1023.000,121.400,22.010,3.033,164.700,30.250,4.830,1.219,422.700,100.800,18.600,4.836,easy
1500.000,225.300,41.880,6.166,1023.000,121.300,22.230,3.024,165.400,29.900,4.832,1.236,425.500,100.900,18.700,4.882,easy
1505.000,225.300,41.900,6.202,1026.000,121.700,22.190,3.042,161.100,29.780,4.883,1.232,425.600,101.600,19.100,4.882,easy
1511.000,225.700,41.810,6.247,1029.000,122.500,22.140,3.045,160.800,30.340,4.858,1.253,431.000,101.900,18.980,4.942,easy
1509.000,224.700,41.760,6.137,1026.000,120.600,22.080,3.010,162.300,29.920,4.786,1.245,421.600,99.710,18.570,4.780,easy
1492.000,221.800,41.270,6.049,1021.000,120.900,22.050,3.021,160.400,29.850,4.877,1.223,418.000,99.320,18.460,4.746,easy
1492.000,223.200,41.510,6.148,1024.000,120.900,22.000,3.030,157.800,30.220,4.774,1.218,421.200,99.510,18.310,4.788,easy
1492.000,223.300,41.240,6.030,1026.000,120.600,22.020,3.022,161.200,29.660,4.761,1.227,419.500,99.510,18.590,4.777,easy
1491.000,222.700,41.070,6.057,1023.000,120.800,22.160,3.024,163.100,30.320,4.883,1.230,418.900,99.260,18.650,4.820,easy
1496.000,222.100,41.400,6.057,1022.000,120.700,22.060,3.039,162.700,30.010,4.797,1.227,423.400,100.100,18.740,4.862,easy
1501.000,225.300,41.720,6.110,1025.000,121.900,22.110,3.015,164.900,30.090,4.701,1.239,421.400,100.300,18.980,4.856,easy
1505.000,225.600,41.730,6.202,1023.000,121.700,22.190,3.043,163.100,29.910,4.827,1.239,427.800,101.500,18.870,4.862,easy
1509.000,226.400,42.010,6.217,1030.000,122.000,22.040,3.033,163.500,30.100,4.902,1.241,425.000,101.900,19.020,4.949,easy
1509.000,225.300,41.840,6.171,1024.000,121.700,22.090,3.015,165.100,30.140,4.831,1.216,421.700,100.100,18.430,4.763,easy
1493.000,220.900,41.210,6.091,1020.000,121.300,21.960,3.024,161.100,29.880,4.840,1.217,419.500,99.730,18.770,4.768,easy
1490.000,221.400,41.090,6.108,1022.000,120.400,22.030,3.012,164.200,30.010,4.803,1.224,419.200,99.570,18.470,4.813,easy
1493.000,220.700,40.950,6.072,1023.000,120.700,21.980,3.057,162.900,30.290,4.794,1.233,420.600,99.980,18.520,4.807,easy
1492.000,223.100,41.200,6.071,1024.000,120.900,22.120,3.003,162.200,29.920,4.850,1.227,420.600,99.360,18.680,4.846,easy
1496.000,224.000,41.500,6.114,1026.000,121.300,22.060,3.019,159.900,30.200,4.806,1.215,420.800,100.200,18.820,4.827,easy
1500.000,224.700,41.880,6.170,1028.000,121.100,22.240,3.049,157.300,30.020,4.854,1.246,423.900,100.500,18.870,4.936,easy
1504.000,225.700,41.930,6.178,1026.000,121.700,22.230,3.043,163.500,30.080,4.787,1.242,425.900,100.800,18.910,4.949,easy
1509.000,225.400,42.280,6.220,1029.000,122.100,22.230,3.056,164.200,30.100,4.875,1.254,429.900,101.600,19.010,4.974,easy
1508.000,224.900,41.820,6.081,1024.000,121.100,21.900,3.047,159.900,30.040,4.861,1.237,417.600,99.240,18.610,4.808,easy
1490.000,222.700,41.190,6.059,1023.000,120.700,21.990,3.019,163.600,29.920,4.855,1.210,418.100,99.150,18.370,4.781,easy
1489.000,221.500,41.030,6.060,1020.000,121.000,21.970,3.006,160.500,29.710,4.901,1.211,420.100,99.530,18.490,4.745,easy
1491.000,222.500,41.170,6.088,1023.000,120.700,22.160,3.008,161.100,30.250,4.821,1.208,418.900,99.380,18.420,4.785,easy
1490.000,222.100,41.080,6.068,1027.000,121.000,21.960,3.026,158.900,29.710,4.769,1.242,418.900,99.550,18.440,4.793,easy
1492.000,223.000,41.140,6.124,1020.000,120.900,22.070,3.030,161.200,29.990,4.833,1.237,422.400,99.960,18.660,4.804,easy
1497.000,223.500,41.580,6.194,1022.000,120.900,22.220,3.049,165.600,29.850,4.796,1.216,419.800,100.500,18.700,4.872,easy
1503.000,224.300,41.760,6.184,1026.000,121.700,22.130,3.025,164.300,30.510,4.907,1.236,426.700,101.200,18.540,4.929,easy
1506.000,226.100,42.100,6.208,1028.000,121.400,22.130,3.063,156.900,30.350,4.833,1.237,427.600,101.300,18.870,5.000,easy
1512.000,226.800,42.470,6.165,1026.000,121.500,22.060,3.033,161.900,30.170,4.894,1.241,423.000,101.200,18.700,4.833,easy
1495.000,221.200,41.260,6.032,1023.000,120.900,22.060,3.011,158.900,30.040,4.811,1.221,419.700,99.910,18.420,4.732,easy
1487.000,221.400,41.180,5.976,1019.000,121.100,21.930,3.065,158.000,29.870,4.847,1.223,418.000,99.420,18.300,4.749,easy
1488.000,220.200,41.020,6.047,1022.000,120.600,21.880,3.038,160.700,29.880,4.792,1.219,420.400,99.750,18.280,4.739,easy
1487.000,222.600,41.040,6.036,1026.000,121.100,21.950,3.033,162.100,29.660,4.868,1.226,419.600,100.200,18.420,4.816,easy
1489.000,220.700,41.470,6.024,1024.000,120.700,22.040,3.035,163.100,29.510,4.827,1.226,418.300,99.960,18.450,4.796,easy
1493.000,222.400,41.240,6.081,1020.000,121.500,22.090,3.046,163.600,29.590,4.785,1.222,420.300,100.300,18.500,4.872,easy
1497.000,224.100,41.860,6.139,1022.000,120.800,22.140,3.057,162.500,29.880,4.797,1.229,426.300,100.900,18.740,4.863,easy
1505.000,226.900,41.720,6.188,1027.000,121.100,22.220,3.054,164.200,30.430,4.779,1.241,427.400,101.200,19.020,4.907,easy
1509.000,224.800,41.890,6.162,1025.000,121.600,22.300,3.048,161.600,30.270,4.861,1.233,425.800,102.400,19.180,4.937,easy
1516.000,228.500,42.340,6.244,1030.000,122.200,22.330,3.076,165.000,30.250,4.939,1.252,429.300,102.900,19.200,4.941,easy
1513.000,225.200,41.670,6.175,1026.000,121.900,22.050,3.033,163.400,30.540,4.937,1.222,420.200,99.440,18.490,4.771,easy
1496.000,221.900,41.100,5.997,1019.000,121.200,21.930,3.040,164.000,30.100,4.864,1.243,419.200,99.670,18.410,4.747,easy
1493.000,220.300,41.610,6.061,1029.000,121.000,21.970,3.041,164.100,30.030,4.890,1.222,421.100,99.870,18.590,4.783,easy
1494.000,223.900,41.330,6.040,1019.000,121.400,22.100,3.032,164.200,29.960,4.817,1.215,418.700,99.960,18.330,4.806,easy
1495.000,223.500,41.310,6.050,1023.000,121.500,21.990,3.016,163.800,29.630,4.857,1.239,421.200,100.300,18.630,4.777,easy
1498.000,224.400,41.340,6.092,1028.000,121.700,22.200,3.064,161.200,30.000,4.772,1.230,423.000,100.700,18.520,4.846,easy
1502.000,225.000,41.840,6.135,1025.000,121.500,22.220,3.040,162.800,30.200,4.857,1.235,423.500,100.700,18.690,4.856,easy
1508.000,225.400,42.100,6.197,1025.000,122.100,22.290,3.045,162.300,30.140,4.826,1.232,424.800,101.400,18.960,4.913,easy
1514.000,227.100,42.010,6.190,1030.000,122.300,22.310,3.032,162.000,30.150,4.890,1.241,427.900,102.300,19.230,4.933,easy
1519.000,228.800,42.440,6.283,1029.000,122.900,22.270,3.070,163.800,29.750,4.874,1.244,430.500,101.900,19.090,4.986,easy
1513.000,225.000,41.670,6.110,1026.000,121.100,22.240,3.056,168.600,30.160,4.847,1.236,419.700,100.600,18.690,4.786,easy
1499.000,223.600,41.440,6.064,1024.000,121.800,22.020,3.050,160.300,30.080,4.801,1.254,419.800,99.960,18.620,4.789,easy
1499.000,225.000,41.460,6.082,1027.000,121.400,21.970,3.053,161.200,29.980,4.885,1.221,419.300,100.100,18.710,4.788,easy
1500.000,224.400,41.600,6.142,1025.000,121.700,22.100,3.032,166.900,30.280,4.843,1.240,420.700,100.300,18.800,4.782,easy
1500.000,222.700,41.680,6.092,1025.000,122.100,22.020,3.079,161.000,30.040,4.906,1.234,423.700,100.700,18.570,4.890,easy
1504.000,226.300,41.610,6.178,1025.000,122.100,22.220,3.075,162.800,30.380,4.829,1.239,422.700,100.900,18.840,4.859,easy
1509.000,225.700,41.960,6.197,1031.000,122.600,22.190,3.055,166.100,30.000,4.882,1.245,426.300,101.700,18.790,4.919,easy
1514.000,225.600,42.100,6.194,1029.000,122.400,22.430,3.058,165.000,30.220,4.934,1.252,429.100,102.300,19.110,4.973,easy
1520.000,227.600,41.800,6.271,1034.000,123.100,22.360,3.068,162.200,30.770,4.804,1.256,429.100,102.800,19.280,4.969,easy
1522.000,227.600,42.530,6.222,1030.000,122.800,22.230,3.043,168.500,30.460,4.841,1.250,424.000,100.900,18.670,4.820,easy
1502.000,224.400,41.340,6.092,1029.000,120.600,22.240,3.031,165.900,30.300,4.813,1.222,419.200,99.850,18.560,4.810,easy
1500.000,222.400,41.350,6.060,1025.000,121.100,22.190,3.036,160.700,29.940,4.878,1.225,419.900,99.300,18.700,4.754,easy
1502.000,224.400,41.580,6.126,1025.000,121.600,22.120,3.041,160.100,29.710,4.791,1.227,422.600,100.200,18.430,4.858,easy
1500.000,224.500,41.470,6.072,1027.000,121.800,22.130,3.052,161.500,29.790,4.848,1.207,417.900,99.890,18.650,4.784,easy
1503.000,224.300,41.760,6.112,1033.000,121.600,22.160,3.042,158.900,29.990,4.848,1.235,422.300,100.500,18.600,4.862,easy
1508.000,225.800,41.930,6.170,1022.000,122.200,22.250,3.064,161.000,29.890,4.790,1.230,420.700,100.900,18.650,4.891,easy
1512.000,225.600,42.300,6.164,1035.000,123.000,22.410,3.060,168.100,29.890,4.895,1.253,426.100,101.200,19.030,4.930,easy
1518.000,228.500,42.150,6.255,1030.000,123.000,22.350,3.066,161.900,30.090,4.853,1.223,427.100,102.100,19.010,4.952,easy
1525.000,229.100,42.440,6.268,1035.000,122.500,22.450,3.071,162.500,30.280,4.827,1.237,429.500,102.200,19.130,4.947,easy
1519.000,226.600,41.820,6.183,1029.000,122.400,22.190,3.043,160.500,29.770,4.815,1.229,422.400,99.060,18.540,4.806,easy
1503.000,222.800,41.090,6.118,1030.000,121.800,22.110,3.049,161.900,30.320,4.836,1.243,417.600,99.070,18.420,4.727,easy
1501.000,224.200,41.230,6.072,1023.000,121.700,22.010,3.046,164.600,30.200,4.852,1.214,417.900,99.400,18.470,4.783,easy
1502.000,226.600,41.360,6.117,1024.000,122.000,22.200,3.046,163.600,30.220,4.873,1.228,418.700,99.930,18.600,4.771,easy
1502.000,223.800,41.170,6.112,1020.000,122.100,22.240,3.068,165.500,29.820,4.832,1.232,420.400,99.960,18.510,4.844,easy
1504.000,225.800,41.630,6.116,1029.000,122.000,22.140,3.065,161.700,29.860,4.824,1.241,421.100,100.400,18.700,4.858,easy
1508.000,225.400,42.170,6.156,1029.000,122.600,22.100,3.060,164.100,29.990,4.844,1.246,419.400,101.000,18.910,4.913,easy
1514.000,226.800,41.790,6.168,1029.000,123.100,22.260,3.068,161.700,30.270,4.860,1.244,425.200,102.000,18.910,4.868,easy
1520.000,227.200,42.360,6.239,1032.000,122.700,22.340,3.089,163.800,29.840,4.887,1.248,427.800,101.700,19.140,4.978,easy
1524.000,229.300,42.400,6.300,1029.000,122.600,22.300,3.076,163.600,29.870,4.889,1.254,423.500,101.100,18.780,4.787,easy
1510.000,224.200,41.660,6.101,1027.000,121.500,22.210,3.059,159.600,29.810,4.820,1.235,419.800,99.370,18.420,4.718,easy
1502.000,223.500,41.350,6.098,1026.000,121.800,22.220,3.065,161.000,29.620,4.827,1.225,419.200,99.060,18.520,4.793,easy
1504.000,225.400,41.400,6.121,1029.000,122.000,22.020,3.031,162.800,29.720,4.835,1.229,419.800,99.470,18.620,4.766,easy
1502.000,224.700,41.500,6.087,1025.000,121.200,22.170,3.050,164.600,29.860,4.858,1.227,418.300,100.300,18.490,4.777,easy
1505.000,224.900,41.700,6.136,1031.000,122.200,22.190,3.051,163.400,29.910,4.770,1.225,419.300,100.300,18.580,4.839,easy
1509.000,225.800,41.860,6.136,1034.000,122.200,22.230,3.068,163.400,29.960,4.891,1.211,422.800,100.900,18.750,4.864,easy
1513.000,227.500,42.220,6.183,1032.000,121.900,22.330,3.103,161.900,30.140,4.822,1.234,425.600,100.900,18.920,4.899,easy
1519.000,229.900,42.400,6.231,1032.000,122.700,22.320,3.106,161.400,29.860,4.839,1.250,428.100,102.000,18.960,4.950,easy
1524.000,228.300,42.810,6.305,1036.000,123.600,22.340,3.087,163.400,30.600,4.922,1.254,428.800,101.800,19.270,4.894,easy
1521.000,228.600,42.010,6.178,1032.000,121.700,22.310,3.077,166.800,30.200,4.921,1.220,419.800,99.310,18.580,4.778,easy
1507.000,223.400,41.840,6.099,1028.000,122.500,22.190,3.069,160.000,30.600,4.842,1.236,418.300,99.990,18.520,4.769,easy
1506.000,225.400,41.760,6.165,1026.000,122.300,22.270,3.048,160.900,30.000,4.783,1.232,419.700,99.720,18.640,4.806,easy
1508.000,225.800,41.360,6.165,1031.000,123.000,22.310,3.076,163.900,30.050,4.861,1.231,422.300,99.060,18.540,4.774,easy
1507.000,225.600,41.860,6.178,1033.000,122.000,22.150,3.049,158.700,30.270,4.821,1.239,420.000,99.640,18.660,4.806,easy
1510.000,226.400,41.560,6.216,1034.000,121.800,22.240,3.064,159.700,29.880,4.884,1.226,423.000,100.600,18.840,4.855,easy
1515.000,227.400,42.620,6.215,1035.000,122.400,22.180,3.081,159.200,29.710,4.834,1.240,424.200,101.300,18.770,4.877,easy
1521.000,228.900,42.240,6.270,1031.000,123.100,22.250,3.061,166.400,30.320,4.877,1.222,426.100,101.800,19.130,4.929,easy
1527.000,229.800,42.790,6.225,1038.000,122.500,22.360,3.102,163.400,30.440,4.851,1.252,428.300,102.300,19.090,4.899,easy
1520.000,227.500,42.080,6.156,1031.000,122.200,22.200,3.065,164.300,30.420,4.859,1.229,420.300,99.440,18.590,4.796,easy
1507.000,225.400,41.910,6.127,1027.000,122.700,22.030,3.033,159.000,29.920,4.843,1.227,420.200,99.250,18.510,4.756,easy
1506.000,224.300,41.970,6.139,1023.000,122.300,22.180,3.054,161.400,29.790,4.860,1.217,420.000,99.550,18.450,4.746,easy
1508.000,224.700,41.470,6.186,1025.000,121.900,22.110,3.074,161.700,30.010,4.774,1.231,421.700,99.490,18.350,4.782,easy
1508.000,225.700,41.480,6.135,1026.000,121.900,22.120,3.049,158.500,30.170,4.829,1.231,422.600,99.450,18.710,4.799,easy
1511.000,225.700,41.960,6.202,1027.000,122.000,22.300,3.082,161.400,29.780,4.863,1.227,420.100,100.700,18.750,4.863,easy
1516.000,227.700,42.140,6.203,1033.000,122.800,22.250,3.047,159.700,30.030,4.863,1.229,425.500,101.200,18.850,4.931,easy
1521.000,228.100,42.020,6.257,1031.000,122.500,22.260,3.061,165.600,30.150,4.870,1.231,427.400,101.700,19.090,4.936,easy
1526.000,229.500,42.830,6.290,1032.000,123.100,22.420,3.073,159.600,30.420,4.824,1.252,428.300,101.600,19.140,4.993,easy
1530.000,229.900,42.410,6.282,1035.000,122.400,22.270,3.052,159.900,30.420,4.969,1.260,421.300,99.900,18.590,4.795,easy
1510.000,225.000,41.810,6.096,1023.000,121.600,22.200,3.049,164.800,30.090,4.821,1.234,420.200,100.100,18.580,4.727,easy
1504.000,224.400,41.680,6.107,1027.000,122.300,22.110,3.047,160.100,29.730,4.803,1.232,418.400,99.810,18.400,4.777,easy
1505.000,225.200,41.750,6.143,1025.000,121.400,22.330,3.047,162.200,30.140,4.761,1.230,418.100,99.070,18.520,4.747,easy
1504.000,222.700,41.680,6.130,1023.000,121.900,22.100,3.037,162.600,29.970,4.794,1.232,417.200,99.500,18.460,4.742,easy
1505.000,224.700,41.630,6.155,1029.000,122.000,22.050,3.042,163.300,29.890,4.840,1.229,420.700,100.000,18.640,4.854,easy
1510.000,226.500,41.780,6.215,1027.000,122.600,22.160,3.053,160.800,29.530,4.864,1.234,422.100,100.000,18.640,4.851,easy
1514.000,226.500,42.030,6.223,1028.000,123.200,22.320,3.079,163.400,30.200,4.824,1.247,422.700,100.600,18.910,4.918,easy
1519.000,228.300,42.560,6.261,1032.000,122.100,22.290,3.076,167.200,30.240,4.894,1.226,426.500,101.100,18.970,4.880,easy
1526.000,228.500,42.660,6.336,1028.000,122.800,22.300,3.070,163.300,29.880,4.898,1.257,426.900,100.800,18.890,4.837,easy
1513.000,226.500,41.640,6.139,1027.000,121.300,22.170,3.028,160.300,30.040,4.934,1.211,416.600,99.620,18.430,4.775,easy
1502.000,224.600,41.610,6.106,1024.000,121.700,22.100,3.047,160.700,29.420,4.817,1.226,418.000,99.710,18.350,4.769,easy
1504.000,226.000,41.370,6.125,1023.000,121.700,22.310,3.087,163.200,29.850,4.824,1.233,419.700,100.100,18.470,4.716,easy
1504.000,225.800,41.690,6.143,1024.000,121.500,22.030,3.075,161.800,29.860,4.737,1.224,418.700,98.790,18.390,4.773,easy
1504.000,226.000,41.700,6.124,1023.000,121.700,22.050,3.045,160.200,29.440,4.815,1.214,418.500,100.300,18.420,4.810,easy
1508.000,226.300,42.150,6.164,1025.000,122.300,22.240,3.051,161.400,29.600,4.717,1.238,421.700,100.300,18.780,4.838,easy
1513.000,226.400,42.100,6.257,1022.000,122.600,22.230,3.061,162.500,30.430,4.848,1.228,422.300,100.700,18.740,4.896,easy
1518.000,227.200,42.520,6.226,1027.000,122.400,22.320,3.048,162.200,30.380,4.842,1.235,426.300,101.400,19.020,4.944,easy
1523.000,230.000,42.670,6.300,1028.000,123.000,22.170,3.062,158.200,30.170,4.868,1.259,429.200,102.000,18.880,4.848,easy
1516.000,226.700,41.750,6.218,1022.000,121.700,22.200,3.048,163.500,30.440,4.898,1.222,420.600,99.960,18.490,4.788,easy
1502.000,225.700,41.140,6.153,1024.000,121.900,22.260,3.044,165.000,29.810,4.763,1.232,418.600,98.990,18.400,4.706,easy
1501.000,224.500,41.550,6.123,1029.000,121.900,22.140,3.047,159.200,30.220,4.905,1.228,419.400,100.100,18.490,4.751,easy
1503.000,224.700,41.750,6.132,1024.000,121.400,21.930,3.061,158.600,30.330,4.869,1.234,419.300,99.720,18.480,4.788,easy
1503.000,225.200,41.680,6.151,1027.000,121.500,22.060,3.051,161.000,29.900,4.843,1.235,421.000,100.300,18.550,4.785,easy
1506.000,225.900,42.020,6.177,1029.000,122.100,22.110,3.067,165.700,29.740,4.876,1.250,421.600,99.820,18.590,4.800,easy
1510.000,227.600,42.320,6.199,1030.000,122.400,22.330,3.076,160.800,29.830,4.893,1.239,423.500,100.300,18.680,4.857,easy
1515.000,228.100,42.130,6.214,1025.000,122.800,22.340,3.068,164.400,29.690,4.852,1.245,428.000,101.000,18.710,4.855,easy
1521.000,228.800,42.550,6.283,1028.000,123.200,22.440,3.102,156.800,30.410,4.983,1.243,430.500,102.300,18.860,4.910,easy
1516.000,226.700,42.040,6.131,1026.000,121.800,22.110,3.041,162.400,30.410,4.830,1.237,419.700,99.220,18.450,4.724,easy
1499.000,222.500,41.370,6.113,1023.000,121.400,22.100,3.020,158.500,29.370,4.804,1.208,415.700,99.110,18.320,4.683,easy
1497.000,224.400,41.290,6.128,1025.000,121.400,22.150,3.037,167.800,30.030,4.762,1.227,417.300,99.930,18.580,4.724,easy
1497.000,224.300,41.340,6.123,1022.000,121.300,22.200,3.020,158.800,29.610,4.840,1.221,421.400,99.010,18.480,4.729,easy
1497.000,224.500,41.310,6.115,1024.000,121.200,22.030,3.032,160.900,29.950,4.853,1.226,420.000,99.370,18.370,4.673,easy
1500.000,224.500,41.520,6.116,1027.000,122.100,22.040,3.057,161.000,29.900,4.827,1.229,421.300,100.100,18.570,4.785,easy
1505.000,227.100,41.800,6.199,1022.000,121.800,22.170,3.073,161.200,30.070,4.824,1.223,421.500,101.100,18.610,4.875,easy
1511.000,226.600,41.760,6.193,1028.000,122.400,22.220,3.052,165.300,30.280,4.874,1.240,424.900,100.400,18.790,4.835,easy
1514.000,228.200,42.250,6.236,1027.000,122.400,22.360,3.070,159.800,29.710,4.825,1.255,424.900,101.200,18.750,4.884,easy
1520.000,227.900,42.130,6.212,1030.000,121.600,22.050,3.053,162.600,30.110,4.886,1.238,424.100,99.670,18.520,4.788,easy
1498.000,223.400,41.380,6.057,1023.000,120.900,21.930,3.032,160.500,29.470,4.815,1.214,417.400,98.540,18.210,4.688,easy
1493.000,224.200,41.540,6.092,1019.000,121.800,21.910,3.026,161.500,29.720,4.810,1.209,417.700,98.430,18.460,4.726,easy
1493.000,223.000,41.580,6.017,1015.000,121.400,22.090,3.031,163.800,29.830,4.838,1.232,418.000,98.730,18.210,4.705,easy
1493.000,222.200,41.150,6.046,1027.000,121.400,22.180,3.025,161.000,30.060,4.764,1.249,417.500,98.830,18.420,4.707,easy
1493.000,222.900,41.330,6.125,1017.000,121.900,21.940,3.007,160.800,30.010,4.774,1.235,417.900,99.570,18.530,4.780,easy
1498.000,225.200,41.260,6.129,1029.000,121.500,22.340,3.041,158.600,29.880,4.756,1.225,418.200,99.190,18.580,4.804,easy
1502.000,225.600,42.080,6.190,1027.000,121.400,22.260,3.064,159.700,30.010,4.791,1.227,420.800,100.000,18.810,4.848,easy
1509.000,227.700,42.200,6.224,1028.000,121.900,22.180,3.059,162.900,30.180,4.831,1.241,426.900,100.400,18.640,4.888,easy
1512.000,227.800,42.100,6.215,1026.000,122.400,22.420,3.077,159.800,30.200,4.807,1.234,425.800,101.700,19.000,4.938,easy
1519.000,227.500,42.430,6.266,1033.000,122.100,22.170,3.078,165.700,30.260,4.936,1.253,429.100,101.100,18.800,4.774,easy
1506.000,224.100,41.650,6.093,1024.000,121.400,22.010,3.046,161.000,30.010,4.834,1.250,418.800,99.010,18.430,4.700,easy
1494.000,225.000,41.360,6.069,1023.000,120.500,22.040,3.029,159.100,29.860,4.780,1.237,419.500,98.760,18.160,4.691,easy
1493.000,224.100,41.330,6.057,1024.000,121.900,21.950,3.054,156.600,29.880,4.861,1.222,420.800,99.590,18.340,4.716,easy
1493.000,223.900,41.130,6.060,1024.000,121.800,22.110,3.019,161.600,29.520,4.805,1.225,420.300,98.310,18.220,4.778,easy
1493.000,223.900,41.430,6.090,1024.000,121.500,21.990,3.041,159.800,29.850,4.791,1.244,419.500,99.340,18.460,4.763,easy
1498.000,224.000,41.830,6.126,1024.000,121.300,22.100,3.034,163.600,29.980,4.855,1.233,422.300,99.890,18.560,4.834,easy
1503.000,225.500,41.960,6.180,1021.000,121.500,22.200,3.032,167.800,29.780,4.833,1.220,423.700,99.720,18.680,4.826,easy
1507.000,226.700,42.150,6.224,1028.000,122.300,22.280,3.078,159.800,30.030,4.848,1.252,425.700,100.900,18.910,4.836,easy
1513.000,229.800,42.280,6.229,1026.000,122.000,22.300,3.091,165.800,30.010,4.873,1.242,426.000,100.900,18.960,4.824,easy
1507.000,225.800,41.850,6.091,1021.000,120.600,22.010,3.012,163.800,29.570,4.824,1.247,417.100,98.870,18.480,4.754,easy
1492.000,223.000,41.260,6.040,1020.000,120.600,22.030,2.999,161.900,30.040,4.828,1.234,418.500,98.920,18.320,4.764,easy
1491.000,222.400,41.250,6.039,1018.000,120.800,21.960,3.030,161.800,29.690,4.857,1.215,419.300,99.060,18.370,4.781,easy
1493.000,222.800,41.300,6.087,1020.000,121.800,21.910,3.032,161.400,30.040,4.817,1.245,417.800,98.890,18.420,4.733,easy
1492.000,222.700,41.530,6.075,1023.000,121.600,22.200,3.043,161.300,29.720,4.826,1.235,419.400,99.220,18.640,4.754,easy
1498.000,224.200,41.420,6.131,1027.000,121.800,22.110,3.041,157.400,29.800,4.869,1.235,421.700,99.420,18.540,4.812,easy
1503.000,223.200,42.180,6.177,1026.000,122.300,22.130,3.051,161.700,29.620,4.850,1.226,421.700,100.000,18.770,4.874,easy
1508.000,227.300,42.420,6.188,1026.000,121.800,22.330,3.054,162.300,29.970,4.855,1.246,426.900,100.700,18.750,4.880,easy
1515.000,228.600,42.090,6.248,1028.000,122.500,22.300,3.071,163.300,29.980,4.848,1.234,427.000,101.100,18.950,4.864,easy
1505.000,226.200,41.650,6.143,1022.000,121.300,22.040,3.022,162.000,30.200,4.830,1.225,416.300,99.010,18.300,4.670,easy
1491.000,221.800,41.200,6.014,1020.000,120.400,22.060,3.013,159.800,29.430,4.850,1.230,417.300,98.390,18.180,4.674,easy
1489.000,222.000,41.300,6.069,1020.000,121.000,21.980,3.007,155.700,29.890,4.783,1.228,415.800,98.780,18.390,4.732,easy
1490.000,223.800,41.660,6.066,1019.000,121.100,21.950,3.022,163.000,29.600,4.827,1.233,417.400,98.640,18.330,4.772,easy
1490.000,222.900,41.550,6.079,1021.000,121.000,21.960,3.049,161.300,29.920,4.764,1.222,417.200,99.610,18.380,4.775,easy
1494.000,223.500,41.590,6.082,1023.000,121.300,22.010,3.040,163.800,29.600,4.843,1.237,419.000,99.210,18.450,4.849,easy
1499.000,224.200,41.710,6.143,1024.000,121.700,22.260,3.049,165.100,29.770,4.885,1.244,421.500,98.650,18.480,4.851,easy
1504.000,226.600,42.050,6.228,1025.000,121.900,22.250,3.064,164.300,29.700,4.826,1.248,424.000,100.200,18.800,4.896,easy
1510.000,227.700,42.360,6.214,1029.000,122.200,22.070,3.018,164.500,30.730,4.824,1.255,423.600,100.400,18.810,4.830,easy
1495.000,223.000,41.060,6.061,1017.000,121.000,21.770,3.003,160.400,29.770,4.806,1.233,416.500,98.720,18.180,4.702,easy
1485.000,221.200,40.700,6.040,1020.000,120.800,22.000,3.005,162.900,29.750,4.804,1.218,414.200,98.540,18.080,4.732,easy
1484.000,221.800,40.620,6.016,1016.000,121.200,21.980,3.019,165.200,30.120,4.809,1.221,414.800,98.130,18.150,4.754,easy
1484.000,222.200,40.660,6.010,1017.000,120.700,21.990,3.051,159.400,30.080,4.790,1.235,414.700,98.150,18.230,4.719,easy
1486.000,221.400,40.940,6.055,1019.000,120.700,22.130,3.026,159.400,29.970,4.829,1.239,418.800,98.520,18.290,4.797,easy
1490.000,222.400,41.470,6.064,1023.000,121.500,22.130,3.055,163.600,29.760,4.812,1.234,417.900,98.510,18.460,4.838,easy
1495.000,224.000,41.330,6.136,1023.000,120.900,22.120,3.036,161.400,29.640,4.887,1.241,420.600,99.370,18.430,4.845,easy
1502.000,224.200,41.930,6.174,1027.000,121.800,22.290,3.054,156.300,29.580,4.767,1.247,422.400,99.950,18.700,4.893,easy
1506.000,224.800,42.300,6.184,1027.000,122.300,22.260,3.050,162.000,29.970,4.791,1.256,426.400,100.300,18.930,4.909,easy
1508.000,225.200,41.590,6.104,1022.000,121.400,22.010,3.037,160.200,30.240,4.891,1.235,417.400,98.640,18.220,4.770,easy
1486.000,221.200,40.830,6.007,1023.000,120.600,22.000,3.018,159.300,29.770,4.884,1.225,417.400,98.060,18.150,4.689,easy
1483.000,221.000,40.860,6.047,1017.000,120.800,21.900,3.012,160.600,29.990,4.807,1.231,416.600,97.880,18.160,4.757,easy
1484.000,221.000,40.860,6.007,1015.000,121.000,22.020,3.030,164.200,29.600,4.847,1.212,414.600,97.920,18.190,4.738,easy
1483.000,220.900,40.820,6.081,1018.000,121.000,22.140,3.027,160.500,29.620,4.748,1.224,416.000,97.990,18.130,4.745,easy
1486.000,222.200,41.190,6.049,1021.000,120.800,22.160,3.013,160.600,29.910,4.800,1.244,418.400,98.810,18.420,4.727,easy
1490.000,222.500,41.070,6.106,1018.000,121.700,22.290,3.031,162.900,30.230,4.783,1.227,418.300,98.370,18.300,4.850,easy
1495.000,224.000,41.910,6.155,1021.000,121.800,22.220,3.051,162.400,29.710,4.844,1.229,418.400,98.690,18.520,4.878,easy
1500.000,224.800,41.710,6.174,1025.000,122.600,22.170,3.074,162.000,30.070,4.821,1.223,423.400,99.840,18.840,4.867,easy
1499.000,225.000,41.420,6.065,1018.000,120.400,22.100,3.037,163.200,30.210,4.852,1.245,413.800,98.080,18.290,4.711,easy
1481.000,220.200,41.040,5.974,1018.000,121.200,21.900,2.991,158.200,29.920,4.878,1.220,410.800,97.300,18.260,4.632,easy
1478.000,220.000,41.000,5.972,1014.000,120.600,21.940,3.029,160.200,29.670,4.760,1.213,414.500,97.640,18.200,4.694,easy
1481.000,219.900,40.870,6.006,1020.000,120.700,21.960,3.030,160.900,29.890,4.839,1.217,411.000,98.190,18.050,4.679,easy
1480.000,219.700,40.510,6.050,1018.000,120.600,22.020,3.011,158.700,30.020,4.720,1.220,411.500,97.480,18.160,4.691,easy
1484.000,220.000,40.730,6.060,1020.000,121.200,22.100,3.026,162.100,29.910,4.817,1.249,413.700,98.320,18.190,4.822,easy
1487.000,222.900,41.150,6.069,1020.000,120.900,22.120,3.066,159.000,29.740,4.829,1.239,417.300,99.630,18.510,4.841,easy
1493.000,222.800,41.240,6.048,1020.000,121.000,22.360,3.037,162.900,29.760,4.902,1.232,418.400,99.480,18.650,4.886,easy
1498.000,225.500,41.700,6.180,1025.000,120.900,22.120,3.021,163.600,30.250,4.873,1.235,421.000,99.360,18.590,4.835,easy
1490.000,221.100,40.760,5.989,1020.000,120.400,21.890,3.004,166.800,30.130,4.812,1.218,412.700,97.360,18.050,4.720,easy
1474.000,218.700,40.440,5.947,1019.000,120.100,22.120,3.015,157.200,29.420,4.757,1.218,410.900,95.960,17.840,4.676,easy
1472.000,218.800,40.770,5.981,1019.000,120.400,22.010,3.025,161.700,30.090,4.784,1.210,410.300,96.650,18.270,4.721,easy
1474.000,220.000,40.270,5.940,1018.000,119.500,21.950,3.011,161.000,29.790,4.771,1.216,410.700,96.930,18.020,4.689,easy
1474.000,218.500,40.400,5.962,1020.000,120.500,21.940,3.014,160.400,29.210,4.716,1.227,409.000,97.110,18.070,4.718,easy
1478.000,218.700,40.650,6.037,1016.000,120.600,22.070,3.026,159.700,29.340,4.780,1.228,413.600,97.590,18.080,4.765,easy
1483.000,221.300,41.390,6.084,1019.000,121.000,22.180,3.031,162.400,28.910,4.793,1.236,414.100,98.290,18.430,4.802,easy
1488.000,222.600,40.940,6.084,1017.000,121.100,22.220,3.050,159.500,29.720,4.786,1.238,415.200,98.650,18.460,4.841,easy
1494.000,222.600,41.630,6.135,1025.000,121.500,22.220,3.068,161.600,29.870,4.835,1.248,418.600,99.210,18.620,4.796,easy
1495.000,223.500,40.860,6.091,1018.000,120.700,22.070,3.014,158.100,30.160,4.825,1.234,409.600,97.010,17.940,4.671,easy
1472.000,218.900,40.230,5.942,1018.000,119.600,21.900,3.004,163.300,29.200,4.819,1.226,409.200,96.220,17.880,4.603,easy
1470.000,217.100,40.150,5.934,1015.000,119.800,22.040,3.006,165.000,29.650,4.752,1.207,409.800,96.100,17.780,4.701,easy
1470.000,218.500,40.170,5.950,1010.000,119.800,21.960,2.998,163.900,29.560,4.759,1.212,406.900,96.390,17.900,4.641,easy
1469.000,218.900,40.530,5.988,1018.000,120.600,21.950,3.035,158.200,29.720,4.789,1.220,409.600,96.550,18.160,4.703,easy
1472.000,219.800,40.900,5.952,1016.000,120.900,22.100,3.029,159.100,29.150,4.806,1.229,409.700,97.510,17.980,4.710,easy
1478.000,220.700,40.820,6.012,1017.000,120.800,22.250,3.017,160.800,29.830,4.848,1.215,412.000,97.090,18.300,4.745,easy
1484.000,221.300,41.090,6.043,1021.000,121.500,22.190,3.047,160.700,29.640,4.845,1.216,415.000,98.220,18.290,4.826,easy
1489.000,222.300,41.340,6.044,1021.000,121.600,22.270,3.044,160.700,30.030,4.795,1.234,417.400,98.900,18.390,4.805,easy
1496.000,223.900,41.520,6.114,1021.000,121.500,22.210,3.033,158.600,30.050,4.848,1.226,421.200,99.370,18.280,4.808,easy
1485.000,220.800,40.550,5.968,1017.000,120.400,22.000,3.001,158.400,29.890,4.795,1.222,410.800,96.450,18.020,4.661,easy
1471.000,219.000,40.330,5.951,1014.000,120.500,22.170,3.007,159.100,29.630,4.763,1.208,408.900,96.770,17.940,4.698,easy
1471.000,219.000,40.500,5.916,1018.000,120.000,22.020,3.009,161.000,29.410,4.736,1.223,409.700,96.930,17.920,4.635,easy
1471.000,218.800,40.500,5.920,1016.000,120.500,22.020,3.015,163.100,29.320,4.807,1.215,408.700,96.950,17.860,4.658,easy
1472.000,217.800,40.430,5.962,1017.000,120.500,21.940,3.031,161.600,29.620,4.741,1.226,410.400,96.990,17.970,4.678,easy
1477.000,219.400,41.110,5.998,1021.000,121.300,22.110,3.038,159.200,29.570,4.811,1.211,413.000,97.630,18.130,4.715,easy
1481.000,219.600,40.880,6.002,1020.000,121.500,22.120,3.048,166.900,29.890,4.751,1.223,415.000,97.770,18.320,4.768,easy
1486.000,221.500,41.130,6.075,1017.000,122.000,22.180,3.044,161.200,29.610,4.845,1.220,418.100,98.420,18.420,4.802,easy
1491.000,222.100,41.280,6.143,1021.000,121.000,22.300,3.055,162.800,29.970,4.864,1.231,416.800,99.240,18.510,4.811,easy
1486.000,220.700,40.980,6.023,1017.000,120.700,22.020,3.031,162.200,30.210,4.862,1.221,409.500,96.820,18.090,4.678,easy
1470.000,217.900,40.540,5.991,1016.000,121.000,22.030,3.020,162.200,29.230,4.763,1.218,410.200,96.470,18.040,4.633,easy
1470.000,219.100,39.830,5.961,1017.000,120.500,21.950,3.020,160.500,29.430,4.806,1.226,409.400,96.930,18.010,4.683,easy
1472.000,217.400,40.310,5.970,1017.000,121.000,22.140,3.021,161.000,29.680,4.807,1.213,409.500,97.390,17.890,4.653,easy
1472.000,219.200,40.500,5.951,1019.000,120.700,22.180,3.025,163.100,29.600,4.746,1.225,410.400,97.460,18.010,4.652,easy
1476.000,219.400,40.750,6.028,1017.000,121.800,22.240,3.034,160.500,29.580,4.795,1.223,411.700,98.070,18.090,4.771,easy
1482.000,220.100,41.140,5.997,1020.000,121.800,22.290,3.060,162.500,30.190,4.775,1.229,417.500,98.010,18.350,4.743,easy
1486.000,222.000,41.290,6.072,1026.000,121.400,22.190,3.049,161.200,30.090,4.869,1.232,417.800,98.880,18.410,4.886,easy
1492.000,223.300,41.550,6.085,1025.000,122.000,22.320,3.052,162.100,30.300,4.836,1.245,420.700,99.740,18.500,4.792,easy
1486.000,221.400,40.940,6.001,1016.000,120.900,22.060,3.003,160.900,29.880,4.819,1.219,409.700,97.390,18.090,4.634,easy
1469.000,218.100,40.320,5.906,1016.000,121.400,22.060,3.014,165.900,29.280,4.746,1.220,409.200,95.820,17.690,4.618,easy
1468.000,217.400,40.060,5.953,1016.000,120.800,22.120,3.022,161.600,29.610,4.768,1.231,408.600,97.190,17.780,4.622,easy
1468.000,218.800,40.720,5.931,1014.000,120.500,22.080,3.033,162.000,29.960,4.823,1.226,409.200,96.470,17.820,4.650,easy
1469.000,217.200,40.350,5.953,1012.000,121.600,22.120,3.004,162.500,29.630,4.839,1.225,411.500,96.940,17.960,4.701,easy
1471.000,220.400,40.380,5.952,1013.000,120.600,22.220,3.031,163.600,29.830,4.828,1.232,412.300,97.450,18.190,4.707,easy
1478.000,219.800,40.680,6.006,1017.000,121.100,22.210,3.023,157.300,29.970,4.793,1.238,413.800,97.520,18.100,4.721,easy
1484.000,220.600,40.870,6.075,1021.000,121.500,22.250,3.060,160.700,30.110,4.898,1.231,415.400,98.430,18.250,4.809,easy
1488.000,224.200,41.470,6.067,1022.000,121.400,22.400,3.066,163.600,29.920,4.840,1.232,418.700,99.040,18.540,4.809,easy
1493.000,222.700,41.340,6.047,1022.000,121.300,22.160,3.028,166.100,30.270,4.883,1.250,412.100,97.010,18.110,4.710,easy
1472.000,218.400,40.180,5.915,1018.000,121.000,21.900,3.015,161.200,29.610,4.767,1.216,408.300,96.490,17.810,4.618,easy
1466.000,218.100,40.060,5.911,1014.000,120.700,21.910,3.011,158.000,29.790,4.683,1.224,407.600,96.200,17.740,4.616,easy
1467.000,217.600,40.410,5.930,1015.000,121.000,22.150,3.019,158.800,29.530,4.743,1.230,408.600,96.840,17.840,4.702,easy
1466.000,217.700,40.570,5.898,1018.000,120.800,22.070,3.012,161.000,29.670,4.831,1.229,408.400,96.760,17.970,4.659,easy
1469.000,219.400,40.580,5.956,1014.000,121.200,22.100,3.023,163.600,29.710,4.799,1.219,411.000,97.610,17.880,4.739,easy
1473.000,219.800,40.670,5.990,1016.000,121.600,22.290,3.012,162.300,29.860,4.800,1.222,412.000,97.800,18.170,4.710,easy
1479.000,221.200,40.940,6.015,1020.000,121.300,22.260,3.034,158.600,29.900,4.739,1.251,417.800,97.890,18.360,4.767,easy
1485.000,222.100,41.350,6.036,1021.000,121.300,22.470,3.060,163.500,29.900,4.867,1.244,415.500,98.200,18.520,4.817,easy
1492.000,224.500,41.760,6.145,1022.000,121.700,22.360,3.048,160.400,30.030,4.880,1.258,420.100,99.790,18.570,4.892,easy
1499.000,225.800,41.680,6.150,1026.000,122.700,22.400,3.072,164.200,30.060,4.873,1.252,421.000,100.700,18.810,4.850,easy
1499.000,223.800,41.250,6.090,1024.000,121.900,22.150,3.044,160.000,30.130,4.885,1.232,410.400,97.710,18.010,4.704,easy
1475.000,218.700,40.320,5.920,1020.000,120.600,22.090,3.018,162.800,29.900,4.713,1.239,408.000,97.360,17.980,4.646,easy
1472.000,217.100,40.610,5.879,1019.000,122.000,21.990,3.049,158.600,29.750,4.783,1.222,409.800,97.180,18.060,4.711,easy
1475.000,219.100,40.720,5.920,1019.000,121.200,22.000,3.023,163.100,29.590,4.781,1.225,411.800,97.090,17.820,4.652,easy
1474.000,219.000,40.490,5.938,1015.000,121.400,22.200,3.028,160.000,29.600,4.868,1.233,409.500,97.110,18.110,4.671,easy
1475.000,219.500,40.370,6.000,1015.000,121.400,22.300,3.042,157.100,29.690,4.774,1.243,413.700,97.480,17.970,4.747,easy
1480.000,221.400,40.820,5.988,1021.000,121.900,22.280,3.044,163.700,30.090,4.865,1.248,412.500,98.700,18.130,4.772,easy
1486.000,220.300,40.970,6.030,1021.000,121.700,22.320,3.040,164.100,29.880,4.770,1.254,416.200,97.900,18.260,4.818,easy
1491.000,224.000,41.240,6.114,1025.000,121.800,22.270,3.041,164.400,30.240,4.902,1.239,418.100,99.360,18.430,4.822,easy
1488.000,221.500,40.840,5.961,1022.000,121.700,22.260,3.038,163.700,29.800,4.846,1.232,408.200,97.010,18.000,4.612,easy
1470.000,218.500,40.170,5.906,1021.000,120.600,21.970,3.031,156.300,29.520,4.800,1.206,407.900,96.660,17.690,4.646,easy
1469.000,219.400,40.180,5.904,1023.000,120.800,22.130,3.026,158.200,29.960,4.795,1.227,410.700,96.320,17.810,4.690,easy
1470.000,219.300,40.740,5.927,1016.000,120.900,22.070,3.018,161.300,29.640,4.737,1.230,409.700,96.530,17.950,4.716,easy
1469.000,218.800,40.620,5.902,1020.000,120.700,22.120,3.035,157.600,29.590,4.769,1.221,411.700,96.810,17.920,4.668,easy
1473.000,219.600,40.930,5.943,1017.000,121.700,22.170,3.055,162.400,29.890,4.806,1.221,410.100,97.700,17.890,4.689,easy
1481.000,220.900,40.740,6.008,1018.000,121.700,22.230,3.057,156.500,30.040,4.767,1.232,413.100,98.670,18.080,4.777,easy
