A-DC1,A-DC2,A-DC3,A-DC4,A-DC5,A-DC6,A-DC7,A-DC8,B-DC1,B-DC2,B-DC3,B-DC4,B-DC5,B-DC6,B-DC7,B-DC8,condition
1106.000,423.200,132.100,29.660,885.200,245.000,68.980,15.530,201.100,47.190,13.920,5.022,322.100,81.670,18.100,6.599,baseline
1079.000,406.200,124.300,27.720,878.400,242.800,67.440,15.220,202.000,46.540,13.710,4.942,311.900,78.730,17.430,6.397,baseline
1066.000,396.200,122.500,27.430,874.800,241.200,67.560,15.260,197.900,46.010,13.610,4.925,311.800,78.560,17.310,6.479,baseline
1068.000,401.500,123.500,27.810,870.200,241.600,67.930,15.310,199.900,46.160,13.690,4.939,313.200,78.560,17.440,6.520,baseline
1071.000,401.200,124.200,27.960,875.500,240.100,68.030,15.380,197.100,46.380,13.580,4.977,313.700,78.850,17.540,6.460,baseline
1070.000,400.800,124.300,27.700,877.200,240.900,67.600,15.370,200.100,46.590,13.700,4.956,314.100,79.320,17.590,6.481,baseline
1073.000,403.700,125.000,28.040,879.300,242.500,68.610,15.490,200.400,46.650,13.750,4.969,315.200,79.690,17.710,6.559,baseline
1080.000,407.200,126.800,28.520,879.400,242.800,68.730,15.580,206.100,46.610,13.750,4.957,316.000,80.170,17.880,6.667,baseline
1088.000,410.400,128.500,28.830,882.600,244.000,69.340,15.620,201.500,46.620,13.940,5.045,318.300,80.670,17.970,6.727,baseline
1096.000,415.500,130.400,29.340,882.600,244.500,69.310,15.730,201.700,47.150,13.970,5.040,321.200,81.550,18.260,6.748,baseline
1102.000,421.100,130.500,29.730,886.900,245.000,69.710,15.810,203.100,46.580,13.990,5.075,323.400,82.050,18.430,6.765,baseline
1109.000,424.300,132.700,29.960,893.800,247.000,69.660,15.830,201.400,47.180,14.080,5.098,325.600,82.270,18.440,6.757,baseline
1102.000,416.000,127.800,28.510,883.600,242.800,68.350,15.300,202.200,46.910,13.840,4.995,317.200,79.940,17.570,6.561,baseline
1076.000,403.100,123.800,27.850,878.200,242.200,68.070,15.390,201.100,46.140,13.760,4.960,313.700,79.460,17.610,6.516,baseline
1078.000,402.700,125.500,28.040,876.400,242.400,67.660,15.390,200.400,46.350,13.760,4.954,315.200,79.310,17.690,6.560,baseline
1083.000,404.600,125.500,28.110,879.500,242.100,68.260,15.250,201.800,46.780,13.750,4.973,315.400,79.360,17.600,6.541,baseline
1080.000,406.800,125.000,28.170,882.600,240.400,68.400,15.510,200.100,46.520,13.760,4.955,315.800,79.420,17.630,6.582,baseline
1082.000,406.000,126.300,28.400,880.700,242.500,68.800,15.540,203.600,46.120,13.730,4.958,316.000,79.160,17.810,6.584,baseline
1088.000,409.900,127.300,28.690,885.900,243.700,68.690,15.650,199.200,46.570,13.710,5.021,317.600,80.590,17.990,6.611,baseline
1095.000,413.900,129.600,28.990,886.000,244.800,69.130,15.720,203.800,46.740,13.740,5.014,318.900,81.290,18.110,6.711,baseline
1102.000,415.400,131.100,29.510,889.100,244.600,69.200,15.890,202.900,46.570,13.940,5.061,322.000,81.840,18.290,6.774,baseline
1109.000,423.100,131.800,29.820,893.700,247.100,69.470,15.950,201.100,46.960,13.990,5.006,323.800,82.160,18.460,6.870,baseline
1114.000,426.200,133.700,29.910,889.800,247.100,69.270,15.550,203.600,47.490,13.960,5.044,324.400,81.770,18.210,6.682,baseline
1093.000,408.100,125.500,28.160,879.100,242.700,67.720,15.400,205.300,46.570,13.800,4.956,315.700,79.020,17.410,6.559,baseline
1080.000,400.400,124.900,28.020,877.100,241.600,67.690,15.430,199.500,45.880,13.580,4.936,313.400,79.030,17.550,6.487,baseline
1083.000,404.000,125.300,28.280,882.100,242.700,68.340,15.420,199.000,46.140,13.610,4.960,316.000,79.470,17.530,6.612,baseline
1085.000,405.000,126.200,28.330,885.500,242.800,68.340,15.340,199.500,46.560,13.780,4.988,316.300,79.650,17.490,6.589,baseline
1082.000,405.000,126.000,28.220,876.800,243.700,68.440,15.560,197.800,46.100,13.790,4.950,315.800,79.270,17.710,6.513,baseline
1086.000,407.700,125.900,28.490,880.200,243.900,68.580,15.540,200.700,46.160,13.790,4.960,315.800,80.410,17.840,6.631,baseline
1092.000,413.000,128.600,28.900,886.400,244.300,69.040,15.630,200.200,46.790,13.860,4.971,317.100,80.790,17.970,6.720,baseline
1101.000,416.500,130.100,29.290,886.500,245.500,69.690,15.740,203.500,46.550,13.930,5.028,320.000,81.930,18.200,6.767,baseline
1107.000,419.900,131.800,29.790,887.300,246.400,70.140,15.890,201.400,46.900,13.910,4.994,321.800,81.780,18.280,6.805,baseline
1114.000,425.400,133.000,29.970,890.400,248.000,69.910,15.930,202.100,46.810,13.880,5.046,324.100,81.860,18.430,6.828,baseline
1120.000,425.600,134.700,30.280,892.400,248.900,70.480,15.990,202.600,47.130,14.030,5.039,326.900,82.970,18.530,6.829,baseline
1117.000,421.200,130.900,29.110,885.400,243.300,68.590,15.530,202.600,47.450,13.820,4.989,317.900,80.590,17.870,6.622,baseline
1086.000,403.000,125.300,28.090,879.500,242.400,68.060,15.420,203.500,46.150,13.660,4.908,314.800,79.230,17.610,6.517,baseline
1086.000,405.200,125.700,28.220,880.400,243.400,68.430,15.450,202.500,46.330,13.720,4.924,315.000,79.330,17.770,6.608,baseline
1090.000,409.000,126.900,28.530,885.700,242.600,68.580,15.560,198.000,46.020,13.810,4.952,317.000,79.930,17.710,6.574,baseline
1087.000,408.200,126.000,28.300,882.100,243.600,68.240,15.420,200.900,46.020,13.660,4.946,315.100,79.310,17.670,6.579,baseline
1087.000,409.700,126.400,28.480,881.600,242.700,68.320,15.530,199.200,46.210,13.700,4.932,316.800,79.470,18.020,6.608,baseline
1093.000,411.600,127.500,28.870,888.800,244.300,69.050,15.660,202.700,46.210,13.770,4.956,317.600,80.180,18.110,6.704,baseline
1099.000,417.400,129.900,29.320,886.700,244.600,69.530,15.770,201.800,46.860,13.940,4.968,319.800,80.900,18.120,6.745,baseline
1107.000,419.700,131.200,29.590,891.600,245.800,70.060,15.920,201.200,46.590,14.000,4.988,324.000,81.820,18.330,6.806,baseline
1115.000,426.600,132.500,29.860,890.700,247.200,70.040,15.880,203.400,46.710,13.970,5.079,323.600,82.090,18.430,6.799,baseline
1120.000,425.100,134.500,30.240,894.000,247.800,70.340,16.080,202.900,46.730,14.020,5.053,323.700,82.840,18.690,6.897,baseline
1127.000,432.500,134.900,30.160,891.100,247.700,69.820,15.660,207.700,47.320,14.070,5.068,323.200,81.650,18.290,6.723,baseline
1101.000,412.700,127.700,28.480,885.200,243.900,68.530,15.490,202.600,46.520,13.770,4.985,316.700,79.830,17.680,6.569,baseline
1088.000,407.000,126.100,28.310,883.500,242.400,68.670,15.440,201.700,46.120,13.750,4.969,314.600,79.160,17.780,6.573,baseline
1092.000,409.400,127.500,28.670,881.400,244.300,68.770,15.500,202.800,46.440,13.810,4.923,316.900,80.200,17.920,6.693,baseline
1094.000,407.400,127.500,28.630,882.600,243.400,68.790,15.520,201.400,46.300,13.630,4.959,316.300,79.910,17.700,6.581,baseline
1090.000,407.200,126.800,28.470,884.600,243.400,68.430,15.560,203.500,46.500,13.790,4.925,316.400,79.740,17.660,6.570,baseline
1093.000,410.800,127.800,28.930,883.900,244.400,69.080,15.630,198.000,46.620,13.880,4.971,316.600,80.570,18.000,6.620,baseline
1100.000,416.600,129.900,29.150,887.800,245.400,69.330,15.740,196.700,46.480,13.900,4.998,319.300,81.220,18.040,6.720,baseline
1106.000,420.000,131.500,29.600,888.900,246.200,69.610,15.900,199.300,46.610,13.930,5.034,321.600,81.610,18.340,6.793,baseline
1113.000,424.200,133.600,29.910,888.900,247.100,70.290,15.810,199.300,47.040,14.030,5.061,322.300,81.480,18.410,6.824,baseline
1120.000,426.900,134.300,30.280,895.700,248.400,70.590,15.930,205.300,47.230,14.010,5.048,324.100,82.820,18.640,6.898,baseline
1121.000,423.600,131.900,29.230,889.700,244.800,68.540,15.510,198.400,46.970,13.910,5.000,319.800,80.000,17.680,6.594,baseline
1089.000,409.900,125.700,28.020,880.900,243.100,68.210,15.440,198.700,46.040,13.890,4.952,313.600,79.100,17.620,6.512,baseline
1086.000,408.600,126.400,28.270,880.500,243.200,68.810,15.530,200.400,46.500,13.750,4.915,315.600,79.490,17.690,6.555,baseline
1092.000,410.200,127.100,28.590,885.900,244.900,69.260,15.530,201.600,46.150,13.760,4.953,314.200,79.900,17.760,6.540,baseline
1091.000,410.200,126.500,28.450,881.200,243.700,68.690,15.570,200.900,46.370,13.690,4.936,314.300,79.740,17.860,6.548,baseline
1090.000,409.400,126.300,28.440,884.900,244.400,68.730,15.580,203.100,46.070,13.680,4.966,314.500,80.250,17.800,6.607,baseline
1096.000,414.100,128.900,28.840,882.600,244.000,69.240,15.650,198.800,46.110,13.770,4.947,316.700,80.120,18.070,6.686,baseline
1103.000,416.600,130.400,29.340,886.100,246.400,69.530,15.760,201.600,46.390,13.850,4.980,319.800,81.050,18.020,6.781,baseline
1111.000,424.600,132.000,29.680,894.600,246.800,70.110,15.970,201.500,46.960,14.010,5.039,321.700,81.870,18.250,6.825,baseline
1118.000,427.900,133.700,30.000,892.900,247.300,70.570,16.030,201.900,47.270,13.900,5.027,323.100,82.300,18.620,6.836,baseline
1123.000,430.100,135.400,30.310,896.600,248.700,70.490,16.000,202.900,47.220,14.020,5.085,324.500,82.510,18.660,6.875,baseline
1128.000,429.200,133.800,29.750,895.200,247.300,69.150,15.650,201.400,47.540,14.010,5.072,321.600,81.090,17.970,6.583,baseline
1095.000,408.600,127.400,28.290,884.500,243.300,68.340,15.540,199.900,46.600,13.710,4.969,314.600,79.400,17.510,6.465,baseline
1089.000,408.900,126.700,28.210,887.300,242.700,68.700,15.460,201.300,46.130,13.750,4.937,312.900,79.680,17.710,6.546,baseline
1092.000,411.000,127.700,28.480,885.200,244.800,68.830,15.530,199.300,46.740,13.650,4.987,314.400,79.770,17.840,6.555,baseline
1092.000,410.100,127.300,28.280,887.500,244.200,68.520,15.530,200.800,46.500,13.710,4.944,313.400,79.240,17.620,6.528,baseline
1091.000,410.200,126.800,28.500,885.200,243.400,68.680,15.550,200.600,45.920,13.680,4.955,314.000,79.520,17.660,6.551,baseline
1093.000,411.000,128.300,28.710,885.800,245.100,68.800,15.680,194.500,45.900,13.670,4.979,316.200,80.270,17.940,6.633,baseline
1100.000,415.500,130.400,29.160,891.200,246.400,69.270,15.820,195.200,46.590,13.870,4.956,317.500,80.650,18.040,6.636,baseline
1108.000,421.700,131.200,29.490,892.600,246.300,69.940,15.840,198.100,46.760,13.770,5.044,319.200,81.120,18.220,6.756,baseline
1115.000,425.000,132.700,29.920,893.200,247.400,69.950,15.950,203.200,46.850,14.070,5.049,320.000,81.890,18.260,6.832,baseline
1120.000,428.300,134.500,30.110,894.400,249.300,70.740,15.990,202.100,47.030,14.040,5.092,322.400,82.380,18.560,6.830,baseline
1128.000,432.200,136.000,30.540,895.700,249.700,70.840,16.150,204.800,47.360,14.080,5.111,324.000,82.770,18.640,6.822,baseline
1129.000,429.200,133.600,29.590,895.100,247.200,69.330,15.680,200.700,46.900,13.930,5.058,320.200,80.900,17.800,6.624,baseline
1094.000,410.000,127.000,28.260,889.700,244.300,68.590,15.510,202.400,46.660,13.740,4.942,313.800,78.870,17.640,6.492,baseline
1092.000,411.200,126.700,28.450,883.500,244.800,68.810,15.630,200.600,46.250,13.720,4.979,314.200,79.860,17.770,6.566,baseline
1095.000,414.100,128.000,28.640,885.700,246.000,69.140,15.670,198.800,46.410,13.760,4.986,316.300,79.610,17.890,6.597,baseline
1094.000,411.700,127.400,28.600,887.300,245.100,68.470,15.570,198.400,46.710,13.750,4.961,315.400,79.420,17.610,6.514,baseline
1093.000,411.200,127.800,28.640,886.900,243.800,69.040,15.680,201.500,46.170,13.740,4.965,315.200,79.660,17.650,6.540,baseline
1098.000,416.800,129.000,28.900,886.600,245.700,69.310,15.780,200.600,46.500,13.700,5.003,316.400,80.200,17.770,6.620,baseline
1105.000,419.900,130.700,29.110,891.600,248.000,69.960,15.960,204.100,46.710,13.770,5.008,317.000,80.400,18.250,6.726,baseline
1113.000,424.000,132.200,29.710,890.200,248.300,70.380,16.020,204.300,46.620,13.930,5.088,320.300,81.310,18.300,6.781,baseline
1119.000,428.800,133.100,30.060,897.400,248.700,70.770,16.110,201.500,46.950,13.890,5.059,320.300,81.810,18.360,6.770,baseline
1125.000,430.400,135.600,30.250,900.600,249.100,71.470,16.060,200.500,47.160,14.020,5.079,322.300,82.660,18.500,6.834,baseline
1131.000,432.500,136.100,30.240,898.300,249.300,70.330,15.830,203.600,47.150,14.020,5.063,321.900,81.620,18.230,6.667,baseline
1107.000,415.100,128.100,28.530,890.200,244.700,69.200,15.590,201.600,46.530,13.740,4.934,313.900,79.690,17.490,6.527,baseline
1092.000,411.300,127.300,28.380,886.800,245.300,68.990,15.620,199.300,46.320,13.620,4.972,312.300,79.870,17.650,6.570,baseline
1095.000,413.900,127.700,28.630,888.100,246.300,69.360,15.660,202.900,46.150,13.750,4.975,313.700,79.850,17.820,6.606,baseline
1099.000,414.800,128.500,28.730,888.100,245.600,69.420,15.690,200.700,46.720,13.830,4.957,312.600,79.580,17.650,6.575,baseline
1095.000,413.000,128.200,28.700,883.900,244.600,69.140,15.710,200.500,46.340,13.790,4.996,313.400,79.660,17.770,6.606,baseline
1096.000,416.300,129.800,28.920,887.300,245.000,69.670,15.800,198.700,46.540,13.830,4.994,313.900,80.120,17.750,6.614,baseline
1104.000,419.700,131.200,29.250,892.400,247.000,70.520,15.970,199.500,46.410,13.790,5.032,316.800,80.400,18.170,6.681,baseline
1112.000,423.200,132.800,29.650,892.100,248.100,70.400,16.060,201.700,46.610,14.000,5.052,317.900,81.290,18.060,6.730,baseline
1119.000,426.900,133.700,30.100,896.800,250.000,70.800,16.200,202.300,46.760,14.040,5.070,321.500,82.030,18.520,6.820,baseline
1126.000,432.000,135.500,30.360,900.600,250.200,71.170,16.240,205.400,47.150,14.050,5.079,322.400,82.400,18.540,6.832,baseline
1132.000,432.900,137.100,30.580,902.400,250.600,71.790,16.230,201.700,47.700,14.050,5.095,324.000,83.570,18.690,6.878,baseline
1136.000,433.400,135.600,29.890,894.600,248.800,69.800,15.710,204.000,47.100,13.980,5.025,319.800,80.810,17.940,6.631,baseline
1100.000,412.300,127.800,28.450,889.600,245.200,69.200,15.620,198.900,46.380,13.700,4.942,312.600,79.310,17.590,6.494,baseline
1094.000,412.400,128.100,28.490,887.200,246.200,69.510,15.700,201.700,45.910,13.850,4.972,311.800,79.740,17.720,6.556,baseline
1097.000,414.000,128.900,28.670,893.100,245.400,69.790,15.790,199.400,46.360,13.750,5.001,313.200,79.860,17.660,6.568,baseline
1097.000,414.400,127.800,28.480,892.800,246.100,69.620,15.690,197.400,46.400,13.680,4.977,312.500,79.590,17.800,6.565,baseline
1094.000,412.100,126.900,28.680,889.300,245.900,69.390,15.750,200.200,46.450,13.760,4.976,314.000,79.230,17.710,6.615,baseline
1099.000,418.000,129.400,28.900,891.600,247.600,70.080,15.910,200.400,46.670,13.860,5.025,312.700,80.170,17.780,6.635,baseline
1107.000,419.800,130.300,29.160,897.300,249.200,70.390,15.990,199.400,46.500,13.830,5.002,316.600,80.470,18.190,6.692,baseline
1114.000,423.600,132.400,29.680,898.000,249.200,70.640,16.190,203.900,46.970,13.870,5.070,318.400,81.350,18.360,6.722,baseline
1120.000,429.300,133.800,30.050,898.900,250.400,70.730,16.190,202.000,46.590,14.060,5.051,318.700,81.650,18.370,6.838,baseline
1127.000,432.500,135.100,30.320,903.000,250.900,71.280,16.280,205.300,47.250,14.010,5.045,321.200,82.120,18.500,6.893,baseline
1134.000,438.200,136.800,30.710,907.300,253.700,71.850,16.370,205.500,47.510,14.030,5.102,322.200,83.090,18.630,6.885,baseline
1133.000,432.300,134.600,29.580,894.400,248.500,69.880,15.880,203.600,47.060,13.970,5.021,316.000,80.410,17.940,6.591,baseline
1099.000,415.700,127.700,28.640,888.200,246.300,69.550,15.760,204.000,46.860,13.780,4.967,310.400,79.350,17.590,6.552,baseline
1096.000,413.300,128.700,28.680,894.400,247.500,69.540,15.780,201.500,46.870,13.740,4.973,311.300,79.820,17.870,6.612,baseline
1101.000,417.500,130.000,28.840,896.400,246.100,69.950,15.790,199.400,46.300,13.730,5.010,313.100,79.520,17.730,6.566,baseline
1100.000,416.300,128.800,28.610,891.200,247.300,70.010,15.770,203.000,46.660,13.690,4.939,311.800,79.200,17.740,6.573,baseline
1098.000,416.300,129.300,28.800,892.500,247.100,70.040,15.880,203.700,46.330,13.780,4.983,312.900,79.800,17.650,6.591,baseline
1104.000,418.300,130.500,29.180,895.700,247.800,70.380,15.970,198.300,46.730,13.850,4.998,315.400,80.320,17.850,6.617,baseline
1112.000,427.500,132.900,29.670,900.900,249.900,70.750,16.140,206.100,47.150,13.930,5.037,315.800,81.550,18.130,6.777,baseline
1119.000,429.600,133.800,29.970,898.600,251.100,70.920,16.240,206.000,47.050,13.970,5.071,318.200,81.220,18.230,6.790,baseline
1127.000,432.000,135.500,30.470,903.400,252.100,71.680,16.330,207.400,47.100,13.990,5.077,319.400,82.420,18.490,6.821,baseline
1134.000,436.800,137.100,30.590,899.300,252.400,71.620,16.400,203.300,47.880,14.070,5.066,322.800,82.510,18.610,6.926,baseline
1140.000,438.000,136.200,30.630,903.000,251.900,71.150,15.970,206.200,47.620,14.120,5.071,320.600,82.240,18.160,6.641,baseline
1111.000,419.600,129.200,28.670,893.600,247.700,69.890,15.840,206.200,46.640,13.810,4.968,314.100,79.970,17.750,6.599,baseline
1099.000,417.800,128.200,28.800,894.000,247.200,69.890,15.900,202.700,46.680,13.780,4.953,312.000,79.540,17.880,6.604,baseline
1104.000,417.700,130.500,29.090,897.500,249.600,70.190,15.970,202.300,46.690,13.850,5.009,314.000,79.470,17.950,6.640,baseline
1106.000,417.800,129.900,29.070,892.000,248.000,69.980,15.920,200.600,47.030,13.850,4.983,312.800,79.820,17.700,6.664,baseline
1102.000,417.400,129.000,28.980,892.100,249.000,70.260,15.950,201.800,46.850,13.790,4.945,313.200,80.040,17.790,6.603,baseline
1104.000,421.600,130.200,29.260,898.300,248.900,70.830,15.990,201.600,46.790,13.860,4.944,314.300,80.320,17.920,6.685,baseline
1112.000,423.200,131.700,29.530,900.800,249.800,71.050,16.020,204.300,47.400,13.840,5.002,315.600,81.010,18.130,6.727,baseline
1119.000,428.200,133.700,29.940,900.700,251.100,70.970,16.280,201.700,47.160,14.060,5.023,317.600,80.920,18.200,6.802,baseline
1126.000,430.400,134.800,30.310,902.500,250.700,71.640,16.410,202.800,46.920,13.950,5.035,319.300,81.380,18.520,6.867,baseline
1131.000,432.400,136.900,30.580,902.600,253.200,71.690,16.420,203.700,47.330,14.130,5.038,321.300,82.340,18.590,6.838,baseline
1135.000,432.500,135.600,29.930,898.800,249.800,70.400,15.930,203.100,47.290,14.030,5.010,317.000,80.780,17.880,6.589,baseline
1103.000,412.500,128.400,28.660,900.700,248.200,69.500,15.880,200.200,46.720,13.750,4.934,311.600,79.000,17.620,6.534,baseline
1097.000,412.900,128.200,28.690,896.100,247.500,69.970,15.860,200.900,46.270,13.790,4.985,312.500,79.550,17.530,6.586,baseline
1102.000,416.400,129.900,29.100,895.800,247.800,70.170,15.990,204.500,46.730,13.810,4.953,310.800,79.580,17.620,6.610,baseline
1103.000,417.500,128.700,28.760,896.300,248.700,70.230,15.880,202.800,46.780,13.820,4.942,311.800,78.940,17.720,6.524,baseline
1100.000,416.500,129.000,28.840,896.000,247.100,69.870,15.990,203.400,46.620,13.920,4.941,311.700,79.550,17.650,6.578,baseline
1104.000,418.100,130.500,29.230,894.100,247.900,70.560,16.120,202.100,46.960,13.880,4.990,313.400,80.380,17.820,6.626,baseline
1111.000,422.200,131.800,29.540,901.200,250.400,71.070,16.240,202.800,47.120,13.930,5.023,315.200,80.380,17.920,6.714,baseline
1118.000,425.800,134.100,29.880,904.700,250.800,71.410,16.250,205.100,47.360,13.950,5.035,317.000,81.250,18.220,6.763,baseline
1125.000,430.800,134.900,30.280,900.900,252.000,71.190,16.330,202.700,47.470,14.020,5.068,318.500,81.290,18.190,6.815,baseline
1131.000,433.800,135.700,30.620,906.200,252.900,71.740,16.380,204.400,47.810,14.170,5.073,320.800,81.620,18.510,6.856,baseline
1137.000,437.700,137.400,30.700,906.500,252.700,71.030,16.120,209.700,47.700,14.100,5.051,320.300,81.820,18.230,6.693,baseline
1114.000,420.200,129.900,28.820,895.200,248.100,69.540,15.820,204.200,46.790,13.860,4.967,312.700,79.190,17.600,6.519,baseline
1096.000,411.600,127.400,28.550,890.300,247.600,70.170,15.810,202.100,46.570,13.680,4.946,312.000,79.330,17.560,6.497,baseline
1097.000,412.800,127.600,28.700,893.900,247.200,69.880,15.900,202.500,46.520,13.720,4.924,310.800,79.260,17.650,6.513,baseline
1099.000,413.500,128.300,28.570,896.600,247.300,69.880,15.830,199.900,46.910,13.740,4.911,312.400,78.510,17.520,6.461,baseline
1096.000,413.300,128.000,28.590,892.100,248.600,69.530,15.900,201.400,46.140,13.820,4.952,311.800,79.220,17.500,6.467,baseline
1098.000,414.500,129.100,28.720,895.000,248.600,69.980,16.020,204.700,46.840,13.750,4.954,311.500,79.200,17.610,6.538,baseline
1103.000,418.400,131.000,29.190,898.900,249.300,70.420,16.090,199.500,47.070,13.830,4.985,313.100,79.810,17.780,6.628,baseline
1110.000,420.600,132.200,29.590,900.000,248.900,70.880,16.090,204.000,46.950,13.980,4.986,314.800,80.660,18.250,6.655,baseline
1117.000,427.100,133.600,29.890,902.100,250.700,70.910,16.250,201.700,47.410,13.990,4.954,316.900,80.470,18.090,6.747,baseline
1123.000,428.900,134.500,29.970,901.800,251.000,71.680,16.340,203.500,47.160,13.980,5.066,318.200,81.260,18.200,6.762,baseline
1128.000,430.800,136.000,30.590,902.200,251.500,71.680,16.340,203.100,47.620,14.040,5.095,319.900,81.760,18.520,6.805,baseline
1136.000,434.900,136.500,30.600,902.700,251.200,71.230,16.070,206.400,47.360,14.110,5.049,319.400,81.260,18.110,6.627,baseline
1110.000,419.400,129.100,28.620,895.200,246.500,69.750,15.790,202.600,46.970,13.810,4.989,309.800,79.120,17.540,6.509,baseline
1096.000,409.700,127.500,28.650,894.700,247.700,69.700,15.800,201.300,46.530,13.730,4.916,310.900,78.760,17.420,6.462,baseline
1096.000,414.000,128.100,28.620,890.200,246.400,69.830,15.920,202.800,46.330,13.840,4.955,310.500,78.580,17.570,6.484,baseline
1100.000,415.100,127.900,28.710,899.600,246.700,69.680,15.850,202.500,46.550,13.820,4.944,309.800,78.560,17.600,6.501,baseline
1096.000,413.700,128.200,28.430,899.500,247.700,69.810,15.900,203.300,46.590,13.770,4.982,309.400,78.820,17.500,6.419,baseline
1098.000,414.200,128.900,28.720,901.300,246.500,69.980,15.990,198.000,46.730,13.740,4.961,310.400,79.120,17.620,6.542,baseline
1104.000,421.700,130.700,29.150,898.000,248.600,70.240,16.110,203.300,46.530,13.810,4.962,312.500,79.690,17.730,6.587,baseline
1111.000,421.900,133.000,29.600,902.400,250.400,70.860,16.240,202.800,46.740,13.910,5.010,315.300,80.220,18.020,6.635,baseline
1117.000,423.700,133.100,29.950,899.900,251.100,71.260,16.240,202.800,47.150,13.890,5.050,315.800,80.870,18.130,6.660,baseline
1122.000,430.100,134.200,30.140,904.700,251.400,71.640,16.350,199.800,47.220,14.030,5.022,317.800,81.260,18.140,6.738,baseline
1129.000,433.400,135.300,30.480,906.900,252.400,71.830,16.420,206.100,47.490,14.030,5.085,318.900,81.620,18.340,6.741,baseline
1134.000,433.600,135.400,29.830,902.400,249.200,70.670,15.930,204.100,47.080,14.070,4.997,317.200,80.360,17.800,6.500,baseline
1100.000,415.400,128.000,28.620,897.200,247.500,69.540,15.830,203.800,46.740,13.820,4.995,309.800,78.380,17.420,6.465,baseline
1095.000,411.900,128.400,28.710,895.100,247.000,69.650,15.890,204.000,46.720,13.770,4.974,310.400,78.860,17.460,6.477,baseline
1099.000,414.400,128.400,28.880,891.200,247.000,69.890,15.900,202.000,46.370,13.750,4.959,311.000,78.600,17.610,6.455,baseline
1097.000,414.400,127.300,28.530,896.800,245.700,70.080,15.730,201.200,46.660,13.690,4.963,309.100,78.770,17.320,6.414,baseline
1095.000,412.100,128.000,28.660,896.500,248.000,69.750,15.930,203.700,46.740,13.690,4.944,309.200,78.610,17.530,6.492,baseline
1099.000,414.100,128.800,29.010,895.700,247.800,70.260,15.960,202.200,46.490,13.740,4.996,311.700,78.900,17.670,6.541,baseline
1104.000,417.900,130.500,29.310,898.700,248.800,70.670,16.100,199.000,46.940,13.800,4.990,312.400,79.480,17.830,6.545,baseline
1112.000,423.400,132.000,29.590,903.000,250.500,71.000,16.220,201.200,47.080,13.950,4.995,315.300,80.000,17.890,6.673,baseline
1118.000,426.900,133.100,29.860,905.200,250.500,71.180,16.270,202.200,47.120,14.080,5.017,315.800,80.480,18.220,6.616,baseline
1122.000,426.900,133.800,30.110,902.200,250.100,71.550,16.310,199.200,47.610,14.070,5.039,317.600,81.120,18.190,6.713,baseline
1129.000,433.400,135.700,30.580,903.600,251.200,71.280,16.140,205.800,47.680,14.060,5.059,316.800,81.240,18.160,6.678,baseline
1116.000,423.000,130.800,28.870,895.200,247.700,70.030,15.850,203.100,46.930,13.810,4.994,312.100,78.640,17.380,6.457,baseline
1095.000,410.800,127.400,28.480,894.700,246.400,69.200,15.880,203.500,46.920,13.790,4.960,310.600,78.000,17.360,6.451,baseline
1095.000,412.100,127.600,28.610,895.400,247.700,69.700,15.930,197.100,46.460,13.790,4.954,310.100,79.140,17.460,6.503,baseline
1098.000,415.300,128.000,28.770,896.600,246.100,69.880,15.880,201.300,46.570,13.750,4.934,308.700,78.530,17.330,6.453,baseline
1094.000,411.800,127.100,28.570,898.300,247.100,69.570,15.910,205.700,46.380,13.710,5.000,309.300,78.100,17.340,6.474,baseline
1097.000,414.200,127.700,28.780,893.400,248.100,70.080,16.000,202.600,46.180,13.750,4.956,310.600,78.210,17.660,6.580,baseline
1102.000,415.400,129.300,28.930,896.800,249.000,70.280,16.100,202.800,46.560,13.870,4.985,312.700,79.310,17.590,6.576,baseline
1109.000,421.600,130.500,29.420,902.600,249.900,70.440,16.200,199.100,47.060,13.860,4.987,313.500,79.850,17.750,6.651,baseline
1115.000,424.500,133.100,29.820,903.400,250.700,70.930,16.330,200.900,46.820,13.780,4.984,313.900,79.970,17.900,6.634,baseline
1122.000,428.200,133.400,30.170,903.900,252.100,71.530,16.270,200.700,47.150,14.010,5.041,317.200,80.400,18.080,6.679,baseline
1127.000,431.800,134.900,30.310,901.600,252.000,71.830,16.430,205.400,47.070,14.060,5.061,318.400,81.470,18.150,6.771,baseline
1134.000,431.600,136.700,30.850,907.500,252.800,71.780,16.380,204.600,47.490,14.070,5.101,319.400,81.980,18.470,6.764,baseline
1131.000,431.600,133.200,29.410,897.500,248.700,70.510,15.900,205.600,46.650,14.010,5.026,314.000,79.090,17.530,6.497,baseline
1099.000,412.700,127.800,28.460,895.100,247.000,70.020,15.840,202.500,46.600,13.830,4.965,310.200,78.490,17.430,6.465,baseline
1096.000,412.500,127.800,28.550,893.900,247.600,69.810,16.020,202.400,46.500,13.810,4.930,308.500,78.160,17.410,6.476,baseline
1098.000,411.400,128.900,28.710,896.400,246.400,69.740,15.920,201.500,46.340,13.760,4.940,309.400,78.520,17.470,6.492,baseline
1097.000,412.600,128.100,28.620,898.900,245.200,69.480,15.820,201.600,46.320,13.770,4.972,308.600,77.930,17.400,6.434,baseline
1097.000,413.600,128.200,28.800,894.100,247.800,70.050,16.030,201.400,46.410,13.720,4.995,308.900,78.550,17.420,6.453,baseline
1101.000,414.600,129.900,28.950,902.200,248.200,70.690,16.130,200.300,47.050,13.850,4.961,311.200,79.210,17.630,6.554,baseline
1108.000,421.800,130.600,29.370,899.100,249.600,70.820,16.110,203.300,47.500,13.840,4.992,312.300,79.540,17.830,6.585,baseline
1116.000,422.100,132.500,29.660,901.500,250.900,71.390,16.270,204.800,46.870,13.950,5.000,315.100,79.880,17.920,6.685,baseline
1120.000,423.800,133.600,30.120,904.300,251.000,71.370,16.300,203.800,47.430,13.950,5.062,316.400,80.640,18.090,6.720,baseline
1127.000,429.100,134.900,30.340,907.000,253.000,71.840,16.440,206.800,47.800,14.030,5.028,318.500,81.080,18.190,6.779,baseline
1134.000,434.500,136.300,30.820,909.500,253.000,72.150,16.560,202.600,47.560,14.160,5.059,319.300,81.580,18.510,6.881,baseline
1141.000,436.400,137.200,31.220,908.600,255.100,72.800,16.570,206.200,48.120,14.140,5.117,322.500,82.960,18.570,6.875,baseline
1149.000,441.300,138.300,31.360,914.100,254.700,72.260,16.350,207.600,48.280,14.280,5.100,322.100,81.870,18.180,6.742,baseline
1126.000,427.300,131.700,29.360,902.600,249.300,70.660,16.050,203.800,47.360,13.940,4.992,313.800,79.790,17.450,6.522,baseline
1105.000,414.800,128.900,28.970,903.300,249.200,70.250,16.070,204.700,46.870,13.700,4.976,312.500,79.090,17.540,6.504,baseline
1107.000,419.900,130.600,29.080,900.300,248.700,70.490,16.010,201.300,46.400,13.810,4.983,312.100,79.250,17.620,6.581,baseline
1110.000,419.000,130.400,29.180,907.600,248.600,70.290,16.050,206.300,46.800,13.860,4.991,312.400,79.340,17.560,6.537,baseline
1107.000,417.700,129.300,29.200,901.200,247.600,70.230,16.060,204.800,46.490,13.860,4.999,312.300,79.110,17.560,6.487,baseline
1108.000,419.200,129.800,29.370,897.900,251.400,70.640,16.270,200.900,46.840,13.750,5.016,315.500,80.160,17.880,6.588,baseline
1115.000,422.000,131.400,29.760,904.500,251.300,71.050,16.250,200.900,47.260,14.020,5.018,315.300,80.120,17.770,6.631,baseline
1124.000,426.100,133.600,30.320,908.300,252.700,71.810,16.340,201.300,47.310,13.950,5.037,317.400,80.730,18.030,6.735,baseline
1129.000,429.100,135.600,30.440,911.700,252.000,71.860,16.470,207.100,47.890,14.080,5.049,318.200,81.520,18.230,6.709,baseline
1136.000,434.700,137.100,30.730,908.400,253.600,72.370,16.600,201.900,47.670,14.030,5.091,320.500,81.770,18.390,6.807,baseline
1144.000,435.500,137.700,31.240,911.600,254.600,72.820,16.600,210.000,47.470,14.220,5.064,322.600,82.570,18.500,6.832,baseline
1149.000,440.800,138.400,31.620,918.900,255.800,73.080,16.770,208.900,47.860,13.990,5.114,323.600,82.680,18.730,6.920,baseline
1156.000,444.000,138.800,31.140,916.200,252.800,71.980,16.300,207.500,48.010,14.100,5.079,321.300,81.660,18.170,6.737,baseline
1123.000,426.200,131.400,29.420,902.800,250.500,70.410,16.150,202.500,46.980,13.870,5.031,316.700,79.570,17.570,6.576,baseline
1113.000,422.800,130.500,29.460,904.700,250.600,71.120,16.180,204.600,46.860,13.750,5.013,314.400,79.490,17.990,6.570,baseline
1117.000,420.200,132.100,29.690,907.700,251.200,70.930,16.310,200.200,47.210,14.030,4.999,315.500,80.260,17.930,6.623,baseline
1119.000,423.800,131.600,29.680,905.200,250.900,70.840,16.220,204.900,46.900,13.990,5.039,314.800,79.760,17.730,6.624,baseline
1116.000,421.800,131.500,29.560,906.500,250.300,70.900,16.190,202.400,46.990,13.970,5.012,315.100,80.110,17.820,6.573,baseline
1120.000,424.800,133.000,29.900,907.200,250.800,71.560,16.350,204.400,47.120,13.920,4.993,316.100,80.990,18.030,6.646,baseline
1126.000,428.300,134.100,30.240,906.400,251.500,72.140,16.450,203.600,46.780,13.980,5.045,317.000,81.630,18.250,6.744,baseline
1134.000,431.800,135.300,30.760,911.100,253.600,72.170,16.630,199.200,47.720,14.080,5.048,321.000,81.410,18.280,6.741,baseline
1141.000,435.700,137.100,30.880,908.900,253.100,72.430,16.590,203.800,47.900,14.070,5.089,320.700,82.070,18.420,6.779,baseline
1148.000,444.100,139.000,31.350,911.600,255.700,73.150,16.700,209.200,48.190,14.210,5.091,324.700,82.790,18.680,6.874,baseline
1154.000,444.500,138.900,31.680,916.900,256.300,73.150,16.750,205.600,48.040,14.240,5.116,327.100,83.060,18.690,7.025,baseline
1160.000,449.200,141.000,32.010,920.300,256.200,73.050,16.650,208.200,48.110,14.200,5.089,326.400,82.880,18.490,6.841,baseline
1146.000,437.200,135.900,29.980,908.100,252.600,71.550,16.250,209.400,47.660,14.070,5.010,318.200,80.780,18.040,6.632,baseline
1120.000,422.900,131.800,29.620,905.900,251.100,71.110,16.320,205.300,47.360,14.030,5.019,314.900,80.320,17.910,6.613,baseline
1121.000,423.700,132.200,29.920,909.100,251.200,71.390,16.270,205.500,47.340,13.970,4.998,317.700,80.730,18.010,6.607,baseline
1125.000,425.800,133.300,30.200,909.800,252.700,71.210,16.310,202.900,46.900,13.990,4.989,316.400,80.690,17.850,6.638,baseline
1122.000,426.500,131.900,29.890,912.500,251.000,71.340,16.250,202.200,47.230,13.890,5.012,318.200,80.500,17.850,6.619,baseline
1123.000,426.000,133.000,29.940,906.000,252.400,71.420,16.330,203.200,47.370,13.970,5.022,316.900,80.740,17.990,6.694,baseline
1128.000,428.700,134.300,30.290,908.500,252.500,71.750,16.410,199.000,47.210,14.010,5.080,318.300,80.960,18.230,6.742,baseline
1136.000,433.000,135.900,30.670,910.500,253.500,72.260,16.570,202.700,47.360,14.140,5.065,320.700,81.800,18.280,6.759,baseline
1144.000,438.900,136.400,31.120,916.300,254.800,73.170,16.670,204.500,47.890,14.120,5.115,321.400,82.660,18.540,6.842,baseline
1151.000,441.200,138.700,31.400,916.000,256.000,72.980,16.660,211.700,47.520,14.090,5.129,324.900,83.270,18.640,6.905,baseline
1156.000,443.200,139.300,31.760,920.100,256.100,73.970,16.800,209.200,47.970,14.250,5.115,325.400,83.350,18.860,6.965,baseline
1162.000,449.300,141.400,32.030,917.700,256.500,74.090,16.850,209.100,48.200,14.310,5.118,326.800,83.860,19.010,6.949,baseline
1161.000,445.300,138.900,30.710,911.600,254.200,72.130,16.390,206.100,48.190,14.220,5.058,321.400,81.370,17.980,6.645,baseline
1127.000,426.100,133.000,29.760,908.700,251.500,71.470,16.410,204.200,47.350,13.930,5.041,318.200,80.700,17.820,6.642,baseline
1123.000,426.000,133.700,29.880,907.300,251.900,71.570,16.360,203.600,47.030,13.990,5.022,316.000,80.770,17.890,6.659,baseline
1128.000,428.100,133.700,30.100,910.600,252.700,71.510,16.280,206.100,47.540,14.000,5.061,318.400,80.660,17.880,6.651,baseline
1126.000,429.200,133.200,29.810,909.500,251.000,71.570,16.270,206.600,47.210,13.860,5.018,316.500,80.360,17.980,6.655,baseline
1125.000,426.400,133.200,29.980,907.100,252.100,72.000,16.370,199.100,46.780,13.910,4.998,317.400,81.020,17.950,6.694,baseline
1129.000,427.800,133.900,30.280,905.200,253.700,71.870,16.450,202.900,47.430,14.060,5.001,320.500,81.250,18.130,6.739,baseline
1137.000,436.000,135.900,30.680,908.500,254.100,72.540,16.580,204.700,47.300,14.140,5.071,321.200,81.950,18.450,6.827,baseline
1144.000,437.900,137.400,31.030,915.500,255.400,72.820,16.700,204.000,47.560,14.070,5.049,322.600,82.490,18.560,6.812,baseline
1150.000,441.200,138.300,31.340,915.900,255.600,73.220,16.700,208.300,47.570,14.090,5.093,322.700,82.390,18.480,6.901,baseline
1156.000,445.100,139.000,31.640,913.000,255.800,73.470,16.870,205.400,48.320,14.240,5.133,324.700,83.120,18.760,6.982,baseline
1162.000,448.000,140.800,31.790,921.600,257.400,72.990,16.580,208.800,48.110,14.240,5.160,326.100,82.960,18.480,6.884,baseline
1144.000,435.200,135.900,29.850,906.300,252.600,71.550,16.320,208.600,47.340,13.910,5.061,319.100,80.760,18.090,6.617,baseline
1124.000,423.300,132.600,29.690,909.400,251.700,71.320,16.360,201.200,47.430,13.910,5.035,316.700,80.610,17.960,6.611,baseline
1125.000,428.000,133.800,29.960,903.400,253.300,71.650,16.360,206.000,46.850,13.910,5.003,316.400,80.410,17.990,6.616,baseline
1127.000,429.100,133.600,30.060,908.900,251.400,71.560,16.260,203.800,47.630,13.960,4.998,317.500,80.430,17.760,6.588,baseline
1123.000,426.400,132.800,29.800,904.400,251.300,71.840,16.350,204.600,46.620,13.980,5.025,316.700,80.700,17.850,6.607,baseline
1125.000,426.200,133.800,29.980,910.600,253.300,72.020,16.360,204.800,47.010,13.880,5.041,318.200,80.770,18.090,6.678,baseline
1132.000,429.400,135.000,30.450,911.200,253.300,72.370,16.490,203.000,47.310,13.870,5.036,321.100,81.220,18.140,6.676,baseline
1140.000,435.100,136.500,30.810,914.700,253.100,72.560,16.650,205.000,47.130,14.050,5.039,321.400,81.990,18.330,6.738,baseline
1145.000,438.600,138.000,31.080,917.700,255.200,73.020,16.670,204.300,47.870,14.140,5.104,321.900,82.320,18.380,6.778,baseline
1152.000,439.600,139.300,31.420,914.400,255.300,72.930,16.740,204.200,47.860,14.130,5.066,323.000,83.190,18.660,6.885,baseline
1157.000,444.500,140.000,31.540,915.300,256.300,72.570,16.410,210.300,47.850,14.240,5.075,323.600,82.740,18.250,6.779,baseline
1137.000,432.200,132.800,29.690,908.800,251.000,71.270,16.150,211.200,47.750,14.070,5.035,316.800,80.130,17.730,6.567,baseline
1118.000,422.000,131.400,29.460,904.200,250.200,71.210,16.120,205.700,47.040,13.920,4.988,314.200,80.500,17.720,6.533,baseline
1119.000,422.800,132.500,29.560,899.300,250.700,71.310,16.300,201.800,46.740,13.880,4.986,315.400,80.190,17.640,6.616,baseline
1122.000,425.200,132.200,29.620,902.900,251.500,71.190,16.260,205.500,46.900,13.850,4.988,315.600,79.780,17.730,6.524,baseline
1118.000,425.800,131.100,29.420,904.100,250.300,71.190,16.270,203.400,46.620,13.890,5.018,315.700,79.850,17.680,6.495,baseline
1120.000,425.200,131.700,29.830,908.200,251.400,71.530,16.320,206.000,47.360,13.920,4.993,314.700,79.870,17.710,6.574,baseline
1126.000,428.200,133.400,30.090,902.500,252.500,71.790,16.490,205.500,47.480,13.910,5.045,317.200,80.970,18.030,6.674,baseline
1133.000,431.100,134.900,30.390,911.700,252.800,72.500,16.420,202.600,47.250,13.930,5.028,318.800,81.230,18.130,6.717,baseline
1139.000,437.100,136.300,30.860,909.400,253.300,72.210,16.560,205.600,47.210,14.000,5.083,320.600,81.290,18.420,6.752,baseline
1146.000,439.900,138.200,31.210,911.100,255.100,72.810,16.670,206.300,47.350,14.090,5.065,321.300,82.380,18.360,6.796,baseline
1151.000,443.200,139.200,31.390,909.800,254.000,72.820,16.730,206.400,47.580,14.060,5.062,322.600,82.510,18.390,6.801,baseline
1148.000,436.600,135.900,30.180,903.900,250.900,71.180,16.190,203.600,47.300,14.090,5.051,315.700,80.380,17.710,6.541,baseline
1117.000,422.700,130.400,29.210,903.100,251.100,70.790,16.120,202.200,46.320,13.870,4.998,313.600,79.280,17.630,6.476,baseline
1115.000,421.500,130.900,29.250,899.600,249.500,70.900,16.210,205.500,46.800,13.850,4.973,314.000,79.600,17.580,6.533,baseline
1116.000,423.400,131.700,29.490,904.900,250.100,70.960,16.150,200.700,46.720,13.830,4.971,314.700,79.830,17.570,6.520,baseline
1115.000,420.400,130.400,29.190,897.700,250.100,70.750,16.110,199.600,46.790,13.820,4.955,313.800,79.590,17.740,6.486,baseline
1112.000,420.300,131.000,29.610,903.400,250.800,71.220,16.150,204.000,46.570,13.790,5.018,313.800,79.550,17.650,6.506,baseline
1118.000,425.900,131.600,29.550,904.800,251.000,70.990,16.280,203.600,46.530,13.820,5.002,314.600,79.870,17.690,6.598,baseline
1125.000,427.800,133.600,30.000,906.700,251.900,71.690,16.400,205.900,47.160,13.880,4.990,316.400,80.380,17.960,6.633,baseline
1132.000,430.700,133.800,30.410,908.500,252.700,71.810,16.400,201.600,46.870,13.860,5.025,318.500,80.690,17.930,6.702,baseline
1138.000,433.000,136.800,30.690,908.800,253.800,72.390,16.580,200.600,47.250,13.940,5.038,319.600,81.840,18.120,6.735,baseline
1143.000,435.700,137.200,30.980,911.300,254.300,72.490,16.580,204.000,47.130,14.040,5.077,319.800,81.510,18.180,6.777,baseline
1148.000,436.600,138.200,30.860,916.600,254.100,71.820,16.460,202.400,47.140,14.090,5.066,320.500,80.920,17.950,6.642,baseline
1123.000,424.700,131.400,29.170,905.200,250.700,70.910,16.130,201.800,47.010,13.790,4.983,312.700,79.130,17.570,6.419,baseline
1111.000,421.200,129.900,29.140,902.900,249.600,70.450,16.070,196.700,46.490,13.730,4.975,312.300,78.640,17.440,6.428,baseline
1110.000,418.100,130.100,29.220,902.800,249.900,70.700,16.220,201.700,46.160,13.750,5.009,313.200,79.360,17.420,6.493,baseline
1113.000,418.900,130.100,29.070,899.100,250.000,70.920,16.120,200.200,46.800,13.950,4.967,311.000,79.060,17.300,6.471,baseline
1109.000,416.900,129.400,29.160,901.200,249.200,70.850,16.030,200.100,46.620,13.740,4.986,312.200,79.230,17.440,6.432,baseline
1111.000,420.000,130.200,29.380,902.400,250.500,71.040,16.270,202.600,46.420,13.850,5.004,312.700,79.070,17.510,6.454,baseline
1117.000,425.500,132.600,29.610,905.600,250.800,71.340,16.280,202.600,46.730,13.800,5.018,314.000,80.220,17.770,6.557,baseline
1124.000,426.500,133.800,29.980,906.500,252.000,71.720,16.400,201.900,46.530,13.920,4.999,314.400,80.110,17.730,6.553,baseline
1130.000,431.200,134.900,30.240,908.200,252.600,71.570,16.430,201.500,47.100,13.950,5.030,317.900,80.320,17.950,6.617,baseline
1134.000,432.200,136.000,30.440,910.600,253.000,72.260,16.420,205.800,47.030,13.940,5.043,318.400,80.730,18.200,6.706,baseline
1140.000,437.900,137.300,30.740,910.200,253.900,72.240,16.370,200.700,47.220,14.010,5.061,319.400,81.180,18.040,6.637,baseline
1131.000,429.300,132.200,29.380,902.500,250.100,70.590,16.160,200.500,46.690,13.790,4.983,312.400,78.520,17.500,6.405,baseline
1108.000,418.500,129.700,29.040,902.900,249.600,70.470,16.150,201.000,46.730,13.600,4.968,311.000,78.150,17.340,6.427,baseline
1108.000,420.600,130.800,29.110,900.500,247.600,70.610,16.160,202.700,46.510,13.670,4.924,311.100,78.430,17.360,6.494,baseline
1112.000,421.000,130.000,29.240,900.000,248.600,70.890,16.070,198.300,46.410,13.710,4.957,312.000,78.600,17.320,6.395,baseline
1108.000,418.800,129.900,28.990,899.600,249.000,70.560,15.980,203.000,46.400,13.730,4.988,311.100,78.870,17.360,6.430,baseline
1110.000,419.100,130.100,29.150,899.000,250.900,71.100,16.140,199.400,46.440,13.750,4.967,312.000,79.230,17.540,6.442,baseline
1116.000,422.100,131.900,29.770,901.700,250.300,71.070,16.290,199.200,46.090,13.930,4.974,313.600,78.910,17.530,6.475,baseline
1122.000,426.100,133.100,30.000,904.400,251.700,71.500,16.430,202.700,46.590,13.860,5.012,313.500,80.150,17.840,6.528,baseline
1129.000,431.500,134.500,30.250,909.400,251.900,71.960,16.430,202.400,46.680,13.920,5.035,315.900,80.350,17.800,6.631,baseline
1134.000,434.400,135.700,30.500,909.600,253.000,72.100,16.560,202.600,47.190,13.990,5.040,317.000,80.520,18.050,6.609,baseline
1140.000,436.400,137.200,30.850,912.300,253.500,72.160,16.610,204.600,46.690,14.040,5.064,318.800,80.890,18.080,6.624,baseline
1139.000,433.600,134.800,29.720,905.800,250.400,70.740,16.120,205.800,47.100,14.040,4.987,315.000,78.820,17.310,6.429,baseline
1108.000,416.700,129.500,28.830,899.100,248.600,70.400,16.090,199.100,46.350,13.790,4.970,308.200,78.400,17.180,6.306,baseline
1104.000,417.500,128.900,28.890,900.000,247.900,70.280,15.930,199.600,46.140,13.710,4.934,309.500,78.520,17.160,6.311,baseline
1106.000,416.600,130.100,28.880,897.900,248.500,70.480,16.060,198.800,47.120,13.670,4.914,309.300,78.070,17.320,6.361,baseline
1105.000,414.000,129.000,28.920,897.200,248.300,70.510,15.970,198.800,46.000,13.570,4.935,309.300,78.180,17.060,6.308,baseline
1103.000,414.400,129.200,28.930,895.700,248.200,70.180,15.960,197.700,46.060,13.570,4.867,309.700,78.070,17.110,6.345,baseline
1109.000,419.400,129.800,29.210,901.000,248.500,70.880,16.180,200.300,46.450,13.780,4.938,311.200,79.000,17.400,6.394,baseline
1115.000,419.900,130.900,29.620,901.000,250.700,71.200,16.210,201.200,46.260,13.660,4.970,313.200,78.830,17.580,6.446,baseline
1120.000,426.600,132.300,29.750,903.400,250.100,71.610,16.260,199.600,46.450,13.830,4.975,314.400,79.630,17.680,6.494,baseline
1126.000,432.100,133.800,30.180,910.200,252.500,71.760,16.400,196.800,46.310,13.920,4.981,313.600,79.810,17.790,6.505,baseline
1132.000,432.500,135.600,30.360,905.800,253.400,72.140,16.480,198.400,46.820,13.880,4.990,316.400,80.510,17.790,6.591,baseline
1140.000,435.400,136.500,30.800,912.000,254.400,72.470,16.630,202.000,46.970,14.030,5.060,318.900,80.990,18.040,6.599,baseline
1142.000,435.200,135.400,29.930,904.100,249.900,70.930,16.150,199.900,46.890,13.860,5.006,313.400,79.080,17.310,6.316,baseline
1108.000,416.700,129.600,28.790,899.600,248.800,70.350,15.980,199.700,46.070,13.680,4.917,308.200,77.660,17.040,6.311,baseline
1103.000,415.000,128.300,28.770,899.100,248.400,70.140,16.030,196.800,46.230,13.550,4.911,308.200,77.670,17.150,6.316,baseline
1105.000,416.900,129.100,29.140,899.100,249.400,70.810,16.000,199.200,46.420,13.570,4.932,306.400,77.350,17.100,6.315,baseline
1104.000,415.800,128.300,28.840,895.800,249.100,70.160,15.960,198.300,46.270,13.600,4.911,307.500,77.550,17.020,6.299,baseline
1104.000,415.500,128.900,29.060,899.300,248.400,70.240,16.080,198.900,45.910,13.600,4.896,307.500,77.470,17.010,6.316,baseline
1107.000,417.600,129.500,29.170,898.200,249.600,70.870,16.150,201.800,46.150,13.520,4.917,307.400,78.080,17.130,6.354,baseline
1113.000,419.700,131.200,29.520,903.400,250.100,71.180,16.240,198.200,46.180,13.850,4.945,310.700,78.620,17.310,6.381,baseline
1118.000,423.600,132.400,29.760,903.700,250.900,71.530,16.340,202.100,46.020,13.690,4.996,311.500,79.110,17.500,6.423,baseline
1124.000,427.800,132.700,30.180,905.200,251.700,71.800,16.500,202.200,46.640,13.630,4.965,312.700,79.940,17.690,6.447,baseline
1131.000,431.700,134.800,30.400,907.600,252.400,72.100,16.650,201.400,46.330,13.810,4.990,314.100,80.010,17.770,6.576,baseline
1137.000,433.000,136.100,30.590,906.600,253.400,72.370,16.600,203.200,46.540,13.880,5.020,315.600,80.120,17.850,6.571,baseline
1140.000,434.700,135.200,30.140,910.000,249.700,70.730,16.150,203.600,46.560,13.800,4.969,311.600,79.200,17.200,6.359,baseline
1109.000,419.200,128.900,28.940,899.000,248.000,70.350,16.090,201.700,45.910,13.580,4.924,307.900,77.620,16.900,6.270,baseline
1105.000,414.000,129.400,28.870,897.700,249.000,70.430,16.120,194.000,45.990,13.690,4.920,305.900,77.450,17.350,6.248,baseline
1108.000,416.300,129.900,29.220,897.200,250.200,70.540,16.010,198.100,46.050,13.620,4.930,308.000,77.700,17.090,6.290,baseline
1107.000,416.200,129.200,28.890,900.000,247.800,70.020,16.040,201.800,45.880,13.500,4.886,306.500,77.120,17.020,6.329,baseline
1104.000,414.800,129.500,29.070,903.200,248.900,70.710,16.100,197.300,46.210,13.600,4.951,306.300,77.600,17.220,6.303,baseline
1108.000,419.200,130.600,29.330,896.500,249.600,71.060,16.190,200.500,45.970,13.660,4.932,308.100,77.880,17.250,6.356,baseline
1116.000,423.500,132.000,29.700,905.600,249.700,71.280,16.250,197.900,45.680,13.630,4.962,310.500,78.270,17.390,6.407,baseline
1123.000,427.900,133.000,29.970,907.400,250.900,71.940,16.400,199.700,46.730,13.720,4.984,311.800,78.940,17.550,6.457,baseline
1128.000,428.800,133.900,30.190,909.900,252.700,72.170,16.510,200.900,46.900,13.870,5.021,314.200,79.670,17.660,6.570,baseline
1134.000,434.600,135.600,30.540,910.400,252.500,72.390,16.660,205.200,46.650,13.750,4.970,315.200,80.030,17.710,6.553,baseline
1140.000,435.200,136.500,30.610,908.100,251.300,71.800,16.320,202.000,46.710,13.880,4.975,313.500,79.220,17.390,6.350,baseline
1114.000,419.800,129.700,28.950,904.100,247.900,71.000,16.100,197.100,46.150,13.640,4.926,306.900,77.050,16.940,6.263,baseline
1101.000,412.300,128.400,28.580,897.800,248.700,70.300,16.000,199.700,45.840,13.550,4.864,305.400,77.020,17.110,6.211,baseline
1101.000,413.600,128.800,28.840,898.400,248.300,70.390,16.040,198.500,46.230,13.520,4.894,305.400,77.480,17.020,6.254,baseline
1102.000,413.400,128.600,28.630,899.300,247.700,70.490,16.070,202.600,45.700,13.680,4.903,304.500,76.650,16.860,6.178,baseline
1121.000,425.800,133.700,29.960,903.800,251.700,71.830,16.380,202.000,46.220,13.670,4.958,311.100,79.250,17.560,6.451,hard
1128.000,431.100,134.800,30.330,912.700,253.400,72.000,16.580,199.800,46.280,13.870,5.016,311.200,79.880,17.480,6.478,hard
1135.000,435.200,136.400,30.500,910.100,253.800,72.550,16.700,206.900,46.450,13.800,4.985,314.000,79.680,17.920,6.540,hard
1141.000,437.000,137.600,30.680,914.300,253.300,72.030,16.370,199.600,46.820,13.810,5.036,314.600,79.610,17.450,6.446,hard
1117.000,422.300,130.800,28.810,901.300,250.500,70.550,16.060,196.400,45.720,13.720,4.946,306.900,77.110,17.080,6.258,hard
1100.000,414.500,128.300,28.670,902.000,247.800,70.520,16.080,200.800,46.160,13.560,4.905,304.400,76.200,16.970,6.219,hard
1102.000,414.000,129.200,28.780,898.900,247.800,70.920,16.100,193.900,45.710,13.580,4.925,304.300,76.730,16.940,6.300,hard
1103.000,417.000,129.400,28.800,901.900,249.300,70.490,16.050,197.100,45.820,13.610,4.921,302.800,76.850,16.890,6.232,hard
1100.000,414.900,128.900,28.730,898.400,248.600,70.810,16.080,197.100,45.840,13.660,4.909,303.400,77.150,16.880,6.223,hard
1103.000,417.400,130.100,28.900,901.700,249.800,71.250,16.290,197.100,45.820,13.750,4.924,303.500,77.730,17.070,6.239,hard
1108.000,420.700,131.000,29.510,906.500,250.500,71.570,16.340,195.700,45.670,13.620,4.921,306.300,78.040,17.160,6.337,hard
1117.000,426.000,133.100,29.840,902.500,251.700,71.830,16.460,200.900,45.940,13.690,4.988,309.700,78.150,17.370,6.349,hard
1125.000,433.000,134.200,30.130,909.600,252.900,72.280,16.560,200.900,46.080,13.760,4.992,311.200,78.270,17.410,6.441,hard
1131.000,432.300,135.500,30.330,908.500,254.100,72.890,16.730,199.400,46.830,13.990,4.964,312.100,79.140,17.670,6.461,hard
1137.000,435.400,136.700,30.650,917.400,254.200,73.200,16.830,201.800,46.400,13.850,5.020,313.400,79.360,17.740,6.582,hard
1145.000,440.500,138.400,31.110,915.400,255.400,73.230,16.670,200.600,47.160,13.920,5.058,313.600,79.950,17.750,6.520,hard
1133.000,430.100,133.000,29.420,902.100,252.300,71.160,16.150,200.900,46.710,13.800,4.979,309.300,77.680,16.950,6.287,hard
1107.000,419.200,130.000,28.970,902.800,250.400,71.050,16.330,198.400,46.140,13.610,4.943,306.600,77.190,17.110,6.254,hard
1108.000,421.300,131.200,29.240,906.600,250.500,71.450,16.240,198.000,45.670,13.670,4.902,307.300,77.730,17.050,6.335,hard
1111.000,422.900,131.000,29.340,903.800,251.100,71.330,16.170,199.300,46.210,13.720,4.994,308.000,77.700,17.220,6.281,hard
1108.000,420.400,131.300,29.050,901.600,250.000,71.520,16.310,201.000,45.870,13.500,4.966,305.600,77.420,17.100,6.307,hard
1109.000,419.800,131.300,29.370,908.100,250.600,71.730,16.440,197.400,46.300,13.680,4.948,306.200,77.640,17.180,6.340,hard
1115.000,424.800,132.500,29.820,909.600,253.300,72.160,16.470,200.900,46.210,13.740,4.981,307.400,78.510,17.460,6.379,hard
1124.000,430.200,133.900,30.120,910.900,254.000,72.580,16.560,202.600,46.280,13.650,5.007,310.000,78.780,17.370,6.456,hard
1131.000,431.700,135.600,30.460,910.000,255.100,72.770,16.720,201.500,46.530,13.810,5.043,312.400,79.120,17.670,6.522,hard
1137.000,436.900,136.900,30.680,919.000,256.500,73.710,16.840,206.300,46.810,13.860,5.095,313.600,80.100,17.880,6.527,hard
1144.000,438.300,137.700,30.620,915.500,254.700,72.380,16.450,201.800,47.250,13.990,5.004,312.300,79.500,17.410,6.386,hard
1114.000,420.500,131.000,28.900,908.800,251.000,71.230,16.300,200.500,47.100,13.740,4.942,307.000,77.400,16.880,6.242,hard
1103.000,414.600,129.600,28.830,902.300,250.900,71.110,16.240,198.600,45.480,13.650,4.904,304.500,76.240,16.820,6.199,hard
1104.000,419.200,130.000,29.000,902.300,251.200,71.570,16.320,199.100,45.540,13.560,4.930,304.500,77.080,16.920,6.311,hard
1108.000,419.800,129.900,29.060,902.400,252.800,71.280,16.210,200.600,45.980,13.690,4.934,304.100,76.760,17.010,6.221,hard
1104.000,420.100,129.900,28.980,899.500,251.300,71.230,16.360,198.400,45.910,13.630,4.939,306.100,77.480,16.920,6.256,hard
1108.000,419.700,130.600,29.280,903.100,251.400,71.670,16.400,197.900,46.150,13.740,4.929,306.300,77.710,17.300,6.300,hard
1115.000,425.500,132.900,29.650,906.300,252.700,72.570,16.500,201.300,46.690,13.770,4.953,308.900,78.520,17.290,6.312,hard
1124.000,425.900,135.000,30.140,912.200,254.300,72.850,16.800,202.500,46.270,13.830,4.968,309.300,78.590,17.500,6.411,hard
1131.000,434.800,135.400,30.360,917.800,256.000,73.320,16.680,201.800,46.440,13.830,5.023,311.500,79.300,17.720,6.451,hard
1135.000,434.700,137.000,30.620,916.700,256.400,73.550,16.750,200.100,46.720,13.880,5.046,313.300,79.590,17.820,6.528,hard
1140.000,433.700,136.100,30.070,909.100,253.100,72.090,16.400,202.800,46.630,13.810,5.011,308.700,78.000,17.160,6.309,hard
1105.000,417.700,129.400,28.820,903.600,251.300,71.120,16.260,201.300,46.490,13.720,4.952,303.300,76.810,16.840,6.147,hard
1098.000,413.800,129.100,28.570,909.400,250.400,70.840,16.290,204.800,45.870,13.620,4.885,302.400,76.830,16.960,6.155,hard
1100.000,416.700,128.800,28.570,904.000,251.100,71.560,16.260,202.100,45.790,13.670,4.914,304.100,76.530,16.970,6.182,hard
1100.000,414.500,127.700,28.730,906.500,249.700,71.490,16.260,199.200,46.180,13.680,4.965,302.200,76.600,16.850,6.185,hard
1097.000,414.600,128.100,28.720,905.800,251.300,71.440,16.210,201.400,45.660,13.570,4.875,303.600,77.170,16.850,6.188,hard
1100.000,417.900,129.900,29.070,911.800,251.600,71.270,16.380,202.800,45.830,13.600,4.936,305.100,77.080,17.010,6.275,hard
1107.000,418.800,130.800,29.220,909.600,253.400,72.150,16.510,202.500,45.990,13.710,4.948,306.200,77.600,17.030,6.313,hard
1114.000,424.900,132.100,29.610,912.300,252.900,72.630,16.550,203.900,46.180,13.770,4.942,307.000,78.280,17.300,6.338,hard
1120.000,426.500,133.400,29.940,916.700,254.300,72.420,16.560,203.400,46.220,13.700,4.968,308.400,78.460,17.390,6.394,hard
1125.000,430.800,134.900,29.890,911.400,255.100,72.480,16.420,200.800,46.690,13.860,5.026,308.200,78.740,17.200,6.238,hard
1106.000,417.100,128.900,28.460,904.700,250.600,71.080,16.180,198.500,46.070,13.550,4.953,302.200,75.890,16.630,6.129,hard
1089.000,410.900,126.900,28.130,902.900,248.700,70.850,16.100,196.700,45.940,13.450,4.878,301.700,75.740,16.690,6.098,hard
1089.000,410.700,127.600,28.310,901.200,249.800,70.870,16.200,195.900,45.500,13.460,4.889,301.800,76.030,16.710,6.081,hard
1091.000,412.900,127.100,28.190,902.100,250.000,70.870,16.120,200.500,46.240,13.510,4.870,302.300,75.740,16.680,6.127,hard
1087.000,410.900,127.000,28.180,901.400,249.700,70.780,16.190,199.300,46.000,13.650,4.900,300.700,75.850,16.710,6.093,hard
1088.000,412.300,127.700,28.400,900.100,250.100,70.630,16.300,197.700,45.720,13.540,4.888,302.100,76.050,16.710,6.131,hard
1093.000,414.400,128.800,28.610,905.200,249.500,71.510,16.300,196.100,45.650,13.570,4.895,301.600,76.680,16.870,6.180,hard
1100.000,419.000,129.700,28.910,902.700,252.200,71.930,16.400,199.200,45.630,13.620,4.896,304.800,77.250,16.990,6.204,hard
1104.000,422.100,131.300,29.250,911.300,252.700,72.010,16.490,198.000,45.940,13.650,4.971,306.400,77.710,17.090,6.256,hard
1109.000,425.000,131.400,28.910,906.100,249.500,70.930,16.130,198.400,46.290,13.690,4.948,303.600,76.500,16.630,6.091,hard
1084.000,407.500,125.100,27.780,893.700,248.700,70.160,16.020,198.900,45.920,13.350,4.879,299.400,75.030,16.370,6.017,hard
1077.000,407.100,126.000,27.570,894.300,246.700,70.370,16.080,196.500,45.370,13.410,4.828,297.200,75.390,16.380,6.013,hard
1080.000,406.300,125.800,27.790,902.300,248.600,70.340,16.140,200.300,45.530,13.430,4.868,298.800,75.670,16.550,6.078,hard
1080.000,405.600,125.100,27.790,894.900,247.900,70.140,16.090,197.900,45.230,13.390,4.858,298.000,75.180,16.460,6.053,hard
1079.000,404.100,125.900,27.990,896.200,249.600,70.560,16.120,199.500,45.350,13.490,4.855,298.400,75.070,16.480,6.054,hard
1083.000,406.900,126.800,28.110,896.500,249.000,70.830,16.200,201.200,45.180,13.390,4.856,299.700,75.870,16.560,6.066,hard
1088.000,412.100,128.100,28.570,899.700,249.900,71.460,16.320,200.500,45.360,13.590,4.873,301.800,76.000,16.770,6.163,hard
1097.000,417.700,129.700,28.820,904.100,250.400,71.740,16.470,198.700,46.040,13.390,4.919,303.800,76.790,16.960,6.193,hard
1102.000,416.700,130.700,29.110,906.000,250.800,71.890,16.530,199.600,45.780,13.680,4.946,305.400,77.360,17.080,6.238,hard
1108.000,420.900,131.500,29.490,911.400,251.200,71.770,16.250,200.200,46.000,13.650,5.000,305.100,77.210,16.860,6.110,hard
1088.000,410.200,125.100,27.510,898.600,247.600,70.400,16.030,197.900,45.400,13.510,4.888,298.400,74.910,16.190,5.971,hard
1072.000,402.600,123.600,27.470,901.200,246.900,69.920,15.970,197.800,45.290,13.290,4.836,294.700,73.800,16.220,5.909,hard
1070.000,400.500,123.600,27.250,894.000,247.100,69.690,15.990,196.900,45.480,13.240,4.824,296.700,73.850,16.120,5.927,hard
1069.000,399.000,123.400,27.130,895.500,246.300,69.870,16.020,193.700,44.870,13.410,4.856,294.900,74.050,16.230,5.908,hard
1067.000,396.500,122.500,27.210,897.300,247.200,69.630,15.920,195.500,44.770,13.240,4.850,295.500,73.610,16.190,5.851,hard
1068.000,399.200,123.400,27.320,897.000,247.100,70.140,16.060,194.800,44.990,13.310,4.815,294.700,74.150,16.160,5.943,hard
1073.000,402.700,124.900,27.570,899.300,248.700,70.670,16.200,194.000,45.140,13.380,4.843,296.300,75.090,16.280,6.021,hard
1080.000,406.300,125.900,28.010,902.200,249.000,70.530,16.210,200.400,45.140,13.350,4.876,298.900,74.750,16.620,6.045,hard
1085.000,408.100,128.300,28.290,900.700,249.900,71.330,16.340,195.200,45.500,13.460,4.927,300.500,75.480,16.560,6.110,hard
1091.000,412.300,128.500,28.600,906.600,250.600,71.710,16.430,199.300,45.570,13.560,4.902,303.300,76.090,16.750,6.141,hard
1096.000,416.300,128.500,28.330,906.700,249.200,70.330,16.040,198.000,45.550,13.600,4.894,299.900,75.480,16.330,5.965,hard
1071.000,399.800,122.800,26.960,898.100,247.100,69.920,15.890,195.300,45.110,13.310,4.809,294.000,73.490,15.910,5.858,hard
1062.000,396.600,122.000,26.890,895.200,246.400,69.900,15.910,194.900,44.410,13.220,4.771,292.600,72.880,15.950,5.823,hard
1061.000,393.200,122.100,27.070,891.300,244.700,69.600,16.020,190.500,45.030,13.160,4.797,291.800,73.450,16.100,5.870,hard
1060.000,393.900,121.200,26.780,896.800,246.100,69.800,16.060,193.500,44.740,13.230,4.798,292.100,72.840,15.910,5.859,hard
1059.000,393.300,121.400,26.850,894.800,245.000,69.550,15.910,195.700,44.970,13.100,4.831,293.400,73.030,15.880,5.868,hard
1061.000,395.200,122.600,27.130,896.300,247.400,70.070,16.060,189.700,44.920,13.320,4.815,294.800,73.710,16.060,5.917,hard
1069.000,401.500,124.100,27.420,897.100,248.400,70.410,16.140,198.800,44.650,13.270,4.852,295.200,74.200,16.190,5.936,hard
1075.000,402.300,125.100,27.670,905.900,247.600,70.780,16.280,198.600,45.160,13.430,4.848,297.000,74.550,16.280,5.956,hard
1080.000,405.000,126.300,28.020,904.700,249.900,70.820,16.350,198.200,45.350,13.370,4.840,297.300,75.070,16.430,6.013,hard
1084.000,412.900,127.200,28.330,907.600,250.200,71.430,16.400,196.600,45.330,13.390,4.854,299.000,75.660,16.790,6.055,hard
1091.000,412.700,128.000,28.480,913.400,251.500,71.380,16.340,195.000,45.790,13.480,4.906,300.900,75.910,16.690,6.022,hard
1077.000,401.300,122.700,27.200,900.300,246.900,70.260,16.020,197.400,45.480,13.380,4.820,295.300,73.200,16.000,5.808,hard
1063.000,393.800,121.700,26.840,898.900,247.100,69.830,16.000,191.800,44.520,13.230,4.850,293.300,73.100,15.940,5.838,hard
1061.000,395.700,122.700,26.960,896.900,246.600,70.030,16.150,192.800,44.920,13.170,4.837,293.100,73.300,16.010,5.852,hard
1064.000,395.200,121.600,26.870,904.000,246.700,70.130,16.010,195.600,44.910,13.210,4.818,292.500,73.260,15.950,5.810,hard
1062.000,397.100,121.800,26.870,904.300,247.600,70.100,16.030,193.500,44.790,13.280,4.799,294.400,73.710,15.890,5.801,hard
1064.000,397.200,122.500,27.170,904.500,247.200,70.550,16.180,190.800,44.240,13.250,4.817,292.600,73.910,16.080,5.927,hard
1070.000,398.800,123.800,27.490,905.100,249.900,70.780,16.280,196.600,44.890,13.240,4.912,295.800,73.870,16.250,5.913,hard
1077.000,406.100,125.500,27.810,904.400,250.400,70.820,16.310,194.200,44.560,13.330,4.842,297.100,74.570,16.310,5.976,hard
1082.000,406.600,125.800,28.130,908.100,250.600,71.410,16.500,193.900,45.060,13.390,4.850,298.400,74.930,16.510,6.023,hard
1088.000,409.700,127.600,28.250,913.100,251.900,72.060,16.520,199.900,45.640,13.330,4.906,301.000,75.400,16.570,6.113,hard
1093.000,410.200,126.300,27.970,909.200,249.700,70.640,16.110,199.200,45.350,13.440,4.902,298.800,74.340,16.040,5.922,hard
1065.000,394.800,121.400,26.770,901.000,246.300,70.020,15.970,195.100,44.830,13.340,4.824,291.300,72.820,15.800,5.778,hard
1061.000,393.000,120.600,26.630,898.800,246.400,69.980,16.000,193.800,44.250,13.070,4.785,291.100,72.510,15.790,5.779,hard
1060.000,393.100,121.100,26.770,898.400,247.000,70.200,16.050,194.400,44.050,13.200,4.805,291.700,72.000,15.620,5.790,hard
1059.000,389.500,120.500,26.460,905.900,245.800,69.930,15.970,196.700,44.090,13.190,4.787,289.800,72.070,15.620,5.766,hard
1058.000,392.800,120.500,26.690,902.000,246.400,69.830,16.120,191.500,44.630,13.140,4.760,290.200,72.980,15.720,5.782,hard
1062.000,391.700,121.200,26.930,904.100,247.900,70.520,16.160,194.000,44.350,13.190,4.825,291.900,72.980,16.020,5.869,hard
1067.000,398.100,123.100,27.250,904.000,249.500,70.640,16.250,194.200,44.640,13.270,4.805,294.400,73.860,16.160,5.925,hard
1074.000,398.800,124.300,27.540,906.900,250.200,71.180,16.310,193.500,44.740,13.320,4.880,295.600,73.890,16.240,5.950,hard
1079.000,402.300,125.100,27.830,909.200,250.200,71.930,16.420,196.700,44.540,13.290,4.911,297.700,74.660,16.310,5.990,hard
1085.000,407.700,126.200,28.080,915.400,251.400,72.160,16.550,197.900,45.070,13.410,4.899,298.800,75.310,16.450,6.068,hard
1093.000,412.400,127.900,28.370,917.000,252.800,71.950,16.470,196.200,45.530,13.490,4.893,301.000,75.640,16.440,6.038,hard
1082.000,400.700,123.000,27.040,909.600,248.300,70.650,16.120,200.700,45.230,13.260,4.842,293.400,73.630,15.920,5.812,hard
1066.000,392.600,120.300,26.730,905.400,248.600,70.560,16.140,192.200,44.840,13.270,4.815,289.100,72.860,15.670,5.834,hard
1064.000,394.200,120.400,26.740,905.700,248.100,70.380,16.090,188.400,44.200,13.200,4.767,290.600,72.720,15.790,5.804,hard
1065.000,392.900,120.800,26.790,904.900,248.100,70.340,16.190,197.400,44.860,13.180,4.863,291.400,72.250,15.840,5.811,hard
1065.000,391.500,121.000,26.680,904.800,249.400,70.530,16.130,192.500,44.250,13.100,4.810,290.500,72.660,15.870,5.802,hard
1065.000,393.100,121.700,26.800,902.500,248.100,70.640,16.220,190.500,44.800,13.180,4.829,291.800,72.990,15.850,5.911,hard
1072.000,397.300,123.200,27.280,911.100,250.600,70.950,16.200,193.400,44.680,13.310,4.837,294.600,73.740,16.140,5.919,hard
1077.000,400.600,123.300,27.460,906.500,251.100,71.350,16.440,196.900,44.960,13.420,4.830,295.500,73.790,16.410,5.930,hard
1082.000,400.700,124.700,27.770,919.800,252.400,72.020,16.450,195.000,44.750,13.470,4.899,296.500,74.380,16.310,6.028,hard
1087.000,405.500,126.600,28.140,918.800,253.200,72.240,16.540,196.700,45.160,13.420,4.910,299.500,74.790,16.450,6.043,hard
1093.000,410.600,127.000,28.060,913.100,252.500,72.000,16.360,198.800,45.250,13.500,4.909,299.400,74.570,16.380,5.966,hard
1076.000,397.800,122.000,26.920,908.300,249.700,71.020,16.260,196.400,44.580,13.330,4.860,293.700,73.280,15.900,5.867,hard
1070.000,393.400,120.500,26.830,913.600,249.300,70.920,16.270,192.200,44.360,13.110,4.839,293.400,72.840,15.960,5.851,hard
1072.000,394.900,121.100,27.170,917.100,251.200,71.270,16.330,195.300,44.470,13.220,4.839,293.400,73.020,15.950,5.908,hard
1074.000,396.600,121.900,27.000,913.700,250.500,70.980,16.350,189.300,44.490,13.330,4.803,292.900,73.270,16.130,5.908,hard
1073.000,396.500,121.600,26.950,914.200,250.900,70.920,16.450,193.600,44.360,13.280,4.844,292.900,73.550,16.130,5.921,hard
1078.000,397.900,123.200,27.420,916.200,253.000,71.700,16.430,193.400,44.870,13.410,4.841,296.300,73.480,16.300,5.955,hard
1084.000,400.500,124.800,27.820,918.500,253.600,71.840,16.580,198.100,44.940,13.290,4.872,297.400,75.010,16.450,6.047,hard
1091.000,405.600,126.400,28.080,915.500,253.800,72.380,16.620,197.000,45.090,13.490,4.916,298.900,75.430,16.610,6.093,hard
1096.000,410.000,127.300,28.280,921.200,255.700,72.950,16.770,197.400,45.380,13.520,4.964,301.200,75.350,16.710,6.117,hard
1102.000,411.500,128.800,28.580,922.800,256.700,72.940,16.860,201.000,45.800,13.520,4.949,303.400,75.960,16.800,6.222,hard
1107.000,415.200,129.600,28.870,922.700,256.400,73.070,16.730,196.400,45.970,13.600,4.963,304.000,76.380,16.570,6.224,hard
1094.000,405.200,123.400,27.450,917.400,253.900,71.930,16.360,200.200,45.310,13.460,4.848,297.100,74.400,16.080,5.933,hard
1079.000,397.000,122.000,27.180,914.600,252.600,71.230,16.360,194.400,44.840,13.340,4.880,295.100,73.240,16.040,5.997,hard
1077.000,396.300,122.200,26.960,922.000,252.300,71.540,16.400,194.200,44.600,13.260,4.843,293.200,73.450,16.050,5.962,hard
1079.000,397.400,122.300,27.040,916.600,252.400,71.400,16.420,195.100,44.730,13.370,4.826,294.700,73.480,16.210,5.925,hard
1078.000,396.100,121.100,27.030,911.200,252.300,71.470,16.400,196.400,44.980,13.310,4.860,294.500,73.570,16.190,5.986,hard
1080.000,396.400,122.900,27.250,917.800,253.100,71.760,16.460,196.100,44.500,13.320,4.851,297.600,73.870,16.220,6.032,hard
1085.000,399.400,124.400,27.510,919.700,254.200,72.190,16.600,196.800,45.020,13.470,4.865,297.600,74.300,16.370,6.092,hard
1091.000,404.800,125.800,27.820,921.000,255.000,72.730,16.690,196.800,45.590,13.470,4.917,300.600,75.040,16.670,6.103,hard
1095.000,406.800,126.600,28.280,924.300,256.500,72.840,16.860,199.000,45.500,13.530,4.913,302.200,75.530,16.660,6.182,hard
1101.000,410.500,127.700,28.540,924.500,258.100,73.440,16.870,195.700,45.500,13.660,4.959,304.200,76.140,16.860,6.244,hard
1107.000,413.400,130.100,28.720,927.100,259.400,73.820,17.040,198.700,45.680,13.720,4.964,305.800,76.670,16.850,6.284,hard
1113.000,415.400,129.200,28.560,926.200,258.000,72.950,16.630,203.800,46.250,13.600,4.935,303.500,75.890,16.650,6.147,hard
1088.000,400.400,122.900,27.340,919.300,254.600,71.960,16.500,202.200,45.580,13.470,4.915,296.900,74.830,16.230,5.971,hard
1082.000,396.100,122.800,27.170,918.500,254.100,72.020,16.540,200.300,44.900,13.420,4.883,296.500,73.930,16.370,6.037,hard
1082.000,399.900,123.200,27.190,916.000,254.200,71.880,16.530,194.700,45.470,13.330,4.856,296.500,74.060,16.330,6.047,hard
1082.000,399.800,123.100,27.210,921.100,253.200,72.030,16.580,195.600,45.060,13.400,4.919,297.900,74.250,16.510,6.077,hard
1082.000,399.300,123.400,27.270,922.000,254.300,72.300,16.600,194.400,45.490,13.450,4.868,298.700,74.400,16.410,6.048,hard
1084.000,401.500,123.800,27.530,922.400,256.100,72.590,16.720,193.500,45.430,13.490,4.906,298.900,74.870,16.600,6.103,hard
1089.000,403.100,125.300,27.880,922.200,256.300,72.800,16.710,194.200,45.430,13.470,4.923,301.300,75.800,16.590,6.188,hard
1095.000,405.400,126.500,28.100,927.600,257.200,73.310,16.780,199.600,45.420,13.520,4.947,302.100,75.540,16.900,6.186,hard
1097.000,407.900,126.600,28.410,925.300,257.800,73.370,16.920,198.800,45.900,13.640,4.985,305.000,76.720,16.880,6.304,hard
1103.000,415.200,128.700,28.540,927.500,259.500,73.950,16.900,200.700,45.990,13.760,4.962,307.000,76.680,16.810,6.272,hard
1100.000,408.000,124.200,27.740,921.900,256.200,72.180,16.600,199.200,45.650,13.520,4.921,301.100,74.780,16.390,6.069,hard
1081.000,398.400,122.000,27.240,918.800,255.700,72.720,16.570,198.600,45.000,13.330,4.902,298.000,74.840,16.370,6.035,hard
1081.000,400.100,122.600,27.230,917.000,255.000,72.280,16.590,195.400,45.560,13.440,4.895,299.400,74.760,16.430,6.047,hard
1084.000,399.700,123.300,27.420,919.200,255.400,72.550,16.670,198.000,45.110,13.480,4.885,299.100,74.880,16.520,6.079,hard
1081.000,401.400,122.700,27.340,917.100,255.700,72.450,16.750,195.800,45.320,13.370,4.930,299.200,74.520,16.530,6.113,hard
1083.000,400.900,123.500,27.440,922.300,255.800,72.620,16.700,197.000,45.160,13.520,4.909,299.900,75.460,16.460,6.175,hard
1089.000,403.900,124.400,27.940,922.500,256.200,73.060,16.770,203.500,45.510,13.390,4.928,303.000,75.660,16.860,6.207,hard
1093.000,406.500,126.500,28.180,922.900,259.100,73.210,16.910,196.100,45.490,13.610,4.961,303.900,76.850,16.770,6.226,hard
1099.000,412.200,127.100,28.540,923.500,260.300,73.590,17.040,199.700,46.000,13.740,4.982,307.000,76.960,16.950,6.251,hard
1103.000,414.300,128.500,28.720,929.900,259.700,74.050,17.080,201.700,45.850,13.680,5.015,308.900,77.350,17.210,6.336,hard
1111.000,419.000,130.600,29.090,937.700,261.600,74.510,17.210,201.200,46.610,13.710,5.044,309.500,77.980,17.290,6.360,hard
1109.000,412.600,126.800,28.160,925.600,258.300,73.140,16.700,197.000,46.140,13.680,4.953,306.100,75.920,16.850,6.115,hard
1086.000,399.700,123.400,27.340,924.900,255.700,72.230,16.760,201.000,45.700,13.380,4.912,301.000,74.460,16.730,6.104,hard
1082.000,398.000,122.200,27.300,925.200,255.800,72.380,16.690,195.500,45.620,13.530,4.903,301.300,75.110,16.430,6.151,hard
1081.000,397.500,123.100,27.480,928.700,255.800,72.590,16.660,197.400,45.480,13.590,4.970,300.500,75.610,16.610,6.186,hard
1081.000,399.900,122.500,27.400,921.800,256.300,72.700,16.730,200.500,45.840,13.410,4.908,301.800,75.070,16.570,6.145,hard
1083.000,402.000,123.400,27.560,922.900,257.300,73.250,16.770,201.400,45.430,13.580,4.912,302.600,75.580,16.720,6.185,hard
1087.000,403.500,124.200,27.770,925.200,257.600,73.270,16.890,200.600,45.920,13.540,4.926,303.600,76.250,16.830,6.242,hard
1093.000,408.300,125.700,28.180,930.500,259.300,73.790,16.910,196.300,45.610,13.540,4.995,306.500,76.960,17.040,6.281,hard
1097.000,408.100,127.200,28.430,933.000,259.300,73.700,17.090,202.200,46.090,13.700,4.991,309.600,77.220,17.150,6.430,hard
1104.000,413.000,128.100,28.710,932.900,261.200,74.370,17.080,200.300,46.640,13.770,5.056,310.200,77.710,17.340,6.391,hard
1108.000,414.800,129.800,29.070,932.700,262.100,74.730,17.260,199.300,46.570,13.850,5.043,310.800,78.510,17.600,6.484,hard
1114.000,419.300,129.600,28.840,935.800,260.800,73.860,16.840,200.900,46.440,13.790,5.007,309.000,77.480,17.160,6.268,hard
1091.000,403.200,124.300,27.600,923.800,258.400,73.120,16.810,199.500,46.200,13.630,4.965,304.400,75.580,16.800,6.256,hard
1087.000,401.300,123.000,27.580,931.200,257.300,73.110,16.710,199.300,45.170,13.540,4.925,303.500,75.620,16.680,6.161,hard
1085.000,402.100,123.500,27.590,929.600,259.000,73.200,16.800,197.500,46.170,13.670,4.965,304.800,75.900,16.830,6.212,hard
1085.000,402.700,122.900,27.710,925.600,258.400,73.170,16.730,200.400,45.280,13.610,4.912,303.300,75.940,16.730,6.192,hard
1085.000,402.100,123.900,27.710,927.400,259.200,73.100,16.850,199.700,45.560,13.560,4.993,303.000,75.740,16.780,6.288,hard
1088.000,404.000,123.800,27.910,932.000,258.900,73.570,17.020,199.900,45.910,13.700,4.944,306.300,76.310,16.930,6.312,hard
1095.000,407.600,125.200,28.130,935.800,259.200,73.890,16.990,201.600,46.320,13.580,5.014,308.000,77.500,16.900,6.335,hard
1098.000,410.700,127.000,28.530,933.300,262.000,74.530,17.140,197.200,45.950,13.740,5.020,310.500,77.730,17.350,6.369,hard
1102.000,412.600,128.100,28.820,935.100,260.800,74.630,17.230,201.800,46.400,13.890,5.035,311.000,78.120,17.530,6.468,hard
1109.000,416.000,129.200,28.940,936.000,262.300,74.770,17.090,202.200,47.000,13.770,5.024,311.700,77.580,17.440,6.378,hard
1097.000,404.600,124.600,27.660,930.300,259.300,73.640,16.810,203.100,45.960,13.720,4.955,306.500,76.250,16.740,6.204,hard
1084.000,401.100,122.400,27.560,926.900,258.500,73.230,16.740,197.300,45.640,13.630,4.903,304.600,76.350,16.800,6.251,hard
1086.000,402.700,122.600,27.720,925.600,258.400,73.430,16.770,196.800,45.690,13.590,4.919,304.300,76.220,16.770,6.241,hard
1089.000,403.900,123.200,27.640,925.400,258.900,73.350,16.790,202.700,45.750,13.640,4.940,305.200,76.480,16.710,6.211,hard
1087.000,402.000,122.900,27.690,932.500,258.700,73.580,16.870,199.200,45.680,13.530,4.962,305.900,76.060,16.870,6.296,hard
1090.000,403.700,124.700,27.910,932.900,260.200,73.970,17.080,197.000,45.820,13.490,4.979,307.300,76.580,17.160,6.363,hard
1094.000,404.800,126.400,28.340,936.500,261.000,74.540,17.170,200.300,45.810,13.620,4.981,308.900,77.150,17.170,6.390,hard
1101.000,408.900,127.300,28.510,940.600,261.700,74.520,17.150,197.900,46.070,13.710,5.030,311.200,78.380,17.340,6.417,hard
1106.000,415.300,127.900,28.910,939.000,262.800,75.460,17.300,200.600,46.210,13.730,5.029,314.000,78.680,17.530,6.506,hard
1111.000,416.400,130.700,29.320,941.900,263.400,75.250,17.360,202.800,46.810,13.980,5.100,314.300,79.130,17.610,6.522,hard
1117.000,423.200,131.100,29.530,941.700,265.300,75.230,17.360,203.600,47.100,13.990,5.089,316.300,79.430,17.670,6.527,hard
1113.000,415.600,126.800,28.230,937.600,260.600,74.030,16.950,208.300,46.550,13.830,5.016,308.200,77.210,17.080,6.243,hard
1089.000,401.100,123.400,27.690,933.200,260.800,73.990,16.980,195.800,45.640,13.600,4.953,307.400,76.320,17.000,6.237,hard
1089.000,399.700,122.700,27.750,935.100,260.100,73.690,16.980,198.700,45.470,13.640,4.887,307.400,76.930,16.830,6.266,hard
1091.000,401.200,123.800,27.810,931.200,259.700,73.550,16.870,202.100,46.150,13.530,4.957,307.300,76.640,17.060,6.312,hard
1089.000,402.100,122.900,27.730,938.100,259.700,73.430,16.990,200.900,45.830,13.710,4.978,305.700,77.050,16.990,6.272,hard
1091.000,404.600,123.200,27.910,934.300,260.100,74.230,17.050,202.200,45.880,13.730,4.928,306.800,76.760,17.140,6.373,hard
1093.000,407.100,125.700,28.340,940.700,263.600,74.400,17.170,199.400,46.550,13.710,5.009,308.500,77.370,17.260,6.361,hard
1100.000,410.400,126.700,28.640,937.300,262.000,74.640,17.270,202.100,46.440,13.920,4.987,311.800,78.110,17.390,6.455,hard
1107.000,417.000,128.100,28.910,938.300,263.800,75.230,17.300,203.800,46.250,13.900,5.020,312.300,78.850,17.670,6.441,hard
1111.000,417.400,130.000,29.360,941.900,265.100,76.030,17.500,207.000,46.930,13.930,5.078,312.800,79.350,17.700,6.521,hard
1117.000,419.900,130.800,29.570,943.300,265.300,76.200,17.590,200.800,47.030,13.840,5.089,316.300,79.940,17.790,6.559,hard
1122.000,418.300,130.200,28.900,943.700,263.000,74.790,17.110,202.200,46.710,13.930,5.097,312.500,78.270,17.240,6.327,hard
1095.000,403.400,124.500,27.930,934.400,261.000,73.910,16.980,202.900,46.390,13.770,4.964,308.000,76.760,17.130,6.311,hard
1092.000,402.200,123.800,27.940,935.700,261.100,74.040,17.010,199.600,46.030,13.760,5.009,308.000,77.220,17.080,6.321,hard
1094.000,406.900,124.700,28.120,938.200,261.500,74.620,17.050,195.500,46.320,13.650,4.965,307.900,77.320,17.010,6.328,hard
1095.000,403.400,123.800,27.830,933.200,261.200,74.420,17.090,200.000,45.590,13.670,4.951,308.100,77.380,17.020,6.336,hard
1094.000,406.600,124.600,28.140,936.500,262.100,74.220,17.160,196.500,46.080,13.760,5.009,308.300,77.580,17.120,6.396,hard
1097.000,406.600,125.400,28.430,946.300,262.800,74.810,17.260,199.900,46.440,13.750,4.983,310.100,77.960,17.380,6.430,hard
1105.000,412.000,126.400,28.720,940.400,264.800,75.050,17.430,202.700,46.220,13.790,5.062,312.500,78.800,17.610,6.453,hard
1110.000,413.800,128.100,28.700,944.100,264.000,75.750,17.400,200.200,46.430,14.010,5.064,313.800,79.100,17.590,6.499,hard
1115.000,417.300,129.300,29.210,947.800,265.100,76.150,17.520,200.700,47.060,14.060,5.088,315.600,79.540,17.810,6.634,hard
1121.000,419.800,131.400,29.600,950.000,265.400,76.140,17.480,205.900,47.500,13.900,5.100,318.600,80.170,17.640,6.568,hard
1112.000,413.200,126.500,28.370,944.700,263.000,74.860,17.160,199.900,46.510,13.810,4.998,311.500,77.650,17.220,6.381,hard
1095.000,403.100,124.100,27.840,939.000,262.500,74.340,16.990,201.700,46.070,13.710,4.978,308.700,77.470,17.100,6.363,hard
1096.000,402.800,124.400,27.970,938.900,261.300,74.670,17.050,199.600,46.330,13.660,4.987,309.600,77.760,17.150,6.376,hard
1098.000,405.700,124.700,28.140,943.200,262.900,74.480,17.130,203.300,46.230,13.760,5.013,308.600,77.610,17.240,6.329,hard
1096.000,403.900,125.000,28.000,945.500,262.200,74.820,17.230,198.000,45.450,13.710,5.026,309.800,77.570,17.170,6.360,hard
1099.000,406.400,124.800,28.280,938.600,262.300,75.310,17.180,199.300,46.640,13.840,4.994,311.400,77.740,17.310,6.416,hard
1104.000,408.300,126.900,28.660,949.100,263.400,75.400,17.270,199.300,46.370,13.760,5.021,311.300,78.610,17.510,6.478,hard
1111.000,411.500,128.300,28.760,948.100,265.900,75.800,17.530,199.200,46.920,13.970,5.065,313.300,79.430,17.650,6.524,hard
1118.000,415.300,129.600,29.270,951.100,265.700,76.360,17.610,200.100,46.940,13.980,5.108,316.400,79.650,17.640,6.592,hard
1123.000,420.000,131.000,29.490,951.800,267.800,76.940,17.660,202.300,46.910,14.000,5.075,317.700,80.520,17.980,6.644,hard
1130.000,422.800,132.100,29.960,954.900,269.200,77.190,17.700,205.200,47.350,14.080,5.183,319.100,80.030,17.910,6.707,hard
1129.000,420.600,129.500,29.000,949.900,264.000,75.250,17.230,203.600,46.970,13.990,5.076,316.900,78.880,17.450,6.431,hard
1104.000,403.100,125.100,28.200,945.000,265.500,75.060,17.170,203.000,46.550,13.760,5.049,311.300,77.900,17.230,6.365,hard
1103.000,406.200,124.700,28.280,948.300,263.100,75.480,17.260,206.300,46.450,13.770,4.985,310.600,77.980,17.330,6.451,hard
1106.000,406.600,125.300,28.400,944.200,264.900,75.430,17.300,200.400,46.670,13.850,5.030,311.200,78.590,17.440,6.481,hard
1105.000,406.700,125.000,28.420,940.900,263.700,75.540,17.250,202.400,46.380,13.790,5.001,312.300,78.380,17.400,6.442,hard
1106.000,408.800,126.000,28.480,948.500,265.300,75.600,17.360,202.500,46.600,13.860,5.065,313.300,78.720,17.460,6.545,hard
1111.000,412.800,128.100,28.710,946.100,266.900,76.070,17.460,198.100,46.620,13.930,5.081,314.300,79.460,17.830,6.539,hard
1117.000,414.900,128.700,29.180,953.000,266.800,76.260,17.590,203.500,46.680,14.070,5.092,317.700,79.740,17.830,6.615,hard
1121.000,419.800,130.100,29.550,957.700,266.500,76.470,17.710,200.400,46.720,14.040,5.073,318.600,80.360,18.010,6.703,hard
1126.000,421.000,131.400,29.880,957.600,269.000,77.130,17.830,204.000,47.200,14.130,5.174,319.700,80.590,18.210,6.766,hard
1134.000,425.500,133.900,29.990,960.800,270.000,77.640,17.880,204.500,47.560,14.140,5.105,320.700,81.550,18.060,6.724,hard
1140.000,428.800,134.500,30.330,959.300,270.900,77.340,17.730,203.300,47.590,14.210,5.168,323.600,81.260,18.090,6.684,hard
1125.000,417.400,128.300,28.900,957.000,267.800,76.140,17.440,205.400,47.020,13.910,5.036,315.400,79.000,17.540,6.548,hard
1111.000,411.500,126.400,28.640,953.200,266.400,75.500,17.460,204.000,47.010,13.810,5.074,314.300,79.020,17.550,6.514,hard
1113.000,411.100,127.000,28.820,951.100,266.500,76.060,17.490,201.600,46.720,13.930,5.051,315.400,79.590,17.590,6.572,hard
1116.000,410.300,127.300,28.750,952.700,265.900,76.250,17.450,199.600,46.750,13.980,5.046,315.600,79.260,17.610,6.566,hard
1114.000,410.900,126.800,28.830,952.500,266.600,76.040,17.440,201.500,46.740,13.870,5.046,317.500,79.550,17.640,6.518,hard
1116.000,415.500,128.200,28.950,950.100,268.100,76.600,17.580,201.700,46.790,13.920,5.094,317.700,79.860,17.760,6.571,hard
1123.000,418.200,129.900,29.220,955.900,268.200,76.990,17.770,204.600,46.820,14.050,5.069,318.800,80.560,17.950,6.667,hard
1129.000,423.600,132.000,29.670,953.600,269.000,77.270,17.810,203.300,46.950,14.110,5.080,320.400,80.970,18.040,6.666,hard
1133.000,425.100,132.300,30.020,960.000,270.600,77.480,17.930,203.000,47.450,14.110,5.101,322.100,81.220,18.260,6.777,hard
1138.000,425.100,134.000,30.230,959.000,271.500,78.210,18.060,206.200,47.180,14.250,5.125,325.700,82.200,18.450,6.840,hard
1144.000,430.400,133.800,30.200,962.500,270.500,77.020,17.670,208.500,47.800,14.180,5.145,323.300,81.250,18.010,6.673,hard
1122.000,414.400,128.700,28.830,955.100,268.300,76.230,17.510,207.800,47.070,13.990,5.052,317.800,80.020,17.690,6.560,hard
1116.000,410.100,127.300,28.790,953.200,267.600,76.110,17.460,202.800,46.940,13.980,5.063,317.300,79.500,17.680,6.594,hard
1118.000,415.900,127.700,29.020,951.900,266.600,76.730,17.480,202.300,46.880,13.970,5.078,318.300,79.890,17.930,6.632,hard
1120.000,414.900,128.700,28.840,958.300,268.600,76.250,17.590,201.600,46.920,14.020,5.080,316.600,79.520,17.670,6.620,hard
1119.000,412.400,128.100,29.140,952.700,268.000,76.440,17.590,202.300,47.040,14.010,5.101,317.000,79.860,17.840,6.583,hard
1123.000,418.200,128.900,29.370,957.600,268.900,77.360,17.740,200.000,46.960,14.000,5.068,318.800,80.640,18.060,6.707,hard
1127.000,420.700,131.000,29.810,961.100,270.900,77.380,17.850,203.300,47.410,14.080,5.115,320.500,81.030,18.000,6.740,hard
1136.000,425.200,132.000,29.900,962.600,270.500,77.940,18.050,205.400,47.430,14.200,5.122,324.000,81.860,18.340,6.805,hard
1140.000,429.300,134.200,30.280,965.700,273.000,78.520,18.060,203.100,47.600,14.160,5.152,325.500,82.590,18.480,6.831,hard
1146.000,429.400,134.900,30.590,965.400,273.600,78.250,18.150,203.100,47.670,14.300,5.155,326.100,82.680,18.440,6.888,hard
1152.000,436.400,137.000,30.980,965.000,274.300,79.260,18.260,209.500,48.220,14.370,5.210,328.400,83.800,18.550,6.975,hard
1153.000,434.300,134.700,30.180,963.500,271.500,77.350,17.750,203.500,47.820,14.240,5.175,323.200,82.210,18.060,6.732,hard
1125.000,416.200,128.200,29.250,957.800,269.000,76.870,17.740,205.000,47.360,14.000,5.085,318.600,80.470,17.780,6.686,hard
1123.000,416.200,128.700,29.080,956.200,269.600,77.190,17.760,205.000,47.360,13.980,5.097,320.000,80.750,17.910,6.706,hard
1125.000,417.500,130.000,29.400,958.400,269.800,77.050,17.700,206.600,47.490,14.080,5.098,320.400,80.740,17.970,6.651,hard
1125.000,417.100,129.000,29.360,959.200,268.700,77.180,17.750,201.200,47.460,14.020,5.110,320.300,80.640,18.000,6.720,hard
1124.000,420.100,129.500,29.280,957.800,270.400,77.140,17.740,204.300,47.130,13.960,5.099,320.000,80.770,17.920,6.737,hard
1128.000,420.900,131.200,29.820,962.100,270.300,77.730,17.860,206.300,47.720,14.060,5.126,321.700,81.380,18.170,6.752,hard
1135.000,424.200,132.200,30.160,964.300,272.100,78.390,18.020,206.100,47.820,14.120,5.154,325.100,82.010,18.430,6.831,hard
1141.000,429.400,134.400,30.470,963.700,273.300,78.570,18.080,203.600,48.050,14.150,5.172,325.800,82.950,18.630,6.912,hard
1149.000,430.700,136.300,30.890,967.500,274.300,79.190,18.300,209.200,47.720,14.280,5.160,326.200,83.670,18.610,6.914,hard
1154.000,436.400,136.800,31.150,971.000,274.700,79.320,18.370,207.600,47.990,14.310,5.191,327.100,83.770,18.950,6.981,hard
1159.000,438.800,138.400,31.490,971.800,276.200,79.320,18.070,206.900,47.650,14.340,5.203,329.400,83.820,18.730,6.954,hard
1146.000,426.700,133.000,29.640,960.700,270.500,77.540,17.770,208.600,47.440,14.210,5.090,322.600,81.240,18.240,6.695,hard
1128.000,419.000,130.400,29.590,963.100,270.900,77.670,17.850,204.800,47.220,14.100,5.058,320.500,81.320,18.070,6.726,hard
1130.000,422.100,130.700,29.510,961.000,272.100,77.840,17.750,206.700,46.860,14.010,5.111,324.000,81.530,18.130,6.776,hard
1133.000,423.600,130.300,29.580,960.100,272.500,77.920,17.830,205.400,47.230,14.060,5.089,323.300,81.140,18.230,6.744,hard
1131.000,421.200,130.300,29.750,963.200,270.600,77.730,17.860,206.100,47.070,14.130,5.082,323.700,80.850,18.170,6.763,hard
1133.000,421.800,131.500,29.700,962.500,272.400,77.950,17.940,205.900,47.130,14.150,5.108,321.800,81.860,18.420,6.773,hard
1137.000,426.900,132.800,30.170,963.300,273.700,78.950,18.060,207.300,47.450,14.090,5.115,325.500,82.530,18.410,6.884,hard
1144.000,431.200,134.200,30.610,968.700,274.300,78.500,18.240,207.800,47.620,14.200,5.125,326.000,82.860,18.560,6.877,hard
1150.000,434.100,136.100,30.840,974.800,274.400,79.110,18.270,211.000,47.570,14.270,5.160,327.900,83.290,18.580,6.964,hard
1156.000,436.500,137.500,31.130,974.600,275.800,79.390,18.390,205.700,47.740,14.310,5.185,329.900,83.830,18.850,7.044,hard
1162.000,441.200,139.000,31.270,972.600,276.700,78.980,18.090,207.900,48.310,14.180,5.171,329.100,83.620,18.670,6.908,hard
1142.000,427.000,132.100,29.660,957.100,272.400,77.900,17.840,203.500,47.640,14.130,5.100,322.300,81.480,18.350,6.707,hard
1130.000,420.500,131.000,29.490,964.000,270.900,77.310,17.820,205.300,47.050,14.150,5.069,323.500,81.320,18.230,6.761,hard
1132.000,420.600,131.400,29.820,959.900,271.900,77.990,17.970,205.100,47.670,14.090,5.095,323.300,81.880,18.110,6.789,hard
1135.000,423.700,131.600,29.860,961.000,273.100,77.990,17.880,205.000,47.120,14.030,5.071,322.300,82.180,18.220,6.773,hard
1132.000,422.400,131.700,29.720,962.300,271.900,77.920,17.990,204.000,46.850,14.060,5.087,323.100,81.550,18.430,6.764,hard
1134.000,426.000,131.700,29.910,961.500,273.200,78.150,18.080,205.900,47.190,14.080,5.095,323.700,82.640,18.430,6.892,hard
1142.000,431.900,133.900,30.450,966.200,273.600,78.650,18.110,205.700,47.170,14.150,5.142,326.900,82.900,18.490,6.927,hard
1148.000,434.600,135.500,30.840,969.600,275.400,79.390,18.250,207.700,47.460,14.340,5.145,327.700,83.190,18.840,6.956,hard
1155.000,438.400,136.300,31.220,972.300,276.600,79.710,18.360,209.600,47.900,14.250,5.173,328.300,84.030,18.820,6.994,hard
1160.000,440.100,138.400,31.350,974.600,277.300,79.920,18.500,210.900,48.370,14.390,5.159,329.900,84.010,19.090,7.036,hard
1166.000,441.700,138.900,31.390,966.900,277.300,79.520,18.070,208.300,48.140,14.370,5.182,328.300,83.360,18.820,6.971,hard
1142.000,425.500,132.900,29.730,959.300,273.100,77.970,17.920,209.700,47.560,14.170,5.095,324.700,81.890,18.300,6.729,hard
1132.000,423.200,130.800,29.630,963.300,272.600,77.930,17.920,206.800,47.250,14.090,5.090,324.000,81.590,18.190,6.768,hard
1135.000,423.000,131.400,29.810,958.700,271.900,78.060,17.930,209.300,47.330,14.060,5.107,323.800,81.940,18.160,6.817,hard
1136.000,425.100,132.500,29.830,962.800,273.000,77.870,18.000,205.200,47.600,13.980,5.079,322.100,82.120,18.310,6.772,hard
1135.000,424.100,131.300,29.960,964.500,272.800,78.070,17.900,205.600,46.940,14.140,5.106,323.200,81.710,18.180,6.799,hard
1137.000,427.500,133.400,30.280,962.200,273.500,78.650,18.100,202.200,47.610,14.140,5.107,323.800,82.330,18.430,6.816,hard
1143.000,431.900,134.700,30.490,970.600,274.900,79.020,18.150,205.900,47.540,14.190,5.126,325.800,82.340,18.560,6.894,hard
1149.000,435.700,136.100,30.850,970.500,275.800,79.510,18.330,207.400,47.720,14.180,5.129,327.400,83.440,18.710,6.958,hard
1157.000,438.200,137.000,31.310,973.400,277.400,79.700,18.400,208.700,48.010,14.280,5.138,329.500,84.000,18.880,7.029,hard
1161.000,442.000,137.900,31.480,976.600,277.600,80.120,18.480,208.000,48.010,14.380,5.174,331.900,84.190,19.000,7.093,hard
1168.000,444.800,140.000,31.750,975.200,278.400,80.040,18.380,204.200,48.040,14.410,5.222,333.900,84.690,18.920,6.999,hard
1157.000,435.800,135.300,30.190,969.000,274.900,77.990,17.970,203.300,47.700,14.130,5.148,325.400,82.620,18.190,6.764,hard
1137.000,425.500,130.500,29.900,965.700,274.300,78.060,17.880,205.500,47.400,14.080,5.125,324.400,82.300,18.390,6.747,hard
1137.000,425.400,131.900,29.980,961.600,274.600,77.980,17.990,203.800,47.880,14.150,5.076,323.500,82.120,18.420,6.804,hard
1141.000,425.600,132.100,30.260,962.100,274.500,78.220,17.970,207.200,47.180,14.090,5.088,324.500,82.410,18.260,6.844,hard
1139.000,426.700,132.600,30.100,962.100,272.700,78.020,17.940,206.600,47.440,14.210,5.080,324.000,82.220,18.330,6.841,hard
1140.000,427.400,133.000,30.220,965.300,274.200,78.800,18.050,204.400,47.030,14.110,5.109,325.700,82.510,18.370,6.884,hard
1144.000,431.100,134.100,30.480,971.100,275.100,78.880,18.090,206.500,47.580,14.170,5.128,326.000,82.950,18.480,6.874,hard
1150.000,432.300,136.800,30.920,970.400,275.800,79.430,18.180,208.200,48.070,14.260,5.167,329.200,83.500,18.590,6.975,hard
1156.000,440.300,137.500,31.250,967.600,276.600,79.420,18.430,204.800,48.060,14.280,5.183,330.700,83.870,18.830,6.932,hard
1163.000,440.300,137.500,31.480,968.300,278.500,80.110,18.490,209.100,47.630,14.310,5.163,332.300,84.250,19.070,7.035,hard
1163.000,440.000,137.500,30.970,968.900,274.000,78.480,18.030,205.500,47.940,14.330,5.145,329.300,83.280,18.490,6.819,hard
1138.000,426.300,131.800,29.670,962.900,272.700,78.290,17.940,208.200,47.350,14.090,5.107,324.700,82.030,18.240,6.774,hard
1136.000,424.100,132.100,30.020,958.700,272.800,77.920,17.920,203.900,47.120,14.220,5.081,323.800,82.340,18.290,6.732,hard
1138.000,426.500,132.100,30.230,964.600,273.400,77.910,18.020,206.100,47.560,14.120,5.104,325.100,82.450,18.340,6.787,hard
1138.000,425.800,131.900,29.940,958.400,273.500,77.950,18.020,203.400,47.370,14.140,5.093,324.800,82.030,18.240,6.815,hard
1139.000,424.800,132.800,30.130,963.500,273.400,78.010,18.000,205.600,47.370,14.000,5.134,324.000,82.210,18.430,6.815,hard
1142.000,431.500,133.700,30.500,964.200,273.000,78.710,18.080,207.100,47.320,14.210,5.121,327.300,82.670,18.530,6.909,hard
1149.000,431.500,135.400,30.890,966.400,274.500,79.070,18.190,207.700,47.550,14.220,5.141,328.400,83.180,18.640,6.924,hard
1157.000,437.800,137.200,31.270,967.600,276.200,79.390,18.380,207.600,47.410,14.200,5.164,330.600,84.000,18.770,6.994,hard
1162.000,443.700,138.100,31.660,971.600,277.600,79.860,18.460,207.500,47.840,14.310,5.158,331.800,84.380,18.910,6.976,hard
1167.000,443.200,139.500,31.760,975.700,278.800,80.090,18.530,206.700,48.050,14.300,5.195,333.000,84.840,19.150,7.109,hard
1172.000,447.700,140.300,31.950,972.200,276.800,79.330,18.130,210.200,48.070,14.380,5.200,332.100,84.250,18.660,6.921,hard
1151.000,432.200,134.500,30.310,968.900,271.800,77.600,18.000,208.400,47.540,14.210,5.123,326.000,82.230,18.150,6.773,hard
1155.000,436.800,136.500,31.160,967.100,274.400,79.030,18.260,206.600,47.400,14.210,5.183,331.300,83.800,18.620,6.953,bogus
1161.000,440.600,138.100,31.340,966.500,276.000,79.520,18.390,201.200,48.260,14.170,5.166,331.400,84.030,18.830,6.982,bogus
1165.000,443.400,138.800,31.680,972.800,276.400,79.970,18.300,206.200,47.940,14.300,5.169,333.600,84.610,18.990,7.075,bogus
1171.000,446.600,140.900,32.030,978.300,278.000,80.060,18.390,207.800,48.130,14.210,5.231,335.700,85.280,19.190,7.031,bogus
1170.000,444.800,137.600,30.950,971.300,274.500,78.410,18.060,209.800,47.860,14.310,5.135,328.600,83.180,18.300,6.835,bogus
1190.000,456.900,144.700,33.040,968.900,274.700,79.130,18.110,206.800,47.190,14.000,5.040,334.500,84.390,18.780,6.936,easy
1171.000,446.800,138.700,31.310,955.000,270.200,77.870,17.730,205.600,47.170,13.760,4.954,328.000,82.810,18.230,6.795,easy
1152.000,437.200,135.900,30.870,953.600,268.400,77.290,17.620,203.400,46.280,13.680,4.953,325.800,82.670,18.140,6.743,easy
1152.000,438.900,136.200,31.120,953.300,269.200,77.560,17.780,203.500,46.780,13.730,4.912,326.900,82.740,18.210,6.724,easy
1155.000,437.600,137.100,31.130,950.800,269.400,77.680,17.730,200.500,46.590,13.700,4.905,327.600,82.100,18.200,6.778,easy
1151.000,438.900,136.000,31.020,951.400,269.800,77.360,17.760,206.000,46.440,13.570,4.933,326.700,82.640,18.220,6.681,easy
1155.000,438.700,136.900,31.190,953.500,270.100,77.430,17.790,203.100,46.170,13.760,4.960,327.000,82.310,18.320,6.801,easy
1160.000,441.800,138.100,31.530,952.200,270.700,77.690,18.000,203.100,46.180,13.720,4.948,328.100,82.950,18.320,6.837,easy
1164.000,443.100,140.000,31.790,956.600,270.900,78.340,18.010,203.200,46.460,13.790,4.986,329.600,83.720,18.600,6.913,easy
1171.000,448.700,141.200,32.190,953.900,272.200,78.430,18.200,201.700,46.480,13.820,4.935,330.600,83.950,18.890,6.956,easy
1176.000,452.800,142.200,32.480,961.200,273.900,78.980,18.160,203.100,47.120,13.800,5.006,332.400,84.750,18.970,6.950,easy
1180.000,450.200,141.900,31.860,954.100,270.900,77.700,17.710,201.200,47.130,13.740,4.977,330.100,83.820,18.460,6.753,easy
1151.000,435.400,135.800,30.800,948.100,268.700,76.750,17.600,207.200,46.220,13.690,4.930,324.000,82.040,18.290,6.692,easy
1148.000,432.200,135.800,30.880,950.200,269.100,76.850,17.660,198.400,46.300,13.610,4.908,325.600,82.110,18.220,6.743,easy
1151.000,439.400,135.600,31.110,949.400,269.100,77.570,17.710,200.800,46.490,13.700,4.956,326.600,83.090,18.320,6.724,easy
1151.000,436.200,136.300,31.070,946.000,268.600,77.220,17.650,205.500,46.210,13.620,4.915,324.000,82.070,18.310,6.752,easy
1149.000,432.800,135.900,30.930,949.800,268.900,77.080,17.760,201.500,46.610,13.690,4.934,325.600,82.600,18.340,6.761,easy
1153.000,441.100,137.700,31.250,951.600,269.200,77.530,17.710,201.200,46.360,13.650,4.958,326.600,83.190,18.340,6.807,easy
1162.000,443.400,139.100,31.700,961.300,270.400,77.970,17.930,202.000,46.600,13.630,4.947,328.300,83.650,18.750,6.856,easy
1167.000,447.500,140.400,31.990,954.100,272.200,78.430,18.020,202.600,46.680,13.870,4.943,330.000,83.710,18.750,6.950,easy
1175.000,452.300,141.800,32.330,956.100,273.300,78.670,18.160,202.700,46.590,13.790,4.977,332.500,84.390,18.870,6.983,easy
1180.000,452.500,143.300,32.610,958.000,273.800,79.100,18.200,205.600,46.980,13.820,5.013,332.500,84.830,19.000,7.042,easy
1185.000,456.300,142.600,32.120,957.200,270.900,77.850,17.670,203.800,46.670,13.920,4.988,329.500,83.810,18.580,6.828,easy
1152.000,436.300,134.500,30.610,944.900,267.600,76.950,17.550,202.500,46.100,13.690,4.915,323.400,81.850,18.010,6.709,easy
1145.000,431.500,135.100,30.630,947.400,266.600,76.290,17.430,203.900,46.120,13.620,4.885,322.900,81.990,18.130,6.687,easy
1145.000,433.300,136.000,30.600,947.600,267.700,76.860,17.580,203.400,46.000,13.520,4.893,324.200,81.970,18.160,6.685,easy
1145.000,435.100,135.300,30.690,945.900,267.000,75.940,17.530,203.000,45.720,13.590,4.893,323.700,81.710,18.230,6.676,easy
1142.000,434.900,134.800,30.610,946.900,267.100,76.420,17.640,201.600,45.590,13.630,4.855,323.800,81.940,18.130,6.707,easy
1146.000,435.200,135.000,30.770,944.100,266.400,76.590,17.630,201.400,46.370,13.530,4.910,324.200,82.130,18.300,6.809,easy
1151.000,438.600,137.000,31.120,950.300,269.400,77.190,17.650,200.900,45.960,13.620,4.909,325.700,83.060,18.420,6.816,easy
1156.000,440.600,138.400,31.420,951.600,269.800,77.580,17.880,201.600,46.540,13.670,4.953,328.100,83.780,18.450,6.875,easy
1162.000,442.700,138.900,31.800,953.900,271.200,78.100,17.930,202.600,46.310,13.750,4.941,329.800,83.960,18.640,6.886,easy
1167.000,447.900,140.400,31.980,951.300,271.000,77.990,17.860,202.700,46.390,13.700,4.924,331.200,83.950,18.680,6.938,easy
1168.000,445.400,139.000,31.090,946.300,267.700,76.330,17.490,201.800,46.490,13.600,4.919,327.100,82.770,18.070,6.712,easy
1140.000,431.400,133.300,30.240,943.500,265.900,76.300,17.370,202.000,46.040,13.510,4.826,322.900,81.820,17.990,6.636,easy
1137.000,429.700,132.500,30.070,943.000,265.100,75.590,17.460,198.500,45.810,13.430,4.828,321.700,81.230,18.020,6.656,easy
1137.000,430.100,134.000,30.240,939.900,266.300,76.280,17.340,203.400,45.710,13.460,4.845,320.900,81.330,17.910,6.617,easy
1136.000,429.500,133.000,30.230,939.800,264.400,76.150,17.330,203.600,45.490,13.360,4.881,319.700,81.420,17.910,6.566,easy
1134.000,429.000,133.300,30.250,936.300,265.100,75.960,17.390,199.500,46.070,13.370,4.832,321.200,81.410,18.000,6.643,easy
1138.000,432.300,134.400,30.460,940.400,266.200,75.890,17.580,202.900,45.950,13.430,4.820,322.400,81.980,18.010,6.674,easy
1144.000,436.000,135.600,30.800,944.400,266.400,76.510,17.540,199.100,45.920,13.410,4.871,323.200,82.370,18.120,6.764,easy
1149.000,439.900,137.200,31.030,943.200,267.500,77.020,17.690,202.400,45.950,13.530,4.842,325.900,82.780,18.360,6.788,easy
1154.000,439.900,137.700,31.350,947.100,269.100,77.190,17.760,198.900,46.000,13.500,4.881,327.100,82.850,18.480,6.794,easy
1159.000,443.200,139.700,31.510,946.100,268.900,76.870,17.530,202.600,45.520,13.560,4.884,327.100,83.220,18.520,6.770,easy
1151.000,435.600,135.500,30.290,937.200,264.200,76.010,17.290,204.000,45.960,13.520,4.820,322.300,81.290,17.930,6.657,easy
1131.000,425.700,131.600,29.930,939.600,265.000,75.670,17.160,198.200,45.600,13.350,4.800,319.900,80.850,17.740,6.605,easy
1132.000,428.700,132.200,30.110,938.500,263.100,75.360,17.390,203.700,45.480,13.310,4.817,320.700,81.140,17.860,6.573,easy
1135.000,429.000,133.300,30.060,933.900,264.100,75.710,17.280,201.600,45.140,13.350,4.766,321.300,80.780,17.840,6.603,easy
1130.000,427.200,132.400,30.120,934.700,263.300,75.540,17.220,197.800,45.600,13.360,4.787,321.100,80.380,17.780,6.616,easy
1132.000,426.700,132.600,30.170,932.000,264.400,75.850,17.340,197.600,45.490,13.290,4.788,320.500,81.100,17.820,6.590,easy
1137.000,433.100,134.400,30.530,940.400,265.900,76.000,17.390,198.100,45.450,13.380,4.769,322.300,81.580,18.030,6.701,easy
1143.000,435.900,135.600,30.890,939.600,266.900,76.550,17.490,202.500,45.620,13.400,4.830,324.800,82.040,18.230,6.731,easy
1150.000,438.500,137.400,30.990,946.100,265.300,76.590,17.550,201.300,45.680,13.370,4.814,325.500,82.590,18.340,6.739,easy
1154.000,441.200,138.700,31.410,946.000,266.600,76.870,17.650,201.300,45.540,13.510,4.818,327.100,82.080,18.330,6.814,easy
1155.000,439.600,136.500,30.530,937.300,265.100,75.890,17.130,200.800,45.820,13.440,4.836,322.900,81.510,17.840,6.580,easy
1129.000,426.100,131.000,29.680,932.600,261.700,74.870,17.080,200.900,44.790,13.290,4.757,317.300,79.750,17.550,6.505,easy
1124.000,423.500,130.800,29.720,929.400,261.900,74.590,17.140,200.800,44.900,13.220,4.710,317.300,79.970,17.470,6.508,easy
1124.000,421.500,131.600,29.760,928.100,262.400,74.500,17.070,198.900,44.710,13.150,4.719,315.900,79.840,17.580,6.478,easy
1122.000,420.300,129.900,29.560,928.400,261.900,74.630,16.990,199.100,44.780,13.210,4.729,315.700,79.420,17.470,6.506,easy
1119.000,421.000,130.600,29.700,935.200,261.800,74.570,17.130,196.300,44.850,13.160,4.707,316.800,79.830,17.610,6.482,easy
1123.000,423.600,132.000,29.940,932.200,262.100,74.990,17.170,196.400,45.240,13.250,4.762,317.000,80.640,17.570,6.586,easy
1128.000,427.700,133.200,30.170,934.300,263.000,75.920,17.130,200.700,44.360,13.190,4.722,318.200,80.890,17.880,6.540,easy
1135.000,429.900,134.100,30.380,933.500,263.100,75.840,17.350,197.400,44.960,13.230,4.785,319.100,81.070,17.810,6.603,easy
1139.000,435.000,135.300,30.700,932.800,264.300,76.200,17.420,199.200,45.350,13.350,4.781,320.100,81.630,17.890,6.635,easy
1143.000,437.300,136.500,30.900,940.100,264.500,76.480,17.540,198.100,45.520,13.310,4.771,323.100,81.900,18.150,6.630,easy
1149.000,438.200,137.400,30.580,937.800,263.500,75.060,17.160,200.900,45.720,13.310,4.816,322.000,80.650,17.660,6.564,easy
1122.000,421.900,130.500,29.380,928.900,260.800,74.220,17.000,200.000,44.540,13.220,4.701,316.000,79.310,17.320,6.401,easy
1115.000,418.300,130.100,29.350,925.900,260.300,74.050,16.930,196.000,44.490,13.040,4.684,313.600,78.690,17.230,6.410,easy
1114.000,416.700,129.400,29.380,925.400,260.000,74.380,16.930,197.000,44.200,13.190,4.724,313.900,78.910,17.280,6.356,easy
1113.000,418.800,129.400,29.160,922.800,259.600,74.250,16.860,195.100,44.210,13.000,4.729,311.600,78.680,17.180,6.359,easy
1110.000,417.800,128.800,29.180,926.400,259.300,74.350,17.000,195.500,44.830,13.070,4.728,312.800,78.430,17.280,6.406,easy
1114.000,421.700,129.800,29.500,932.400,260.300,74.640,17.060,194.400,44.070,13.020,4.702,314.000,78.630,17.650,6.495,easy
1120.000,423.700,131.500,29.700,929.700,260.300,74.970,17.150,194.900,44.840,13.090,4.760,313.500,79.580,17.470,6.457,easy
1126.000,424.700,133.300,30.140,935.700,262.300,75.160,17.190,199.000,44.830,13.050,4.777,315.800,79.600,17.500,6.558,easy
1130.000,430.200,134.000,30.290,928.200,263.200,75.760,17.320,198.800,44.720,13.190,4.745,317.700,80.290,17.750,6.528,easy
1134.000,431.700,134.800,30.550,934.200,263.500,75.940,17.340,196.300,45.200,13.310,4.728,318.200,80.860,17.800,6.625,easy
1141.000,434.100,136.300,30.620,934.100,263.600,75.220,17.130,195.600,44.980,13.360,4.763,318.000,80.600,17.670,6.490,easy
1121.000,419.500,130.800,29.430,929.400,259.200,73.980,16.820,196.000,44.570,13.110,4.664,312.000,78.180,17.190,6.363,easy
1110.000,415.100,129.300,29.080,923.500,257.400,73.920,16.960,194.900,44.390,13.030,4.662,310.600,78.520,17.250,6.321,easy
1110.000,417.300,129.300,29.280,922.100,259.700,74.160,16.840,199.200,44.530,13.040,4.701,311.400,77.850,17.230,6.322,easy
1111.000,418.300,129.800,29.010,925.800,258.800,73.790,16.820,197.400,44.360,13.080,4.662,311.000,78.200,17.110,6.316,easy
1108.000,416.200,129.300,29.260,926.600,259.000,74.040,16.910,195.800,44.200,13.110,4.669,309.700,77.900,17.200,6.325,easy
1111.000,418.100,129.500,29.420,922.300,259.700,74.530,16.950,196.200,43.960,13.190,4.701,310.000,78.180,17.420,6.414,easy
1117.000,422.200,130.900,29.730,930.500,261.100,74.990,17.060,194.400,44.410,12.900,4.701,313.800,78.660,17.360,6.453,easy
1124.000,426.300,132.100,30.090,932.700,261.000,74.960,17.140,195.400,44.970,13.040,4.732,314.600,79.460,17.670,6.523,easy
1129.000,431.400,134.100,30.320,933.300,261.400,75.710,17.230,197.500,45.140,13.320,4.737,316.000,79.620,17.700,6.485,easy
1134.000,432.800,135.600,30.690,936.400,262.400,75.730,17.460,195.800,45.050,13.290,4.774,316.200,80.380,17.790,6.562,easy
1140.000,434.100,135.900,30.340,933.500,261.500,74.690,17.100,194.500,44.940,13.360,4.751,316.100,79.660,17.320,6.460,easy
1114.000,418.400,129.600,29.070,924.900,258.800,73.460,16.940,197.300,44.520,13.090,4.699,310.200,78.140,17.100,6.333,easy
1108.000,415.900,128.500,29.050,925.700,259.200,73.900,16.900,194.400,43.950,13.060,4.647,308.400,78.020,17.050,6.293,easy
1106.000,415.400,129.000,29.140,924.700,258.100,73.780,16.920,196.200,44.000,12.900,4.676,308.700,77.770,17.000,6.301,easy
1107.000,414.400,128.600,29.110,921.100,257.800,73.750,16.890,195.600,44.340,13.010,4.665,309.500,77.170,17.070,6.273,easy
1104.000,414.700,128.400,28.980,925.300,259.100,73.620,16.950,195.500,44.240,12.950,4.640,308.900,77.730,17.090,6.307,easy
1108.000,416.400,129.200,29.320,924.100,259.200,74.460,17.030,192.600,44.140,12.920,4.684,308.900,78.080,17.230,6.404,easy
1114.000,422.100,131.000,29.600,925.800,260.600,74.840,17.060,199.300,44.740,13.150,4.727,312.200,78.400,17.340,6.408,easy
1121.000,423.600,132.400,30.030,936.300,260.900,75.230,17.130,195.800,44.430,13.110,4.726,312.300,79.190,17.550,6.476,easy
1127.000,427.400,132.900,30.190,929.500,261.800,75.070,17.310,194.800,44.670,13.140,4.753,314.100,79.480,17.700,6.536,easy
1132.000,431.000,134.600,30.630,936.300,261.900,75.810,17.330,195.800,45.170,13.290,4.746,316.300,80.020,17.730,6.566,easy
1140.000,433.300,136.700,30.720,937.900,262.200,75.210,17.180,198.200,45.140,13.230,4.764,316.100,79.760,17.520,6.517,easy
1119.000,419.900,130.300,29.500,926.200,258.600,73.800,16.900,199.800,44.470,13.100,4.670,309.400,77.630,17.000,6.309,easy
1107.000,413.900,128.800,29.080,925.100,258.800,73.800,16.820,192.900,44.230,12.960,4.666,306.700,77.890,17.020,6.294,easy
1107.000,413.500,128.600,29.190,926.000,259.900,73.970,16.890,198.000,44.290,13.020,4.649,307.500,77.180,17.090,6.301,easy
1108.000,418.000,129.100,29.280,923.700,258.600,73.600,16.870,196.800,44.070,13.020,4.687,308.700,77.730,17.020,6.284,easy
1108.000,417.400,128.800,29.300,922.700,258.800,74.040,16.830,191.900,44.100,12.980,4.668,308.300,77.570,17.030,6.310,easy
1110.000,416.100,129.900,29.390,929.900,258.000,74.240,16.890,196.400,44.270,13.030,4.650,311.100,77.780,17.190,6.361,easy
1115.000,421.800,131.200,29.730,925.400,259.400,74.800,17.120,195.100,44.470,13.130,4.661,311.500,78.780,17.270,6.429,easy
1123.000,425.800,131.900,30.170,930.500,261.800,75.130,17.170,197.700,44.550,13.000,4.692,311.600,78.810,17.340,6.466,easy
1129.000,429.400,133.300,30.420,935.400,262.600,75.860,17.260,196.300,44.610,13.250,4.732,315.000,79.650,17.630,6.520,easy
1133.000,433.400,134.800,30.580,940.100,263.300,75.610,17.370,199.600,44.920,13.210,4.760,316.900,80.330,17.740,6.570,easy
1141.000,435.700,136.400,31.010,938.900,263.300,75.910,17.470,199.000,44.970,13.220,4.771,316.100,80.180,18.000,6.592,easy
1147.000,436.900,138.500,31.180,942.500,263.000,75.690,17.270,200.700,44.900,13.310,4.797,319.100,80.650,17.800,6.534,easy
1129.000,425.300,131.400,29.680,934.500,260.000,74.480,17.000,197.700,45.240,13.170,4.731,311.100,78.640,17.360,6.369,easy
1115.000,418.400,130.200,29.480,926.500,259.400,74.330,16.860,197.200,44.480,13.060,4.712,309.500,77.890,17.280,6.381,easy
1117.000,420.100,130.500,29.750,926.300,260.000,74.280,17.030,197.700,44.160,13.040,4.628,311.400,78.040,17.350,6.319,easy
1118.000,420.500,130.600,29.660,929.200,259.500,74.400,16.950,196.000,44.520,13.090,4.676,312.200,78.050,17.150,6.373,easy
1116.000,418.200,130.400,29.590,927.100,259.200,74.400,17.010,197.900,44.640,13.200,4.658,310.300,78.270,17.220,6.377,easy
1119.000,424.800,131.900,29.830,929.400,260.800,74.720,17.020,194.000,44.430,13.160,4.693,312.900,78.760,17.330,6.436,easy
1125.000,423.300,132.700,30.200,935.200,261.100,74.990,17.150,199.800,44.620,13.110,4.720,314.000,79.590,17.510,6.474,easy
1132.000,429.700,134.400,30.600,935.200,262.200,75.570,17.320,199.100,44.640,13.230,4.758,315.900,79.440,17.570,6.517,easy
1139.000,430.900,135.200,30.930,938.600,263.000,76.250,17.400,198.300,44.860,13.250,4.783,317.500,79.370,17.880,6.637,easy
1144.000,435.100,136.900,31.140,943.600,264.100,76.120,17.470,196.200,45.240,13.270,4.747,319.700,80.800,17.970,6.653,easy
1149.000,436.700,137.000,30.910,937.300,261.700,74.940,17.170,201.300,45.220,13.340,4.812,317.900,79.920,17.620,6.468,easy
1125.000,422.700,131.000,29.720,926.900,260.000,74.210,16.980,197.400,44.780,13.050,4.688,311.700,78.160,17.190,6.372,easy
1119.000,418.200,130.500,29.460,927.400,259.600,74.310,16.980,194.100,44.160,13.020,4.660,308.600,77.750,17.020,6.373,easy
1120.000,416.700,130.700,29.640,932.300,259.700,74.300,16.980,197.000,44.300,13.070,4.669,312.000,77.820,17.120,6.330,easy
1121.000,420.200,130.300,29.580,931.900,260.900,73.860,16.930,198.100,44.500,12.990,4.697,312.300,78.430,17.240,6.300,easy
1119.000,421.400,130.000,29.670,928.400,259.400,74.510,17.030,197.200,44.130,13.060,4.671,312.400,77.610,17.220,6.363,easy
1124.000,423.000,131.000,29.920,933.500,260.600,74.560,17.140,198.400,44.590,13.240,4.692,313.900,79.180,17.460,6.428,easy
1130.000,426.600,133.600,30.500,931.700,262.200,75.090,17.240,199.900,44.330,13.190,4.693,315.600,79.590,17.590,6.496,easy
1136.000,432.200,134.800,30.690,933.500,262.400,75.630,17.320,201.500,45.110,13.280,4.738,317.200,79.870,17.630,6.599,easy
1143.000,435.900,136.400,30.950,935.900,262.100,75.960,17.380,198.900,45.240,13.290,4.757,318.500,80.500,17.820,6.611,easy
1149.000,435.600,137.300,31.260,943.200,264.300,76.400,17.540,195.900,45.090,13.310,4.750,320.400,80.970,18.120,6.658,easy
1154.000,443.100,137.900,31.510,941.800,265.200,76.050,17.320,202.400,45.100,13.340,4.798,319.800,81.480,17.890,6.599,easy
1140.000,427.700,132.400,30.010,928.100,260.400,74.410,17.080,198.100,45.360,13.220,4.740,315.600,79.000,17.510,6.395,easy
1125.000,423.500,131.700,29.680,930.800,259.400,74.540,17.040,198.300,44.610,13.160,4.706,312.600,78.500,17.350,6.405,easy
1124.000,421.900,130.600,29.840,932.000,259.200,74.670,17.030,194.600,44.500,13.140,4.714,313.800,78.890,17.330,6.372,easy
1128.000,422.400,131.600,29.650,933.500,260.800,74.350,17.000,198.100,44.830,13.150,4.723,313.400,78.520,17.420,6.436,easy
1127.000,420.900,130.400,29.810,930.900,260.400,74.050,17.020,196.100,44.680,13.150,4.646,312.800,78.670,17.470,6.431,easy
1127.000,422.300,132.300,29.960,927.400,260.700,74.530,17.050,198.400,44.760,13.200,4.719,313.600,78.960,17.580,6.451,easy
1133.000,426.200,133.300,30.340,935.300,261.800,75.510,17.160,196.400,45.060,13.170,4.775,315.800,79.300,17.520,6.536,easy
1139.000,431.200,135.000,30.560,936.200,263.200,75.750,17.220,197.300,45.300,13.250,4.769,318.400,80.230,17.930,6.574,easy
1145.000,434.800,136.100,30.930,934.900,262.600,75.780,17.390,196.600,45.050,13.280,4.800,319.600,80.700,17.790,6.602,easy
1150.000,438.500,137.000,31.200,940.100,264.900,76.050,17.370,200.700,45.630,13.300,4.771,320.500,81.450,18.120,6.666,easy
1155.000,440.500,138.100,31.300,941.000,263.900,75.610,17.260,201.200,45.300,13.390,4.795,321.200,81.200,17.790,6.531,easy
1136.000,423.600,132.200,29.870,932.600,259.900,74.580,16.990,196.300,45.310,13.220,4.703,314.100,78.680,17.400,6.402,easy
1127.000,422.700,130.300,29.760,932.100,260.400,74.490,17.020,197.000,44.520,13.130,4.688,315.000,78.910,17.410,6.420,easy
1128.000,421.200,131.700,29.920,928.100,260.700,74.620,17.130,195.900,45.080,13.190,4.691,314.300,79.410,17.430,6.470,easy
1131.000,423.600,131.700,30.030,928.700,260.700,74.600,17.040,198.400,44.640,13.190,4.738,313.500,78.770,17.570,6.421,easy
1128.000,423.300,132.400,29.810,934.500,260.000,74.340,17.010,198.000,45.020,13.050,4.729,313.400,79.080,17.490,6.504,easy
1131.000,425.200,132.500,30.320,931.900,263.200,74.870,17.130,198.900,44.810,13.140,4.695,315.500,79.760,17.620,6.508,easy
1136.000,428.400,133.800,30.560,933.500,262.700,75.510,17.240,197.500,45.520,13.200,4.700,318.900,79.920,17.730,6.584,easy
1142.000,433.600,135.400,30.800,935.100,262.700,75.490,17.310,196.900,45.030,13.250,4.767,321.000,81.220,17.850,6.637,easy
1148.000,435.300,136.400,31.290,938.600,263.600,76.030,17.410,200.500,45.460,13.390,4.769,321.700,81.230,17.960,6.657,easy
1153.000,436.100,136.900,31.370,940.400,264.500,76.020,17.460,199.500,45.180,13.400,4.774,320.900,81.780,18.180,6.795,easy
1155.000,438.100,136.600,30.690,938.200,261.300,74.760,17.060,198.100,45.150,13.410,4.741,319.300,80.140,17.500,6.535,easy
1128.000,423.500,130.500,29.750,929.100,259.500,73.990,16.990,197.100,44.970,13.150,4.749,315.200,78.920,17.530,6.399,easy
1125.000,421.300,130.700,29.740,929.500,260.900,74.210,16.930,200.000,44.630,13.170,4.674,314.900,79.310,17.320,6.419,easy
1126.000,422.000,130.500,29.850,931.400,259.300,73.750,16.990,195.800,44.950,13.080,4.709,314.700,79.240,17.510,6.456,easy
1124.000,419.000,130.200,29.730,932.100,259.400,74.000,17.020,197.800,44.560,13.110,4.671,314.000,79.030,17.580,6.469,easy
1124.000,417.100,131.100,29.780,930.500,259.900,74.140,17.000,199.000,44.440,13.140,4.704,315.800,79.140,17.510,6.474,easy
1127.000,423.300,131.300,30.220,926.200,260.200,74.490,17.120,198.600,44.690,13.150,4.708,316.400,79.310,17.670,6.573,easy
1133.000,426.200,133.300,30.390,925.200,261.300,75.060,17.250,194.500,44.880,13.120,4.708,318.400,79.800,17.820,6.607,easy
1138.000,431.300,134.400,30.670,935.500,262.600,75.550,17.370,195.100,44.920,13.150,4.747,320.800,80.550,17.740,6.625,easy
1142.000,432.800,134.900,30.930,935.100,263.400,75.710,17.390,199.000,45.280,13.290,4.781,319.200,81.150,18.050,6.631,easy
1148.000,437.400,136.200,31.080,935.200,263.700,75.630,17.210,195.700,45.370,13.300,4.762,323.300,80.960,18.030,6.591,easy
1137.000,426.000,132.200,29.670,931.600,259.400,73.890,16.980,200.000,44.890,13.210,4.724,316.200,78.970,17.510,6.463,easy
1120.000,419.400,130.200,29.530,924.600,258.700,73.640,16.950,196.200,44.620,13.110,4.711,313.800,78.790,17.270,6.455,easy
1118.000,415.500,130.400,29.610,926.500,259.300,73.870,16.970,196.900,44.430,13.060,4.666,314.100,78.980,17.210,6.432,easy
1120.000,420.300,130.400,29.550,924.200,259.100,74.080,16.970,196.700,44.670,13.130,4.702,313.800,79.430,17.370,6.431,easy
1116.000,417.800,129.400,29.460,926.200,259.300,73.770,16.900,195.300,44.280,13.100,4.648,313.000,78.910,17.420,6.464,easy
1118.000,418.600,129.600,29.640,927.000,259.200,74.430,17.000,199.700,44.670,13.170,4.685,316.400,79.570,17.550,6.503,easy
1123.000,420.600,131.300,30.020,925.400,258.900,74.440,16.990,202.400,44.650,13.160,4.692,317.200,79.590,17.680,6.510,easy
1129.000,423.100,133.400,30.490,928.600,261.500,74.950,17.130,197.500,45.010,13.150,4.711,319.000,80.740,17.820,6.555,easy
1133.000,427.200,133.400,30.530,927.800,262.300,75.400,17.130,202.200,44.650,13.290,4.752,319.700,80.950,17.870,6.701,easy
1138.000,432.500,134.100,30.870,932.300,262.600,75.600,17.330,196.300,45.130,13.350,4.755,321.100,81.090,18.170,6.700,easy
1143.000,435.000,136.000,31.180,935.400,262.700,74.780,17.140,200.300,45.130,13.340,4.760,322.700,81.000,18.050,6.556,easy
1129.000,423.900,130.900,29.760,927.300,259.000,74.210,16.890,200.800,45.180,13.190,4.667,315.100,79.470,17.570,6.414,easy
1116.000,418.600,129.300,29.550,927.600,258.200,73.890,16.890,197.600,44.680,13.130,4.653,314.400,79.240,17.340,6.444,easy
1117.000,415.800,129.300,29.530,923.700,259.600,74.280,16.970,200.800,44.690,13.040,4.681,315.400,79.600,17.580,6.471,easy
1118.000,423.000,130.200,29.510,926.400,258.200,73.780,16.890,196.400,44.880,13.120,4.697,315.100,79.580,17.490,6.474,easy
1115.000,417.500,129.200,29.540,923.200,258.300,73.790,16.930,198.600,44.220,13.160,4.668,315.900,79.100,17.550,6.493,easy
1119.000,419.600,130.700,29.730,925.500,259.100,74.280,16.880,199.300,44.520,13.150,4.710,316.900,79.980,17.660,6.538,easy
1122.000,422.900,131.700,30.180,927.700,259.700,74.560,17.080,196.100,44.640,13.060,4.699,317.500,79.880,17.670,6.579,easy
1128.000,424.600,132.800,30.310,929.800,260.500,74.610,17.050,198.900,44.860,13.250,4.706,320.100,80.630,17.880,6.593,easy
1133.000,428.000,133.700,30.590,930.800,262.800,75.370,17.150,202.900,45.200,13.240,4.737,322.100,81.270,17.920,6.685,easy
1138.000,430.100,135.200,30.840,932.800,261.200,74.880,17.050,196.500,44.960,13.290,4.782,320.300,80.820,17.860,6.548,easy
1120.000,418.900,128.400,29.520,922.000,257.600,73.530,16.740,200.800,45.040,13.080,4.685,314.700,79.520,17.240,6.456,easy
1110.000,412.400,128.000,29.150,921.600,256.500,73.480,16.750,197.200,44.760,13.080,4.654,314.800,78.690,17.300,6.418,easy
1110.000,415.400,128.700,29.370,926.900,256.900,73.720,16.790,193.900,44.650,13.120,4.708,314.500,78.880,17.400,6.424,easy
1111.000,414.500,128.100,29.420,923.200,257.000,73.800,16.860,199.600,43.960,13.060,4.693,314.900,78.740,17.450,6.409,easy
1108.000,414.200,127.300,29.110,928.000,257.800,73.620,16.820,198.400,44.500,13.120,4.703,313.900,78.760,17.340,6.453,easy
1112.000,414.000,129.600,29.360,919.700,259.000,73.820,16.970,197.300,44.800,13.120,4.696,315.000,79.230,17.500,6.503,easy
1116.000,420.800,130.500,29.980,927.000,260.000,74.430,17.090,193.800,44.810,13.060,4.692,318.900,79.720,17.640,6.536,easy
1123.000,421.100,131.700,30.270,926.200,259.700,74.230,17.090,199.300,44.820,13.200,4.725,318.800,80.140,17.790,6.601,easy
1127.000,423.500,133.000,30.520,925.300,261.800,74.900,17.110,200.500,45.130,13.200,4.712,321.600,80.660,18.030,6.631,easy
1132.000,429.200,134.200,30.760,933.900,261.300,74.900,17.290,199.600,45.010,13.260,4.788,322.000,81.200,18.060,6.686,easy
1138.000,432.800,135.700,31.030,935.100,263.000,75.650,17.320,199.600,45.310,13.300,4.740,323.500,82.120,18.310,6.757,easy
1143.000,433.900,136.700,31.070,931.700,261.100,75.360,16.930,199.400,45.440,13.420,4.774,323.600,81.110,18.000,6.616,easy
1121.000,420.500,129.100,29.510,926.700,256.300,73.940,16.810,196.200,44.990,13.070,4.704,318.000,78.730,17.410,6.431,easy
1110.000,413.700,128.500,29.230,923.500,256.900,73.720,16.800,196.700,44.560,13.090,4.675,314.600,79.490,17.320,6.434,easy
1108.000,413.000,127.800,29.520,924.100,257.300,73.540,16.770,194.700,44.210,13.040,4.675,316.200,78.730,17.430,6.463,easy
1109.000,415.900,127.700,29.260,923.300,256.200,73.560,16.760,194.700,44.510,12.970,4.628,315.800,78.520,17.480,6.463,easy
1106.000,411.700,127.900,29.260,919.800,255.900,73.980,16.800,197.800,44.270,13.160,4.680,314.400,79.200,17.430,6.423,easy
1108.000,414.300,127.900,29.470,921.700,258.000,73.720,16.880,194.200,44.690,13.080,4.650,316.300,79.670,17.610,6.499,easy
1115.000,417.300,130.100,29.800,918.800,258.200,74.180,16.930,196.400,45.050,13.200,4.752,318.200,80.100,17.730,6.585,easy
1120.000,419.700,131.400,30.040,927.000,259.600,74.370,17.010,197.900,44.950,13.130,4.753,320.500,80.480,17.820,6.616,easy
1125.000,420.500,132.200,30.280,930.900,259.300,74.790,17.050,200.800,44.980,13.340,4.731,321.100,81.430,18.110,6.636,easy
1129.000,424.500,134.000,30.630,928.400,261.800,74.710,17.200,197.400,45.150,13.360,4.732,321.800,82.030,18.250,6.674,easy
1134.000,431.200,134.800,30.980,935.800,262.700,75.570,17.220,200.800,45.100,13.470,4.773,322.400,81.870,18.150,6.715,easy
1131.000,424.600,131.900,29.860,927.700,257.700,73.790,16.730,200.500,45.130,13.160,4.738,317.300,80.100,17.540,6.501,easy
1108.000,412.300,127.900,29.270,923.400,255.800,73.660,16.790,200.300,44.500,13.080,4.661,314.800,78.420,17.350,6.434,easy
1107.000,413.800,127.400,29.240,926.200,257.100,73.700,16.900,194.400,44.410,12.980,4.663,315.300,79.060,17.480,6.450,easy
1109.000,414.800,127.700,29.280,923.900,256.500,73.780,16.790,199.200,44.520,13.080,4.690,315.400,78.860,17.440,6.456,easy
1105.000,413.400,126.900,29.110,925.200,256.300,73.360,16.750,195.500,44.550,13.030,4.649,315.100,78.850,17.420,6.462,easy
1106.000,412.300,128.400,29.270,921.200,257.700,73.680,16.930,196.800,44.520,13.150,4.646,315.800,78.950,17.500,6.503,easy
1111.000,415.300,129.500,29.650,928.500,258.500,74.070,16.910,200.000,44.210,13.140,4.679,317.700,80.020,17.700,6.607,easy
1115.000,417.300,130.500,30.120,924.600,258.900,74.230,17.040,195.400,44.370,13.180,4.691,320.000,80.360,17.880,6.620,easy
1121.000,420.700,131.700,30.300,929.900,261.000,74.680,17.090,199.300,44.810,13.240,4.694,320.300,80.650,17.980,6.626,easy
1125.000,420.500,133.300,30.560,931.500,261.300,75.110,17.240,201.100,44.830,13.130,4.761,322.700,81.200,18.060,6.721,easy
1132.000,427.700,134.100,30.920,931.900,261.300,75.440,17.200,198.200,45.230,13.280,4.765,322.300,81.730,18.250,6.712,easy
1137.000,431.500,134.600,30.930,930.700,261.100,75.250,17.080,201.000,45.270,13.290,4.781,323.500,81.520,18.210,6.702,easy
1119.000,420.300,129.200,29.630,920.900,257.600,73.940,16.850,200.400,44.740,13.150,4.702,316.900,79.380,17.360,6.478,easy
1107.000,413.600,128.300,29.230,925.700,257.000,73.790,16.800,196.800,44.180,12.990,4.669,314.100,78.910,17.580,6.525,easy
1106.000,409.000,127.800,29.270,921.400,257.200,73.810,16.860,198.300,44.020,13.040,4.673,314.800,78.850,17.390,6.492,easy
1106.000,413.200,126.600,29.200,923.500,258.200,73.590,16.770,194.700,44.570,13.060,4.655,315.600,78.940,17.530,6.505,easy
1105.000,408.600,126.900,29.160,923.500,257.100,73.620,16.760,196.500,44.450,12.930,4.611,314.100,78.850,17.370,6.538,easy
1106.000,412.200,128.600,29.480,921.000,258.700,74.140,16.900,194.100,44.330,13.050,4.619,315.400,79.320,17.780,6.511,easy
1112.000,412.600,129.600,29.690,925.300,258.900,74.390,16.970,196.700,44.460,13.080,4.658,317.900,80.030,17.820,6.597,easy
1118.000,418.600,131.400,29.960,929.000,260.500,74.760,17.030,197.400,44.600,13.020,4.735,320.100,80.570,17.810,6.622,easy
1122.000,423.600,132.100,30.250,929.700,260.400,74.820,17.140,193.300,44.810,13.180,4.695,321.400,81.230,18.060,6.676,easy
1127.000,424.500,132.900,30.510,930.400,261.700,75.490,17.270,198.300,44.910,13.240,4.728,322.700,81.600,18.090,6.776,easy
1132.000,429.000,134.500,30.980,930.800,262.000,76.270,17.280,203.500,45.110,13.320,4.759,323.100,81.960,18.290,6.846,easy
1140.000,433.400,135.600,30.870,932.900,263.300,75.330,17.070,197.500,45.220,13.230,4.754,323.800,81.330,18.060,6.655,easy
1117.000,417.000,129.200,29.380,928.900,259.200,73.680,16.880,198.800,44.530,13.120,4.661,316.200,78.910,17.580,6.530,easy
1108.000,413.000,127.600,29.320,927.500,258.700,73.590,16.750,198.100,44.650,13.070,4.657,316.300,79.380,17.580,6.464,easy
1108.000,413.700,127.600,29.330,924.200,258.600,74.090,16.930,197.700,44.210,13.020,4.632,315.200,79.530,17.470,6.537,easy
1108.000,414.300,128.400,29.350,926.500,258.500,73.850,16.880,197.900,44.370,13.020,4.670,316.500,79.070,17.620,6.533,easy
1106.000,410.900,127.900,29.400,923.100,257.900,73.860,16.900,197.200,44.470,13.030,4.648,317.300,79.560,17.580,6.530,easy
1110.000,415.000,128.600,29.680,928.000,260.200,74.570,16.960,198.500,44.310,13.080,4.679,315.400,79.570,17.770,6.650,easy
1116.000,418.200,130.500,29.880,928.700,260.300,74.860,17.100,194.900,44.860,13.050,4.700,320.200,80.340,17.980,6.633,easy
1122.000,422.100,132.200,30.250,932.600,261.700,75.370,17.230,196.400,44.800,13.170,4.684,320.300,81.210,18.130,6.736,easy
1127.000,422.200,132.600,30.490,931.200,261.100,76.170,17.280,200.100,44.830,13.050,4.698,321.900,80.950,18.120,6.787,easy
1133.000,425.200,133.700,30.870,935.500,263.100,75.980,17.380,199.500,44.800,13.260,4.712,323.400,81.840,18.490,6.787,easy
1138.000,431.400,135.500,31.190,941.500,264.200,76.750,17.490,200.900,45.730,13.280,4.728,324.300,82.450,18.390,6.821,easy
1144.000,435.300,136.200,31.470,940.900,265.600,76.200,17.390,202.000,45.810,13.380,4.745,327.000,82.830,18.670,6.867,easy
1140.000,430.700,134.000,30.200,938.600,260.700,75.060,16.940,201.700,44.950,13.200,4.730,321.300,81.030,17.910,6.661,easy
1115.000,415.900,129.200,29.700,930.000,259.900,74.450,17.010,199.000,44.430,13.170,4.686,319.000,79.860,17.690,6.588,easy
1115.000,418.800,129.600,29.530,931.100,259.800,74.960,17.050,201.000,44.620,13.040,4.650,316.200,80.090,17.980,6.593,easy
1119.000,419.200,129.800,29.760,930.500,261.800,74.740,17.000,197.200,44.400,13.140,4.666,318.500,80.140,17.880,6.643,easy
1117.000,416.600,130.100,29.720,933.000,260.100,74.700,17.090,195.000,44.680,13.210,4.678,318.500,80.320,17.770,6.647,easy
1117.000,418.200,129.900,29.930,932.400,261.800,75.320,17.120,199.300,44.410,13.110,4.633,320.800,80.400,17.840,6.646,easy
1122.000,419.800,131.900,30.130,934.200,263.300,75.840,17.200,200.600,45.050,13.180,4.743,319.400,81.100,18.030,6.708,easy
1130.000,424.100,133.700,30.550,933.300,263.700,75.810,17.400,200.900,44.910,13.140,4.718,322.700,81.250,18.240,6.734,easy
1136.000,430.000,134.700,30.810,940.000,264.100,76.150,17.450,201.600,45.290,13.350,4.737,323.900,82.340,18.170,6.849,easy
1141.000,432.700,135.800,31.160,944.400,265.000,76.160,17.480,200.800,45.080,13.380,4.719,327.600,82.440,18.650,6.909,easy
1147.000,434.800,137.700,31.530,949.700,266.500,77.040,17.650,201.100,45.430,13.440,4.728,327.000,83.230,18.740,6.906,easy
1150.000,437.800,135.500,30.800,937.000,263.300,75.730,17.210,201.800,45.510,13.270,4.732,322.500,81.390,18.140,6.676,easy
1122.000,418.800,130.000,29.840,931.400,261.700,75.190,17.200,202.100,44.710,13.100,4.655,318.700,80.220,17.710,6.581,easy
1120.000,419.900,129.700,29.870,933.600,261.600,74.810,17.240,196.900,44.730,13.070,4.642,318.100,80.620,17.720,6.691,easy
1121.000,418.100,130.500,29.870,936.800,261.600,75.010,17.140,198.400,44.650,13.070,4.660,319.800,80.160,17.820,6.717,easy
1122.000,417.200,130.900,29.930,932.400,261.700,75.250,17.150,197.300,44.520,13.150,4.691,319.200,80.780,18.010,6.622,easy
1122.000,420.500,130.600,30.060,930.600,262.300,75.340,17.190,196.700,44.610,13.080,4.668,319.500,80.620,18.120,6.685,easy
1126.000,421.800,132.400,30.320,932.000,263.300,75.630,17.360,199.400,45.200,13.250,4.674,322.400,81.480,18.320,6.736,easy
1133.000,424.900,133.800,30.690,934.600,265.200,76.430,17.420,200.900,44.700,13.180,4.698,323.400,82.070,18.360,6.782,easy
1139.000,432.500,134.500,30.900,943.500,266.100,76.670,17.560,200.100,45.010,13.250,4.708,325.800,82.190,18.520,6.876,easy
1144.000,432.600,135.800,31.290,944.700,266.800,76.880,17.490,201.900,45.050,13.230,4.730,326.700,83.250,18.700,6.899,easy
1150.000,438.200,137.000,31.490,945.000,267.600,77.180,17.640,202.500,45.740,13.330,4.773,326.500,83.560,18.690,6.939,easy
1156.000,440.400,138.500,32.060,948.100,268.100,77.710,17.780,204.500,45.670,13.450,4.778,330.100,84.340,18.940,7.014,easy
1160.000,441.600,137.700,31.390,948.900,266.000,76.680,17.340,204.800,45.810,13.380,4.716,328.000,82.560,18.320,6.791,easy
