A-DC1,A-DC2,A-DC3,A-DC4,A-DC5,A-DC6,A-DC7,A-DC8,B-DC1,B-DC2,B-DC3,B-DC4,B-DC5,B-DC6,B-DC7,B-DC8,condition
1605.000,451.100,120.500,27.140,684.400,179.000,46.020,10.310,348.400,85.800,20.760,6.622,541.900,132.400,34.420,12.050,baseline
1600.000,451.500,120.000,26.920,683.700,179.000,45.920,10.280,349.700,85.450,20.760,6.630,539.400,132.200,34.290,12.000,baseline
1597.000,448.000,119.800,26.920,679.200,178.100,45.780,10.280,349.600,85.650,20.790,6.639,538.100,132.100,34.100,12.000,baseline
1595.000,450.600,119.600,26.920,674.700,177.500,45.690,10.250,345.000,85.590,20.710,6.633,537.100,132.000,34.230,12.010,baseline
1596.000,447.800,119.900,27.140,673.400,177.900,45.730,10.230,352.200,85.490,20.770,6.635,539.000,132.200,34.390,12.030,baseline
1601.000,452.000,120.200,26.970,683.700,178.400,45.650,10.350,350.600,85.820,20.820,6.640,540.600,132.400,34.410,12.080,baseline
1602.000,453.200,119.700,27.060,675.700,179.800,45.900,10.310,346.200,86.000,20.800,6.661,541.600,133.000,34.570,12.120,baseline
1604.000,449.900,121.200,27.010,681.200,179.700,45.690,10.260,349.800,86.050,20.860,6.671,541.800,132.900,34.680,12.110,baseline
1608.000,453.500,120.800,27.100,687.400,177.800,45.580,10.260,354.300,85.970,20.860,6.665,543.100,133.400,34.730,12.150,baseline
1613.000,454.600,120.600,27.340,682.900,179.500,45.830,10.210,350.600,86.330,20.870,6.684,545.500,133.900,34.790,12.180,baseline
1617.000,454.700,121.600,27.530,683.100,179.000,45.770,10.350,351.200,86.370,20.930,6.678,545.900,134.600,34.970,12.210,baseline
1621.000,454.300,121.800,27.490,691.900,179.500,45.770,10.400,356.200,86.380,20.980,6.675,547.400,134.900,35.050,12.280,baseline
1626.000,458.600,120.900,27.520,686.600,180.300,45.960,10.330,353.000,86.730,20.970,6.715,548.600,135.600,35.160,12.330,baseline
1624.000,457.600,121.100,27.470,677.000,178.700,45.730,10.300,351.800,86.260,20.840,6.653,545.300,133.600,34.630,12.080,baseline
1604.000,453.500,119.400,27.160,685.100,179.200,45.360,10.230,353.000,85.700,20.830,6.623,540.600,132.200,34.390,12.020,baseline
1599.000,451.900,119.800,26.930,678.100,178.800,45.360,10.250,348.800,85.760,20.770,6.638,537.500,131.800,34.110,12.000,baseline
1595.000,451.800,120.500,27.040,678.600,177.500,45.330,10.220,348.300,85.840,20.810,6.632,537.000,131.400,34.160,11.950,baseline
1595.000,452.800,119.100,26.890,682.200,177.600,45.440,10.200,352.500,85.390,20.780,6.614,536.700,131.300,34.100,11.940,baseline
1595.000,446.000,120.200,26.840,681.600,177.600,45.590,10.200,348.500,85.690,20.730,6.642,536.500,131.800,34.190,11.990,baseline
1599.000,449.500,119.200,26.990,677.200,177.600,45.210,10.280,344.900,85.810,20.820,6.654,538.100,132.200,34.260,12.030,baseline
1600.000,450.000,120.200,26.980,679.700,178.300,45.400,10.230,350.700,85.580,20.820,6.651,538.700,131.800,34.390,12.040,baseline
1604.000,454.200,120.300,26.900,675.300,178.600,45.360,10.270,352.900,86.040,20.810,6.669,540.000,132.700,34.370,12.080,baseline
1609.000,456.800,120.500,27.360,680.600,178.800,45.720,10.230,346.700,86.270,20.840,6.679,540.800,133.100,34.490,12.090,baseline
1615.000,454.900,121.800,27.330,688.000,178.400,45.410,10.250,352.800,85.850,20.860,6.685,543.600,133.300,34.830,12.100,baseline
1621.000,457.100,121.200,27.360,687.800,179.100,45.940,10.230,352.400,86.070,20.930,6.691,544.400,134.000,34.790,12.180,baseline
1626.000,456.000,121.200,27.540,690.100,178.700,45.960,10.310,351.800,86.260,20.900,6.687,546.700,134.700,34.970,12.220,baseline
1628.000,458.100,122.300,27.640,687.000,179.800,46.170,10.280,352.100,86.180,21.010,6.673,548.100,134.600,35.160,12.250,baseline
1635.000,458.600,123.300,27.790,681.000,179.400,46.260,10.320,352.500,86.260,21.030,6.689,550.400,135.400,35.270,12.330,baseline
1638.000,463.300,122.700,27.700,687.400,179.100,45.830,10.240,351.300,86.790,20.960,6.721,551.200,136.300,35.440,12.420,baseline
1642.000,462.200,122.700,27.850,693.400,179.600,45.640,10.260,354.100,87.100,21.050,6.726,554.000,136.500,35.460,12.340,baseline
1623.000,455.100,120.400,27.110,680.700,179.100,45.580,10.210,353.800,86.600,20.920,6.665,546.800,134.000,34.670,12.120,baseline
1606.000,454.700,119.300,27.140,684.400,177.300,45.470,10.180,352.300,86.120,20.760,6.660,540.000,132.700,34.300,12.050,baseline
1601.000,451.800,120.000,27.020,680.200,177.800,44.750,10.200,348.000,85.940,20.780,6.663,539.100,132.000,34.260,11.970,baseline
1597.000,450.100,119.500,26.990,679.500,177.800,45.290,10.250,350.300,85.700,20.810,6.631,539.300,131.700,34.250,11.990,baseline
1597.000,447.400,119.300,26.890,678.400,178.100,45.060,10.100,352.500,85.760,20.860,6.651,537.600,131.600,34.200,12.020,baseline
1595.000,446.100,120.300,26.940,681.800,178.000,44.830,10.160,346.000,86.080,20.840,6.686,538.600,132.100,34.320,12.020,baseline
1599.000,452.500,120.300,27.060,680.200,177.800,45.010,10.080,353.700,86.110,20.900,6.663,539.200,132.100,34.400,12.020,baseline
1603.000,451.600,119.900,27.000,687.500,177.400,45.630,10.240,353.600,86.290,20.940,6.674,540.900,132.400,34.500,12.100,baseline
1606.000,453.700,120.700,27.150,682.200,177.100,45.380,10.220,347.000,86.300,20.890,6.685,541.000,133.000,34.640,12.090,baseline
1609.000,450.700,120.700,27.350,678.300,179.600,45.670,10.250,352.800,86.400,20.980,6.695,542.800,133.300,34.760,12.140,baseline
1611.000,450.200,121.100,27.310,675.300,178.700,45.580,10.300,355.100,86.240,21.000,6.700,546.000,134.000,34.800,12.190,baseline
1617.000,457.600,121.300,27.420,677.700,179.500,45.550,10.190,348.700,86.770,21.000,6.720,546.700,134.700,34.910,12.240,baseline
1622.000,457.700,121.200,27.580,680.000,178.000,45.350,10.170,350.900,86.610,21.030,6.720,548.800,134.800,35.170,12.260,baseline
1627.000,459.800,122.600,27.430,678.900,178.300,45.180,10.280,356.000,86.640,21.070,6.720,549.700,135.400,35.230,12.350,baseline
1632.000,460.600,121.500,27.830,687.000,178.600,45.800,10.190,354.300,86.930,21.040,6.737,552.100,136.200,35.410,12.380,baseline
1638.000,462.000,123.000,27.720,688.600,179.600,45.680,10.230,353.000,87.230,21.050,6.736,553.800,136.800,35.670,12.420,baseline
1643.000,457.800,123.000,28.030,685.500,180.100,45.790,10.290,358.200,87.250,21.200,6.737,556.300,137.300,35.710,12.420,baseline
1641.000,463.200,121.900,27.670,686.500,179.000,45.300,10.250,353.700,87.140,21.040,6.713,550.400,135.500,35.040,12.230,baseline
1615.000,453.200,120.100,27.440,676.900,177.200,45.140,10.210,351.500,86.630,20.920,6.670,544.800,133.500,34.710,12.090,baseline
1609.000,452.800,119.700,27.080,680.300,176.700,45.350,10.130,353.200,86.180,20.890,6.651,542.600,132.800,34.500,12.040,baseline
1604.000,451.500,120.200,27.370,679.100,177.700,45.100,10.190,351.900,86.350,20.890,6.663,541.400,132.500,34.440,12.060,baseline
1604.000,450.500,118.800,27.070,681.000,176.200,45.360,10.170,348.800,86.300,20.930,6.691,541.000,132.400,34.380,12.050,baseline
1604.000,449.700,120.100,27.280,680.800,177.300,45.100,10.190,354.100,86.040,20.890,6.683,541.600,132.700,34.540,12.080,baseline
1606.000,449.600,120.200,27.260,677.700,175.400,45.320,10.220,352.200,86.210,20.930,6.692,541.400,133.000,34.630,12.120,baseline
1611.000,450.500,120.600,27.310,679.000,177.600,45.620,10.150,348.500,86.510,20.940,6.692,542.800,133.500,34.760,12.130,baseline
1612.000,455.300,120.400,27.270,673.800,178.400,45.470,10.250,354.700,86.540,21.050,6.696,545.100,133.500,34.820,12.160,baseline
1615.000,455.200,120.700,27.440,682.700,178.500,45.150,10.240,357.100,86.520,21.040,6.706,545.100,134.000,34.950,12.230,baseline
1620.000,456.600,121.300,27.510,677.100,179.400,44.990,10.220,350.800,86.850,21.020,6.719,546.900,134.500,35.020,12.270,baseline
1620.000,459.000,121.400,27.620,683.000,177.900,45.380,10.210,353.300,86.520,21.040,6.728,549.600,135.000,35.250,12.260,baseline
1625.000,456.500,122.800,27.700,688.800,178.100,45.460,10.270,356.700,86.810,21.110,6.721,549.800,135.300,35.170,12.330,baseline
1631.000,459.800,122.300,27.670,685.800,178.300,45.500,10.310,353.600,87.130,21.050,6.740,552.500,136.300,35.480,12.370,baseline
1638.000,458.900,122.400,27.700,682.300,180.600,45.690,10.380,353.900,87.300,21.160,6.734,553.500,136.700,35.490,12.370,baseline
1630.000,459.800,120.900,27.550,684.200,178.400,45.210,10.290,353.900,86.760,21.120,6.720,547.900,134.600,34.900,12.220,baseline
1609.000,454.400,120.200,27.320,679.700,175.500,45.030,10.230,354.800,86.520,20.930,6.693,544.000,133.700,34.600,12.120,baseline
1608.000,449.700,119.400,27.150,674.900,179.100,44.940,10.260,349.200,86.240,20.960,6.692,542.100,132.900,34.610,12.110,baseline
1604.000,449.000,120.000,27.260,676.600,177.800,45.030,10.210,356.200,86.490,21.010,6.707,542.700,132.900,34.530,12.060,baseline
1604.000,452.600,120.100,27.200,671.700,177.100,44.390,10.240,353.800,86.140,20.940,6.701,541.700,132.800,34.470,12.100,baseline
1602.000,448.000,119.900,27.150,683.100,176.700,44.850,10.250,346.000,86.500,20.990,6.719,542.200,133.000,34.680,12.120,baseline
1608.000,454.400,121.000,27.170,687.900,178.400,44.950,10.220,353.300,86.370,21.030,6.728,543.900,133.400,34.710,12.140,baseline
1611.000,449.800,121.000,27.480,682.000,177.600,45.100,10.240,352.700,86.650,21.050,6.719,545.400,134.100,34.770,12.170,baseline
1615.000,452.600,120.100,27.440,683.400,178.800,45.390,10.310,349.600,86.900,21.080,6.743,545.300,134.200,34.880,12.210,baseline
1618.000,456.000,120.800,27.650,684.500,178.500,45.290,10.140,353.500,86.690,21.090,6.732,547.600,134.600,35.020,12.210,baseline
1622.000,456.000,121.000,27.710,679.100,179.100,45.500,10.260,356.400,86.860,21.120,6.740,549.100,135.000,35.140,12.280,baseline
1627.000,459.400,121.700,27.570,679.900,179.500,45.700,10.320,351.900,87.220,21.060,6.763,550.400,135.700,35.210,12.320,baseline
1631.000,458.000,121.400,27.910,681.700,177.700,45.190,10.310,357.200,87.110,21.120,6.749,552.900,136.000,35.390,12.360,baseline
1637.000,459.500,123.300,27.840,681.000,179.200,45.600,10.200,355.500,87.050,21.180,6.750,555.500,136.900,35.620,12.430,baseline
1644.000,466.100,122.800,28.050,687.100,178.800,45.950,10.320,354.000,87.280,21.170,6.769,556.100,137.300,35.740,12.520,baseline
1650.000,465.600,123.800,27.980,678.000,179.700,45.660,10.380,354.600,87.480,21.250,6.787,558.900,137.700,35.910,12.530,baseline
1656.000,466.400,123.300,27.980,689.100,180.400,45.500,10.240,358.400,87.280,21.270,6.751,558.600,137.600,35.680,12.410,baseline
1627.000,456.700,121.200,27.390,681.800,178.100,45.290,10.260,354.600,86.930,21.070,6.713,549.200,134.300,34.840,12.240,baseline
1614.000,455.000,120.500,27.590,674.800,178.600,45.530,10.260,350.300,86.580,20.950,6.697,546.100,133.900,34.670,12.090,baseline
1607.000,450.000,119.600,27.430,679.700,176.500,45.300,10.220,353.600,85.980,20.980,6.677,543.800,133.200,34.640,12.070,baseline
1604.000,451.900,119.900,27.220,686.100,177.200,45.170,10.160,353.500,86.170,20.930,6.695,542.000,133.000,34.410,12.090,baseline
1602.000,450.100,120.100,27.200,680.100,177.600,45.130,10.220,348.800,86.420,20.910,6.695,542.000,132.700,34.570,12.130,baseline
1605.000,449.500,120.100,27.380,679.600,177.500,45.360,10.190,354.000,86.220,20.990,6.722,544.300,133.100,34.790,12.100,baseline
1608.000,456.800,120.600,27.290,683.000,176.500,45.070,10.250,356.800,86.400,21.000,6.725,544.600,133.500,34.630,12.200,baseline
1611.000,452.600,120.700,27.470,681.000,177.400,44.990,10.260,350.700,86.630,21.010,6.716,544.800,133.400,34.820,12.190,baseline
1613.000,456.800,120.000,27.320,676.900,177.500,45.250,10.280,352.800,86.460,21.030,6.719,547.000,134.300,35.020,12.200,baseline
1616.000,452.900,121.900,27.510,679.100,178.300,45.190,10.220,354.200,86.770,21.060,6.731,547.500,135.000,35.030,12.240,baseline
1619.000,457.200,120.600,27.540,681.800,177.500,45.280,10.270,350.900,86.690,21.050,6.753,549.200,135.200,35.130,12.290,baseline
1626.000,460.500,120.100,27.720,682.400,179.100,45.180,10.260,354.100,86.820,21.080,6.744,551.200,135.500,35.340,12.320,baseline
1629.000,460.200,122.000,27.600,680.600,178.300,45.700,10.240,353.000,86.660,21.120,6.731,552.500,136.100,35.390,12.370,baseline
1635.000,457.700,122.200,27.770,686.000,178.400,45.650,10.320,352.900,87.070,21.130,6.761,553.500,136.600,35.480,12.450,baseline
1641.000,462.400,122.400,27.780,687.800,179.500,46.110,10.230,352.800,87.020,21.100,6.745,556.600,137.100,35.760,12.470,baseline
1647.000,463.800,123.300,28.290,689.000,180.300,46.000,10.370,354.300,86.950,21.160,6.748,558.200,137.400,35.800,12.530,baseline
1653.000,466.700,123.700,28.120,693.000,181.300,45.540,10.330,355.600,87.110,21.260,6.780,560.600,138.600,35.990,12.590,baseline
1661.000,468.900,123.700,28.340,690.000,180.800,45.270,10.280,353.000,87.460,21.200,6.769,562.100,138.700,36.070,12.500,baseline
1634.000,458.100,120.700,27.630,681.100,178.200,45.450,10.140,356.500,87.080,21.020,6.704,554.100,135.600,35.270,12.290,baseline
1614.000,455.400,121.000,27.220,672.600,177.300,44.790,10.230,353.300,86.340,20.970,6.691,548.400,134.600,34.750,12.160,baseline
1609.000,451.300,120.400,27.030,682.400,176.500,45.350,10.200,348.300,86.330,20.880,6.678,545.500,133.500,34.660,12.080,baseline
1603.000,450.200,120.100,27.120,677.900,177.900,45.320,10.210,353.900,86.050,20.890,6.670,544.600,133.200,34.520,12.050,baseline
1600.000,452.900,118.500,27.030,676.000,175.700,44.840,10.170,350.700,86.090,20.870,6.671,542.100,133.300,34.530,12.060,baseline
1603.000,452.900,119.400,27.100,676.700,177.500,45.390,10.190,348.000,86.170,20.820,6.683,542.700,133.000,34.600,12.100,baseline
1605.000,450.800,119.000,27.190,680.600,177.600,45.060,10.140,349.400,86.180,20.940,6.694,545.200,133.000,34.680,12.100,baseline
1608.000,451.300,119.300,27.110,678.400,177.700,45.620,10.130,354.100,86.160,20.930,6.681,544.000,133.600,34.630,12.140,baseline
1606.000,449.100,120.000,27.440,679.300,176.800,45.110,10.150,348.400,86.260,20.910,6.695,545.300,133.800,34.700,12.140,baseline
1610.000,455.100,119.600,27.140,681.300,177.400,45.000,10.240,351.800,86.520,20.940,6.684,547.300,134.100,34.900,12.160,baseline
1616.000,454.200,121.000,27.270,676.700,177.600,45.450,10.210,353.300,85.910,21.000,6.708,547.800,134.900,35.030,12.230,baseline
1617.000,452.400,120.200,27.370,679.800,178.600,45.080,10.250,351.100,86.430,20.920,6.709,550.500,135.300,35.010,12.230,baseline
1622.000,452.300,119.900,27.420,687.600,178.500,45.430,10.200,351.400,86.790,21.000,6.712,550.600,135.400,35.270,12.270,baseline
1627.000,460.100,121.100,27.540,687.800,178.700,45.260,10.180,356.300,86.550,21.060,6.721,553.500,135.800,35.370,12.320,baseline
1631.000,459.300,121.600,27.690,688.200,179.600,45.300,10.260,350.200,86.790,21.110,6.722,554.600,136.400,35.540,12.350,baseline
1637.000,461.600,120.900,27.720,683.100,177.800,45.560,10.360,354.500,87.120,21.070,6.738,555.200,136.900,35.680,12.380,baseline
1630.000,453.800,120.500,27.520,685.600,177.300,45.000,10.160,356.200,86.510,21.030,6.695,550.300,134.800,34.900,12.170,baseline
1605.000,450.900,119.700,27.100,672.300,178.100,44.760,10.180,352.500,86.340,20.830,6.657,544.600,133.400,34.570,12.080,baseline
1600.000,450.800,119.300,27.050,673.100,176.500,45.110,10.150,349.700,86.020,20.790,6.658,542.400,132.500,34.320,11.980,baseline
1594.000,448.300,118.400,26.900,673.900,175.900,44.940,10.120,351.000,85.740,20.850,6.646,540.500,132.100,34.310,11.950,baseline
1592.000,445.500,119.600,26.650,677.600,177.700,45.070,10.190,352.300,85.800,20.810,6.646,539.600,131.900,34.240,11.930,baseline
1591.000,447.700,118.800,26.760,678.500,176.500,44.880,10.100,347.100,86.150,20.740,6.656,538.500,132.000,34.160,11.950,baseline
1594.000,450.600,117.300,26.750,679.100,177.100,44.830,10.120,350.800,85.700,20.840,6.654,538.700,132.000,34.260,11.960,baseline
1596.000,447.000,119.400,26.890,677.400,176.400,44.790,10.110,351.900,85.760,20.900,6.670,541.000,132.300,34.300,11.960,baseline
1597.000,445.300,119.000,26.870,678.800,175.800,44.970,10.150,347.900,86.020,20.870,6.673,540.500,132.500,34.370,12.000,baseline
1597.000,448.100,119.300,26.710,671.800,175.900,44.950,10.180,347.600,85.900,20.870,6.661,541.400,132.800,34.570,12.000,baseline
1602.000,450.900,119.500,26.890,670.900,177.300,44.460,10.140,353.100,86.090,20.870,6.670,542.900,133.300,34.530,12.070,baseline
1605.000,446.900,119.400,27.040,686.100,176.800,45.040,10.200,350.500,86.130,20.870,6.680,545.100,133.700,34.710,12.070,baseline
1607.000,451.100,119.600,27.210,679.700,176.500,45.120,10.150,350.800,86.100,20.940,6.699,545.900,134.200,34.870,12.070,baseline
1613.000,452.200,121.000,27.220,672.000,176.800,44.970,10.170,354.400,86.430,21.020,6.701,548.400,134.600,34.860,12.160,baseline
1617.000,455.600,120.800,27.190,682.400,178.900,44.950,10.240,352.300,86.540,20.990,6.729,547.900,135.300,34.890,12.230,baseline
1624.000,456.100,120.900,27.370,682.000,178.200,45.170,10.230,351.400,86.870,20.970,6.710,551.400,135.400,35.200,12.240,baseline
1627.000,455.900,121.800,27.450,685.100,177.100,45.400,10.250,355.000,86.470,21.110,6.700,553.300,136.000,35.450,12.280,baseline
1633.000,459.000,121.900,27.470,682.300,178.900,45.380,10.210,351.200,86.930,21.000,6.719,553.600,135.900,35.220,12.220,baseline
1607.000,451.300,120.300,26.970,678.200,177.100,44.910,10.080,349.700,86.580,20.810,6.662,544.600,133.100,34.390,12.000,baseline
1592.000,447.100,118.600,26.700,675.000,176.200,44.880,10.110,351.500,85.750,20.790,6.638,539.100,131.800,34.090,11.880,baseline
1583.000,446.100,118.500,26.250,678.300,175.600,44.820,10.150,351.100,85.350,20.720,6.633,536.300,131.000,33.910,11.820,baseline
1578.000,445.400,117.200,26.340,675.100,175.700,44.510,10.170,346.400,85.660,20.670,6.632,536.000,130.600,33.750,11.800,baseline
1578.000,442.300,118.000,26.360,675.100,176.100,44.190,10.070,351.200,85.360,20.650,6.631,534.500,130.100,33.830,11.790,baseline
1577.000,440.600,116.600,26.390,675.000,176.000,44.740,10.010,351.800,85.350,20.780,6.625,534.000,130.400,33.740,11.810,baseline
1578.000,442.800,117.000,26.460,676.200,175.000,44.290,10.040,346.000,85.660,20.740,6.630,534.800,130.700,33.780,11.800,baseline
1582.000,439.200,116.900,26.440,674.400,175.000,44.480,10.050,347.400,85.850,20.780,6.642,535.300,130.700,33.930,11.780,baseline
1582.000,443.600,117.100,26.510,669.200,176.800,44.610,10.040,350.000,85.530,20.770,6.650,535.400,130.800,33.990,11.840,baseline
1584.000,448.200,117.800,26.500,676.500,176.800,45.050,10.060,347.500,85.880,20.780,6.665,536.500,131.000,33.910,11.880,baseline
1587.000,443.500,118.000,26.700,674.900,175.700,44.540,10.100,347.400,85.700,20.790,6.664,537.400,131.800,34.140,11.890,baseline
1590.000,444.900,117.600,26.560,673.900,175.500,45.600,10.170,348.800,85.690,20.830,6.681,539.400,131.700,34.180,11.900,baseline
1594.000,444.700,117.300,26.480,674.500,175.200,44.660,10.190,351.500,85.850,20.830,6.665,540.400,132.300,34.120,11.980,baseline
1597.000,451.400,117.900,26.740,681.200,176.400,44.940,10.040,347.200,85.900,20.900,6.669,542.100,132.800,34.510,11.970,baseline
1602.000,451.000,119.400,26.730,680.500,176.700,44.920,10.100,352.700,86.150,20.910,6.681,542.600,133.200,34.520,12.020,baseline
1606.000,451.900,118.900,27.060,675.500,179.900,44.620,10.130,352.300,86.110,20.940,6.700,544.400,133.900,34.620,12.070,baseline
1610.000,451.600,119.900,27.070,683.400,177.200,45.170,10.150,347.800,86.710,20.940,6.681,547.200,134.300,34.780,12.120,baseline
1616.000,454.300,120.200,27.140,681.300,178.000,45.090,10.110,350.900,86.350,20.970,6.713,550.200,134.600,34.990,12.160,baseline
1619.000,453.000,120.300,26.910,680.300,178.000,44.730,10.130,354.300,86.310,20.920,6.703,545.200,133.400,34.340,11.970,baseline
1588.000,446.200,117.800,26.460,678.700,175.800,44.490,10.050,345.400,85.720,20.750,6.669,538.300,131.200,33.850,11.790,baseline
1580.000,443.500,117.400,26.370,669.700,175.900,44.170,10.080,350.600,85.330,20.730,6.618,534.100,130.400,33.750,11.690,baseline
1572.000,442.800,115.500,26.250,669.600,175.600,44.290,10.060,346.600,85.190,20.690,6.616,532.400,129.800,33.400,11.730,baseline
1570.000,440.800,117.000,26.160,673.800,175.400,44.430,10.060,347.500,85.380,20.690,6.623,530.200,129.600,33.450,11.680,baseline
1567.000,440.000,116.400,26.200,675.700,173.800,44.350,10.100,347.400,85.500,20.710,6.635,531.100,129.300,33.490,11.660,baseline
1571.000,438.800,117.000,26.190,671.900,174.200,44.890,10.010,351.000,85.370,20.720,6.620,531.300,129.900,33.500,11.660,baseline
1570.000,441.900,116.600,26.290,667.000,174.900,44.550,10.040,347.300,85.380,20.680,6.636,531.400,129.700,33.460,11.710,baseline
1572.000,441.000,116.300,26.300,672.300,176.600,45.100,10.080,347.200,85.410,20.720,6.649,533.000,129.700,33.690,11.700,baseline
1574.000,439.800,116.600,26.120,673.900,176.300,44.660,10.070,349.400,85.410,20.790,6.628,533.000,130.200,33.700,11.750,baseline
1577.000,443.800,117.000,26.130,675.700,176.800,44.620,10.160,348.400,85.340,20.740,6.647,533.700,130.400,33.700,11.770,baseline
1581.000,446.500,117.400,26.680,677.300,175.000,44.520,10.140,347.200,85.750,20.760,6.638,535.300,131.100,33.970,11.770,baseline
1584.000,445.600,117.900,26.650,678.000,176.600,44.750,10.100,351.400,85.780,20.820,6.655,536.400,130.900,34.010,11.850,baseline
1587.000,446.300,117.300,26.690,674.600,175.900,44.690,10.090,349.200,85.880,20.810,6.679,538.300,131.900,34.070,11.870,baseline
1592.000,447.300,119.000,26.520,673.500,175.900,44.760,10.130,346.500,86.030,20.860,6.667,539.300,132.000,34.230,11.880,baseline
1597.000,447.200,119.100,26.810,677.300,176.000,45.160,10.110,351.100,85.790,20.940,6.659,541.400,132.600,34.370,11.960,baseline
1601.000,449.400,118.800,26.860,676.700,177.800,44.950,10.170,350.900,86.020,20.900,6.681,542.400,133.100,34.470,12.000,baseline
1606.000,448.900,120.100,26.870,679.700,176.600,44.860,10.100,348.900,86.570,20.940,6.688,544.000,133.200,34.420,11.910,baseline
1591.000,445.100,117.200,26.380,674.200,177.100,44.860,10.120,350.300,85.630,20.840,6.646,536.100,130.700,33.840,11.750,baseline
1580.000,442.500,117.300,26.360,675.500,176.000,44.660,10.040,349.500,85.430,20.730,6.626,532.600,129.700,33.620,11.690,baseline
1575.000,445.600,115.900,26.470,675.500,177.000,44.340,10.020,344.900,85.440,20.680,6.618,530.800,129.600,33.490,11.670,baseline
1569.000,442.900,117.000,26.110,673.100,177.600,44.580,10.040,347.300,85.150,20.690,6.624,530.800,129.200,33.430,11.620,baseline
1571.000,442.000,117.400,26.150,670.400,175.900,44.170,10.060,349.100,85.240,20.690,6.625,529.700,129.100,33.330,11.600,baseline
1572.000,443.400,115.800,26.220,671.100,174.600,44.020,9.978,345.300,85.150,20.740,6.641,529.700,129.400,33.450,11.650,baseline
1572.000,442.600,116.700,26.400,672.000,175.400,44.630,10.060,345.500,85.470,20.790,6.637,531.000,129.500,33.560,11.640,baseline
1574.000,444.000,117.400,26.190,667.700,175.300,44.420,9.980,350.500,85.260,20.780,6.647,531.800,129.500,33.490,11.660,baseline
1576.000,442.900,116.500,26.280,667.500,174.500,44.850,10.010,345.000,85.550,20.750,6.647,531.800,130.000,33.570,11.700,baseline
1580.000,442.200,117.700,26.440,682.100,176.500,44.600,10.060,347.400,85.400,20.740,6.650,532.800,130.300,33.760,11.760,baseline
1584.000,446.500,118.600,26.700,674.400,176.300,44.550,10.030,348.600,85.310,20.860,6.667,534.900,130.500,33.820,11.780,baseline
1587.000,445.300,117.900,26.690,669.600,175.400,44.530,10.150,349.200,85.780,20.830,6.655,535.200,131.100,33.870,11.830,baseline
1593.000,447.900,118.900,26.910,678.200,175.700,44.930,10.080,347.800,86.160,20.830,6.666,538.100,131.300,34.080,11.860,baseline
1595.000,450.300,119.200,26.900,675.700,176.100,45.100,10.150,350.200,85.890,20.910,6.664,539.900,131.800,34.140,11.890,baseline
1599.000,448.700,119.300,26.890,671.400,177.000,44.790,10.210,352.000,86.010,20.860,6.683,541.100,132.100,34.180,11.930,baseline
1605.000,448.500,119.900,27.010,677.900,175.800,44.740,10.140,349.400,86.120,20.900,6.705,541.900,133.100,34.380,11.970,baseline
1608.000,452.200,119.500,26.990,675.300,177.200,44.970,10.100,351.900,85.990,20.920,6.682,544.300,133.400,34.580,12.020,baseline
1614.000,453.900,119.300,26.940,685.900,177.600,45.040,10.140,354.200,86.330,20.960,6.706,543.100,132.900,34.220,11.890,baseline
1590.000,451.000,117.900,26.850,675.200,175.900,44.940,10.040,343.800,85.980,20.780,6.656,535.500,130.500,33.580,11.720,baseline
1580.000,446.000,117.900,26.430,674.000,175.200,44.420,10.080,345.400,85.400,20.700,6.620,530.500,129.300,33.450,11.600,baseline
1573.000,439.400,117.500,26.290,675.700,176.100,44.530,10.050,349.900,85.030,20.710,6.619,527.700,128.700,33.190,11.590,baseline
1568.000,440.300,116.300,26.390,674.700,174.600,44.380,10.010,344.900,85.050,20.650,6.633,527.900,128.500,33.240,11.540,baseline
1570.000,441.300,115.700,26.170,669.500,174.800,44.960,10.090,347.300,85.250,20.660,6.624,527.400,128.200,33.240,11.590,baseline
1570.000,439.700,116.800,26.210,673.000,176.000,44.380,10.060,351.500,85.250,20.720,6.630,528.000,128.400,33.260,11.580,baseline
1573.000,441.600,116.500,26.610,673.800,174.000,44.560,9.938,349.300,85.780,20.670,6.647,526.700,128.800,33.290,11.640,baseline
1576.000,444.000,116.700,26.490,671.800,174.600,44.570,10.060,345.100,85.540,20.690,6.646,528.300,128.900,33.450,11.600,baseline
1577.000,443.300,117.900,26.460,670.600,175.500,44.830,10.060,348.000,85.160,20.750,6.656,530.200,129.300,33.480,11.650,baseline
1582.000,444.800,117.900,26.650,676.300,176.700,44.920,10.090,345.900,85.360,20.840,6.673,530.200,129.400,33.510,11.720,baseline
1583.000,447.100,117.500,26.820,674.600,176.500,44.810,10.050,343.200,85.830,20.740,6.670,531.200,129.900,33.660,11.740,baseline
1585.000,444.500,119.200,26.900,673.600,175.900,44.720,10.060,350.500,85.470,20.850,6.670,533.800,130.300,33.880,11.750,baseline
1591.000,448.000,118.700,26.860,676.600,176.300,44.700,10.070,348.200,85.760,20.800,6.685,533.800,130.800,33.800,11.830,baseline
1596.000,449.800,119.500,26.990,677.300,175.400,44.870,10.240,346.900,85.830,20.840,6.693,535.800,131.200,33.980,11.850,baseline
1601.000,450.600,120.400,27.040,681.800,178.100,45.150,10.140,349.400,85.790,20.920,6.700,538.200,131.600,34.090,11.860,baseline
1607.000,454.700,120.800,27.150,681.100,176.200,44.840,10.140,353.800,85.830,20.950,6.698,538.200,131.800,34.230,11.930,baseline
1611.000,452.000,119.800,27.390,681.100,177.700,45.290,10.230,348.000,86.080,20.910,6.721,541.400,132.700,34.390,11.980,baseline
1615.000,455.500,121.100,27.210,685.100,176.400,45.110,10.210,350.400,86.250,21.020,6.711,542.800,133.200,34.550,12.030,baseline
1620.000,454.800,120.500,27.350,686.300,177.900,45.230,10.130,352.600,86.530,21.020,6.704,543.100,132.300,34.210,11.920,baseline
1596.000,447.800,118.600,26.740,676.900,175.500,44.620,10.060,347.800,86.100,20.780,6.663,534.000,130.200,33.650,11.750,baseline
1587.000,444.600,117.600,26.620,677.400,175.900,44.400,10.070,346.500,85.740,20.680,6.642,531.200,129.300,33.410,11.650,baseline
1579.000,444.300,118.100,26.340,675.600,175.500,44.490,10.150,351.700,85.340,20.670,6.616,528.000,128.500,33.390,11.620,baseline
1577.000,446.400,118.200,26.460,669.200,175.300,44.740,10.070,347.200,85.110,20.710,6.618,526.600,128.800,33.200,11.600,baseline
1577.000,441.700,117.800,26.460,673.000,176.000,44.500,10.080,344.400,85.090,20.700,6.634,527.500,128.600,33.250,11.600,baseline
1578.000,446.300,119.800,26.450,672.900,177.300,44.430,9.981,349.700,85.250,20.750,6.631,528.000,128.500,33.420,11.620,baseline
1581.000,445.600,117.300,26.600,673.300,175.300,44.400,10.090,346.700,85.190,20.750,6.641,527.400,128.900,33.350,11.680,baseline
1582.000,444.100,117.600,26.700,671.400,175.600,44.790,10.140,343.200,85.550,20.710,6.645,528.300,129.100,33.480,11.680,baseline
1585.000,447.000,118.200,26.690,675.300,174.100,44.720,10.100,346.800,85.470,20.760,6.645,528.500,129.000,33.540,11.690,baseline
1589.000,448.100,119.200,26.900,677.300,175.700,44.880,10.130,347.600,85.250,20.780,6.654,530.100,129.300,33.580,11.730,baseline
1594.000,446.600,119.200,26.890,674.800,175.100,44.980,10.160,345.000,85.730,20.760,6.670,531.700,129.800,33.730,11.730,baseline
1594.000,448.500,119.300,26.790,677.400,175.400,44.530,10.180,349.800,85.560,20.870,6.661,533.500,130.200,33.830,11.810,baseline
1600.000,452.300,120.100,26.920,677.600,176.800,44.760,10.090,349.100,85.790,20.880,6.674,534.500,130.800,33.890,11.830,baseline
1602.000,452.400,120.900,27.060,680.500,176.900,44.900,10.120,345.500,85.820,20.790,6.688,535.600,131.500,34.000,11.900,baseline
1608.000,452.200,120.700,27.260,675.900,176.100,44.980,10.180,348.900,86.040,20.860,6.682,537.500,131.500,34.250,11.900,baseline
1614.000,455.300,120.500,27.230,683.000,177.200,45.180,10.160,351.000,85.800,20.920,6.685,539.100,132.400,34.240,11.970,baseline
1615.000,453.400,121.200,27.260,677.500,177.600,45.470,10.200,348.300,86.030,20.920,6.701,540.400,132.700,34.450,12.040,baseline
1618.000,452.800,120.600,27.340,679.600,177.100,45.030,10.090,350.400,86.010,20.920,6.697,538.900,131.200,33.980,11.850,baseline
1595.000,447.200,118.200,26.920,677.900,177.000,44.540,10.060,351.900,85.460,20.770,6.649,532.700,129.800,33.650,11.730,baseline
1590.000,445.000,117.900,26.830,671.700,176.000,45.040,10.080,345.600,85.410,20.740,6.643,530.100,129.100,33.460,11.700,baseline
1587.000,449.600,118.000,26.790,669.400,176.000,44.600,10.090,344.000,85.490,20.700,6.645,528.900,129.000,33.490,11.660,baseline
1586.000,444.800,118.700,26.620,675.500,175.800,44.890,10.110,349.500,85.120,20.750,6.609,529.200,128.800,33.360,11.660,baseline
1586.000,442.200,119.400,26.770,674.000,175.700,44.730,10.130,348.800,85.160,20.770,6.638,528.000,129.100,33.360,11.680,baseline
1587.000,447.700,117.500,26.660,671.000,176.800,44.520,10.130,344.300,85.570,20.700,6.641,529.000,129.100,33.470,11.690,baseline
1589.000,449.200,118.400,26.830,678.300,176.300,45.360,10.130,348.200,85.210,20.780,6.643,530.700,129.400,33.630,11.710,baseline
1591.000,448.100,119.000,26.760,673.100,177.100,44.530,10.010,347.900,85.510,20.720,6.638,529.900,129.800,33.550,11.750,baseline
1594.000,446.700,117.900,26.810,682.400,175.100,44.970,10.130,345.300,85.760,20.750,6.651,530.100,129.900,33.670,11.750,baseline
1597.000,450.000,119.300,26.960,674.500,175.100,44.820,10.080,350.200,85.610,20.800,6.643,532.600,130.200,33.950,11.800,baseline
1600.000,450.100,119.700,27.010,676.400,176.100,44.680,10.060,350.300,85.590,20.810,6.664,535.600,130.600,33.910,11.850,baseline
1602.000,450.700,119.700,27.050,673.700,176.500,44.850,10.130,346.600,85.910,20.830,6.673,536.400,131.500,33.930,11.860,baseline
1608.000,454.800,120.000,27.150,677.400,175.600,45.110,10.200,348.100,86.020,20.880,6.674,538.300,131.400,34.320,11.920,baseline
1612.000,452.900,120.900,27.140,678.600,176.300,45.040,10.130,352.600,85.590,20.880,6.675,540.400,132.100,34.370,11.950,baseline
1616.000,458.400,122.000,27.160,676.400,177.000,44.830,10.250,347.500,86.150,20.830,6.680,541.000,132.700,34.410,12.020,baseline
1620.000,457.900,122.000,27.190,682.200,179.100,44.920,10.130,349.600,86.250,20.860,6.689,543.600,133.100,34.650,12.030,baseline
1626.000,461.700,121.900,27.420,687.300,177.700,44.540,10.130,352.500,86.000,20.970,6.684,543.500,132.800,34.360,11.930,baseline
1602.000,448.200,120.000,26.960,680.600,175.200,44.610,10.080,348.500,85.870,20.770,6.636,535.200,130.500,33.820,11.780,baseline
1593.000,448.200,119.200,26.770,676.300,175.100,44.560,9.991,344.000,85.530,20.660,6.600,531.700,129.600,33.570,11.690,baseline
1583.000,445.600,118.200,26.540,674.200,177.000,44.100,10.030,349.600,85.060,20.630,6.593,528.000,128.600,33.420,11.680,baseline
1581.000,444.500,119.000,26.660,673.200,175.300,44.950,10.110,346.700,85.100,20.620,6.596,526.900,128.600,33.200,11.650,baseline
1581.000,447.700,118.800,26.670,665.800,176.100,44.650,10.070,342.200,85.090,20.590,6.614,526.600,128.600,33.370,11.640,baseline
1581.000,446.800,118.300,26.510,668.900,174.200,44.800,10.070,349.500,84.880,20.620,6.601,527.300,128.900,33.430,11.650,baseline
1583.000,447.100,118.700,26.720,672.400,175.400,45.020,10.050,347.600,84.980,20.610,6.624,528.000,128.900,33.420,11.660,baseline
1586.000,448.800,118.500,26.680,678.500,175.600,44.910,10.090,345.400,85.190,20.660,6.619,529.400,129.100,33.510,11.670,baseline
1587.000,445.700,117.800,26.770,677.600,176.600,45.310,10.060,346.900,85.110,20.710,6.627,530.100,129.400,33.650,11.710,baseline
1591.000,449.500,119.000,26.690,676.000,176.200,44.600,10.100,349.700,85.060,20.700,6.618,530.700,130.000,33.690,11.780,baseline
1592.000,448.900,118.600,26.820,666.100,174.400,45.000,10.140,342.800,85.450,20.730,6.625,532.100,130.300,33.740,11.820,baseline
1596.000,449.800,119.700,26.740,678.000,175.400,44.590,10.110,346.200,85.520,20.760,6.645,534.400,130.500,33.980,11.840,baseline
1599.000,450.200,120.100,26.920,678.400,175.900,44.740,10.050,350.200,85.490,20.860,6.652,535.700,131.500,34.180,11.900,baseline
1605.000,452.200,119.900,27.020,675.200,176.500,45.020,10.130,347.000,85.740,20.830,6.660,536.700,131.700,34.190,11.940,baseline
1608.000,453.200,120.800,27.150,674.000,176.800,44.840,10.090,347.000,85.710,20.820,6.654,539.100,132.100,34.360,11.970,baseline
1613.000,454.400,121.100,27.260,674.400,178.200,44.740,10.100,351.700,85.860,20.830,6.658,541.200,132.600,34.410,12.040,baseline
1619.000,455.200,121.400,27.210,682.600,176.700,45.360,10.100,350.100,86.080,20.820,6.690,542.800,133.200,34.680,12.060,baseline
1626.000,457.100,120.800,27.290,674.500,177.500,45.140,10.200,348.300,86.110,20.940,6.691,545.900,134.000,34.830,12.110,baseline
1623.000,454.000,120.300,27.190,679.900,177.400,44.810,10.040,354.100,86.000,20.870,6.651,541.500,131.900,34.130,11.880,baseline
1596.000,447.400,118.900,26.680,675.800,175.200,44.780,9.962,348.800,85.240,20.660,6.608,532.300,129.900,33.660,11.770,baseline
1589.000,448.700,118.300,26.640,672.500,175.400,44.780,9.924,344.200,84.950,20.580,6.598,529.200,129.200,33.480,11.690,baseline
1578.000,442.100,117.800,26.560,669.800,174.800,44.170,10.030,346.700,84.900,20.590,6.580,528.800,128.700,33.320,11.630,baseline
1578.000,444.000,117.800,26.460,672.500,174.400,44.180,10.010,347.200,84.910,20.560,6.579,526.900,128.300,33.250,11.640,baseline
1578.000,444.900,118.100,26.630,670.000,175.400,44.440,10.010,343.400,85.030,20.540,6.587,526.000,128.500,33.330,11.640,baseline
1578.000,449.300,117.700,26.490,676.200,175.000,44.230,10.010,346.800,84.930,20.640,6.570,527.100,128.500,33.380,11.660,baseline
1584.000,441.700,117.500,26.580,663.900,175.000,44.520,10.030,346.300,84.770,20.650,6.576,528.200,128.900,33.470,11.710,baseline
1584.000,444.000,118.000,26.440,671.100,175.800,44.800,10.010,342.700,85.100,20.570,6.602,528.800,129.300,33.460,11.690,baseline
1586.000,444.600,118.000,26.730,672.600,172.900,44.480,10.080,345.700,85.000,20.670,6.593,529.900,129.400,33.630,11.700,baseline
1587.000,448.000,118.800,26.420,669.700,176.300,44.570,9.965,346.400,84.850,20.650,6.592,531.100,129.800,33.760,11.770,baseline
1592.000,448.400,118.700,26.710,673.200,175.000,44.720,10.080,344.300,85.440,20.640,6.613,531.700,130.500,33.790,11.820,baseline
1594.000,447.300,120.100,26.880,669.300,174.600,44.670,10.090,345.200,85.220,20.670,6.627,534.400,130.400,33.930,11.840,baseline
1598.000,453.900,119.400,26.940,678.700,175.100,44.730,10.050,348.800,85.380,20.730,6.609,535.300,131.100,34.090,11.880,baseline
1604.000,454.600,120.000,26.850,675.500,175.200,44.700,9.970,346.700,85.650,20.680,6.635,536.800,131.500,34.180,11.950,baseline
1608.000,451.200,119.600,26.960,677.400,176.000,44.700,10.070,348.700,85.630,20.760,6.633,539.000,132.000,34.380,11.950,baseline
1612.000,453.200,120.900,27.060,676.900,176.100,44.860,10.090,349.200,85.660,20.800,6.641,542.000,132.800,34.590,12.030,baseline
1618.000,455.900,122.100,27.240,680.600,178.300,44.810,10.030,350.400,86.040,20.780,6.645,543.100,133.300,34.500,12.030,baseline
1603.000,451.900,120.100,26.820,673.600,175.600,44.530,9.963,344.200,86.000,20.730,6.610,536.300,130.500,33.950,11.800,baseline
1591.000,448.700,119.300,26.530,669.100,174.500,44.450,9.908,347.000,85.020,20.640,6.571,532.100,129.700,33.610,11.720,baseline
1585.000,444.900,117.700,26.520,673.300,175.400,44.540,9.938,347.900,85.090,20.570,6.557,529.400,129.100,33.470,11.690,baseline
1581.000,447.900,118.300,26.630,674.800,175.200,44.460,9.959,344.300,85.100,20.580,6.574,528.800,129.000,33.410,11.670,baseline
1582.000,445.000,118.200,26.550,672.700,175.000,44.230,9.917,348.300,84.920,20.620,6.568,527.500,128.500,33.410,11.650,baseline
1581.000,446.700,118.100,26.590,672.100,173.900,44.080,10.020,348.000,84.900,20.630,6.581,529.000,128.900,33.470,11.670,baseline
1581.000,449.100,117.700,26.620,680.000,175.900,44.530,9.925,344.900,85.030,20.610,6.601,529.200,129.100,33.440,11.690,baseline
1583.000,442.900,119.100,26.660,672.500,174.100,44.230,10.030,345.400,84.950,20.640,6.601,529.900,129.300,33.650,11.680,baseline
1585.000,444.700,118.300,26.690,675.500,175.300,44.410,9.955,349.700,85.040,20.670,6.591,530.600,129.700,33.670,11.740,baseline
1587.000,447.200,118.900,26.670,677.000,175.000,44.420,9.946,344.300,85.390,20.660,6.611,531.100,129.900,33.730,11.780,baseline
1592.000,451.600,118.700,26.770,676.400,175.700,44.300,10.020,346.100,85.310,20.740,6.609,534.200,129.800,33.900,11.830,baseline
1594.000,448.000,118.800,26.780,674.200,175.500,44.370,10.060,349.100,85.190,20.760,6.618,535.200,130.800,34.000,11.870,baseline
1599.000,450.800,119.300,26.850,672.800,175.700,44.410,10.050,347.800,85.560,20.740,6.640,536.200,131.400,34.070,11.910,baseline
1603.000,448.800,118.800,26.870,670.900,176.000,44.630,10.050,346.500,85.690,20.850,6.644,537.700,131.600,34.270,11.950,baseline
1605.000,453.000,120.100,27.080,678.100,177.000,44.790,10.180,351.500,85.820,20.810,6.652,539.900,132.400,34.460,12.030,baseline
1611.000,453.300,120.400,27.330,677.000,176.900,45.090,10.040,349.800,86.190,20.820,6.654,541.600,132.900,34.400,12.010,baseline
1603.000,450.200,118.700,26.800,680.300,175.900,44.680,9.953,347.700,85.600,20.780,6.615,536.400,130.900,33.870,11.810,baseline
1587.000,443.700,117.600,26.500,678.600,174.300,44.690,9.961,349.400,85.210,20.740,6.594,532.800,129.800,33.800,11.750,baseline
1584.000,444.400,117.800,26.560,677.800,174.600,44.610,10.010,348.600,85.230,20.650,6.605,530.800,129.600,33.580,11.710,baseline
1582.000,445.500,117.300,26.240,677.000,174.500,44.430,9.954,345.300,85.250,20.680,6.597,529.900,129.500,33.560,11.710,baseline
1581.000,445.500,117.700,26.440,677.200,175.200,44.590,9.964,349.600,84.900,20.700,6.589,529.300,129.000,33.490,11.690,baseline
1582.000,445.900,117.200,26.610,672.400,175.300,44.780,10.000,348.600,85.140,20.640,6.610,530.800,129.400,33.570,11.740,baseline
1584.000,444.700,117.900,26.730,672.400,176.100,44.350,9.954,346.700,85.230,20.710,6.619,531.200,129.800,33.660,11.780,baseline
1586.000,446.200,118.200,26.610,671.100,176.100,44.560,10.080,348.500,85.580,20.770,6.630,531.200,130.000,33.720,11.730,baseline
1586.000,446.100,118.100,26.590,670.800,175.900,44.590,9.990,349.100,85.320,20.740,6.607,533.200,130.000,33.720,11.790,baseline
1589.000,448.900,119.900,26.640,677.200,176.000,44.750,10.120,345.200,85.520,20.710,6.629,534.900,130.500,33.820,11.800,baseline
1594.000,450.800,118.700,26.810,670.200,174.400,44.760,9.948,350.100,85.610,20.800,6.634,537.200,130.900,33.960,11.860,baseline
1597.000,449.400,118.600,26.930,675.900,175.800,44.590,10.020,349.400,85.510,20.820,6.640,536.600,131.300,34.110,11.900,baseline
1602.000,451.400,119.700,26.900,681.200,175.500,45.300,9.977,347.700,85.720,20.800,6.651,538.100,131.700,34.250,11.960,baseline
1606.000,452.900,119.000,26.780,678.100,174.400,45.060,10.030,347.900,86.140,20.850,6.656,540.400,132.300,34.430,11.970,baseline
1608.000,450.700,119.900,26.890,681.400,176.500,44.600,10.140,353.000,86.020,20.970,6.659,543.300,133.000,34.620,12.050,baseline
1613.000,455.000,120.700,27.210,673.800,176.100,45.040,10.140,350.500,86.210,20.970,6.685,544.900,133.300,34.460,12.070,baseline
1605.000,451.300,117.800,26.920,680.200,176.600,44.250,9.984,349.100,86.020,20.790,6.646,537.400,131.200,33.890,11.810,baseline
1586.000,449.800,118.100,26.660,678.900,175.600,44.100,10.080,349.800,85.360,20.730,6.597,531.500,129.300,33.610,11.720,baseline
1578.000,440.200,117.400,26.410,673.000,176.500,44.160,9.918,349.400,85.200,20.660,6.602,530.300,129.100,33.390,11.690,baseline
1572.000,442.900,116.100,26.440,670.200,176.600,44.390,10.010,343.400,85.230,20.630,6.623,530.000,128.900,33.360,11.650,baseline
1573.000,442.000,117.200,26.350,671.800,173.300,44.370,9.986,348.200,85.060,20.630,6.596,527.300,128.300,33.370,11.640,baseline
1574.000,442.200,116.000,26.450,667.100,175.300,44.670,10.040,350.400,85.160,20.690,6.596,529.400,128.500,33.400,11.680,baseline
1575.000,443.700,116.800,26.550,669.600,173.300,44.200,10.070,345.500,85.480,20.680,6.621,528.400,128.900,33.470,11.700,baseline
1576.000,441.800,117.600,26.490,666.200,175.200,44.470,9.965,347.600,85.140,20.700,6.638,530.600,128.800,33.580,11.700,baseline
1579.000,442.600,117.300,26.520,673.100,175.300,44.270,10.060,347.400,85.240,20.770,6.641,530.200,129.300,33.550,11.730,baseline
1584.000,445.500,118.200,26.710,672.500,175.500,44.310,10.040,347.000,85.500,20.700,6.633,531.900,129.500,33.750,11.770,baseline
1586.000,443.400,119.300,26.620,676.300,175.300,44.450,9.972,347.900,85.520,20.780,6.639,532.700,129.800,33.780,11.800,baseline
1590.000,445.800,118.900,26.510,672.300,175.300,44.860,10.130,351.000,85.730,20.800,6.636,534.800,130.400,33.920,11.840,baseline
1593.000,449.700,118.600,26.810,673.000,176.300,45.130,9.999,349.300,85.760,20.760,6.683,536.900,131.200,34.060,11.930,baseline
1597.000,446.200,118.400,27.070,669.600,175.400,44.600,10.120,348.900,85.860,20.840,6.667,538.000,131.500,34.140,11.950,baseline
1604.000,448.000,120.800,26.960,670.000,175.700,45.060,10.010,350.400,85.740,20.940,6.669,541.500,132.300,34.330,11.970,baseline
1607.000,452.200,120.900,27.210,674.400,175.700,44.360,10.110,352.500,85.950,20.910,6.673,541.600,132.600,34.430,12.040,baseline
1613.000,452.600,120.900,27.260,683.100,175.900,44.780,10.090,348.500,86.270,21.000,6.698,543.600,133.100,34.670,12.050,baseline
1617.000,451.900,120.900,27.310,675.300,177.900,44.810,10.060,352.700,86.380,20.980,6.684,546.400,133.800,34.870,12.140,baseline
1623.000,457.100,120.600,27.550,684.600,178.000,44.710,10.070,354.100,86.410,21.010,6.700,547.700,134.000,34.630,12.050,baseline
1601.000,451.600,118.900,26.720,676.400,176.000,44.790,9.977,344.500,85.900,20.810,6.640,537.700,130.600,33.940,11.840,baseline
1585.000,446.000,118.600,26.650,669.000,174.200,44.320,10.040,347.400,85.390,20.680,6.603,532.800,129.500,33.630,11.730,baseline
1575.000,445.500,117.100,26.530,675.900,174.700,43.910,10.080,349.600,84.910,20.640,6.598,528.600,128.700,33.320,11.640,baseline
1569.000,443.100,116.800,26.240,676.100,174.700,44.500,9.948,345.200,85.020,20.600,6.605,526.600,128.100,33.250,11.620,baseline
1567.000,439.900,117.100,26.280,668.700,174.000,44.390,9.919,346.400,84.900,20.700,6.588,526.700,128.000,33.350,11.610,baseline
1570.000,437.600,116.200,26.410,677.600,175.500,44.390,9.943,351.500,84.780,20.660,6.603,526.900,128.100,33.320,11.600,baseline
1572.000,439.200,117.500,26.450,677.800,173.400,44.610,10.080,344.900,85.190,20.630,6.614,527.400,128.500,33.260,11.660,baseline
1571.000,440.100,118.200,26.720,671.300,174.900,44.440,9.921,346.500,84.970,20.660,6.619,527.700,128.500,33.340,11.640,baseline
1576.000,444.000,117.900,26.550,672.100,175.600,44.620,9.921,348.400,85.000,20.660,6.621,528.300,128.700,33.430,11.690,baseline
1577.000,444.800,117.900,26.580,669.300,175.200,44.640,9.926,349.700,85.290,20.660,6.623,529.600,129.100,33.490,11.730,baseline
1581.000,443.500,118.200,26.440,668.300,174.600,44.470,10.050,345.800,85.430,20.720,6.620,531.600,129.300,33.610,11.750,baseline
1585.000,444.700,119.300,26.720,679.800,175.300,44.670,10.070,348.400,85.360,20.750,6.635,533.700,129.700,33.710,11.770,baseline
1588.000,447.700,119.400,26.620,681.400,176.100,44.690,10.060,347.400,85.360,20.710,6.619,533.800,130.400,33.820,11.810,baseline
1593.000,447.900,118.900,26.730,679.700,176.100,44.860,9.985,343.700,85.690,20.790,6.636,535.900,130.800,33.960,11.860,baseline
1598.000,450.600,119.800,26.910,682.300,174.900,44.550,10.070,348.600,85.600,20.800,6.641,538.100,131.300,34.310,11.920,baseline
1603.000,451.100,120.700,27.040,677.900,178.100,44.700,10.110,349.200,86.010,20.860,6.660,539.800,131.900,34.200,11.960,baseline
1608.000,452.200,120.800,27.190,682.500,176.500,45.040,9.985,346.600,86.210,20.820,6.663,542.600,132.500,34.460,12.040,baseline
1614.000,449.500,120.400,27.370,679.000,176.100,44.970,9.997,351.000,86.040,20.920,6.668,544.100,133.000,34.590,12.050,baseline
1619.000,455.100,121.000,27.430,676.500,177.200,45.480,10.180,352.400,86.180,20.970,6.687,546.200,133.800,34.720,12.100,baseline
1610.000,457.200,120.100,26.980,677.500,176.500,44.460,10.030,353.200,86.100,20.830,6.645,538.400,131.100,33.930,11.850,baseline
1585.000,443.400,117.800,26.740,677.700,174.200,44.960,10.000,346.400,85.440,20.690,6.593,531.500,129.100,33.560,11.720,baseline
1577.000,442.700,117.400,26.280,676.300,175.000,44.570,10.020,347.800,84.980,20.650,6.584,527.700,128.100,33.180,11.640,baseline
1567.000,440.100,116.400,26.340,670.500,174.800,44.440,9.957,345.700,85.050,20.620,6.601,525.200,128.000,33.060,11.610,baseline
1566.000,439.400,116.600,26.320,678.700,174.400,44.520,9.956,343.600,84.960,20.580,6.579,524.100,127.300,33.090,11.560,baseline
1568.000,436.800,117.100,26.240,670.300,174.200,44.240,9.997,345.300,84.660,20.630,6.589,525.800,127.400,33.160,11.590,baseline
1568.000,447.800,116.500,26.460,674.400,175.300,44.330,9.998,345.400,85.140,20.540,6.611,525.400,127.600,33.170,11.620,baseline
1570.000,439.900,117.000,26.260,672.200,175.200,44.680,10.030,342.700,85.230,20.590,6.598,526.700,128.300,33.290,11.610,baseline
1573.000,440.700,117.700,26.430,666.300,174.700,44.220,9.997,347.300,84.930,20.590,6.613,527.600,128.100,33.290,11.660,baseline
1585.000,449.400,117.300,26.760,667.400,176.300,44.280,9.952,345.700,85.170,20.730,6.617,531.400,129.800,33.630,11.780,easy
1588.000,450.700,119.500,26.760,678.800,175.400,44.750,9.955,347.500,85.330,20.720,6.622,533.800,130.200,33.940,11.790,easy
1595.000,446.800,119.400,26.850,674.100,176.500,44.880,10.000,347.700,85.400,20.770,6.612,536.000,130.900,34.050,11.880,easy
1598.000,448.200,119.900,27.050,675.200,174.800,44.780,10.100,347.700,85.640,20.780,6.630,537.700,131.400,34.170,11.910,easy
1604.000,458.100,119.800,26.990,672.400,175.300,45.230,10.010,346.900,85.820,20.810,6.660,540.000,131.900,34.340,11.970,easy
1610.000,455.400,121.200,27.180,672.400,175.200,44.540,10.120,348.600,85.660,20.860,6.660,542.000,132.300,34.540,11.970,easy
1601.000,449.500,119.300,26.910,677.100,175.700,44.650,9.956,351.600,85.660,20.760,6.628,535.200,130.300,33.710,11.780,easy
1579.000,444.000,117.500,26.690,680.900,175.700,44.360,9.945,344.200,85.310,20.570,6.583,529.600,128.800,33.310,11.660,easy
1572.000,443.200,117.100,26.300,672.800,175.600,44.530,9.923,344.500,84.820,20.550,6.588,526.800,128.000,33.300,11.610,easy
1565.000,438.500,117.100,26.140,671.000,175.800,44.090,9.937,347.900,84.790,20.560,6.555,524.800,127.800,33.180,11.610,easy
1567.000,442.700,117.200,26.320,670.900,173.500,44.480,9.975,345.000,84.830,20.620,6.573,523.600,127.600,33.140,11.600,easy
1566.000,441.000,117.300,26.280,673.400,175.900,44.470,9.934,342.500,84.980,20.580,6.586,523.800,127.700,33.250,11.570,easy
1568.000,440.700,117.600,26.130,666.700,174.700,44.740,9.981,348.800,84.610,20.660,6.581,525.800,127.700,33.420,11.610,easy
1571.000,442.700,117.600,26.410,671.300,174.700,44.470,9.937,346.200,84.960,20.630,6.595,525.800,128.000,33.240,11.640,easy
1573.000,441.400,117.800,26.420,675.400,174.500,44.690,9.946,343.200,85.200,20.700,6.594,527.100,128.300,33.490,11.680,easy
1575.000,444.600,117.900,26.430,673.100,174.700,44.270,9.948,348.000,85.230,20.680,6.587,527.700,128.900,33.530,11.750,easy
1579.000,444.900,118.200,26.550,677.700,174.900,44.440,10.000,347.300,84.970,20.720,6.607,530.500,129.200,33.550,11.760,easy
1582.000,445.500,119.700,26.640,674.700,175.900,44.650,9.985,343.500,85.370,20.720,6.609,530.500,129.700,33.700,11.780,easy
1587.000,446.500,119.300,26.820,673.500,175.800,44.880,9.970,348.000,85.370,20.730,6.614,533.200,129.900,33.960,11.830,easy
1591.000,447.300,119.200,26.840,676.800,176.400,44.840,10.080,348.100,85.390,20.800,6.626,533.700,130.500,33.900,11.860,easy
1596.000,448.100,120.300,26.830,680.100,175.100,44.340,10.050,344.600,85.670,20.740,6.625,535.200,131.000,34.200,11.920,easy
1600.000,450.200,119.400,27.160,673.100,176.900,44.750,10.050,348.200,85.690,20.830,6.629,539.200,131.700,34.280,11.930,easy
1606.000,456.500,120.100,27.030,677.100,176.800,45.080,10.020,349.700,85.620,20.850,6.641,539.800,132.500,34.430,11.990,easy
1601.000,451.500,118.400,26.670,676.400,176.700,44.500,9.947,347.400,85.650,20.700,6.597,533.600,130.000,33.670,11.750,easy
1578.000,443.900,117.800,26.450,670.100,175.500,44.230,9.997,345.600,84.980,20.610,6.579,528.000,128.600,33.380,11.640,easy
1571.000,440.100,115.900,26.050,678.700,175.200,44.610,9.904,346.100,84.470,20.570,6.554,525.500,127.500,33.110,11.570,easy
1567.000,439.500,117.300,26.120,679.700,175.700,44.600,9.855,343.600,84.730,20.550,6.536,522.600,127.300,33.010,11.540,easy
1564.000,443.200,116.600,26.010,673.700,174.800,44.060,9.881,342.100,84.800,20.520,6.547,522.300,127.100,33.100,11.500,easy
1564.000,443.500,116.600,26.130,677.600,174.600,44.410,9.946,343.700,84.530,20.600,6.536,522.800,126.900,33.070,11.570,easy
1566.000,440.400,116.800,26.180,673.500,174.800,44.520,9.897,343.500,84.610,20.580,6.568,523.400,127.700,33.100,11.580,easy
1571.000,443.500,117.300,26.240,673.400,174.600,44.130,10.010,341.900,84.930,20.550,6.563,524.100,127.500,33.220,11.610,easy
1571.000,439.100,117.800,26.130,678.400,174.500,44.130,9.870,346.000,84.610,20.610,6.568,525.400,127.800,33.290,11.620,easy
1574.000,444.000,117.600,26.380,672.500,174.200,44.600,9.971,342.500,84.900,20.600,6.588,526.400,128.200,33.460,11.650,easy
1579.000,445.500,118.400,26.520,670.800,175.600,44.510,9.892,343.600,85.210,20.610,6.600,528.700,128.900,33.500,11.710,easy
1584.000,444.700,118.300,26.560,676.400,175.400,44.280,9.969,345.600,84.930,20.710,6.585,530.400,129.300,33.690,11.760,easy
1589.000,444.900,118.700,26.720,677.900,174.200,44.420,10.120,346.700,85.370,20.650,6.611,531.500,130.100,33.870,11.820,easy
1591.000,449.400,118.800,26.650,678.800,176.000,44.690,9.947,343.800,85.510,20.710,6.614,534.700,130.800,33.960,11.860,easy
1596.000,450.600,118.400,26.730,678.500,176.100,44.560,9.999,347.300,85.340,20.760,6.608,536.600,130.800,34.190,11.910,easy
1603.000,447.100,119.600,27.030,676.500,178.400,44.470,10.170,349.800,85.350,20.870,6.635,538.300,132.000,34.390,11.970,easy
1608.000,452.800,121.300,27.050,681.500,176.100,44.460,10.010,346.900,85.780,20.870,6.645,539.400,132.600,34.570,12.060,easy
1615.000,453.800,120.900,27.110,681.500,176.200,44.790,10.080,347.200,85.770,20.920,6.644,543.300,133.000,34.670,12.070,easy
1611.000,450.400,119.500,26.950,677.200,175.900,44.730,10.010,351.800,85.890,20.830,6.625,538.500,130.900,33.950,11.800,easy
1581.000,444.300,118.000,26.400,672.300,173.200,44.430,9.954,349.400,85.070,20.670,6.566,528.600,129.100,33.440,11.680,easy
1576.000,439.900,116.900,26.150,667.100,173.300,44.040,9.942,344.000,84.580,20.540,6.573,525.700,127.800,33.220,11.580,easy
1566.000,439.500,116.400,26.090,674.400,172.600,43.790,9.917,347.900,84.370,20.580,6.549,524.300,127.400,33.160,11.560,easy
1564.000,440.500,114.900,26.250,674.300,173.500,43.990,9.924,345.100,84.710,20.540,6.564,523.000,127.300,33.040,11.550,easy
1565.000,441.500,116.300,26.240,674.300,174.200,44.160,9.940,341.900,85.000,20.540,6.556,522.000,127.200,33.130,11.570,easy
1564.000,439.900,116.000,26.090,670.000,173.700,44.110,10.030,346.000,84.820,20.570,6.563,523.600,127.600,33.260,11.580,easy
1568.000,439.500,116.700,26.060,679.000,174.500,44.470,9.906,346.500,84.660,20.590,6.576,525.700,128.100,33.250,11.620,easy
1571.000,442.500,116.800,26.300,674.100,175.400,44.240,9.889,344.300,85.040,20.600,6.575,525.400,128.200,33.370,11.670,easy
1573.000,443.500,117.500,26.330,673.400,173.700,44.190,9.929,344.100,84.580,20.660,6.580,528.600,128.200,33.460,11.690,easy
1579.000,445.000,118.500,26.300,667.400,173.600,44.300,9.996,345.800,84.810,20.700,6.602,530.400,129.000,33.540,11.760,easy
1582.000,442.700,117.900,26.420,675.800,174.000,44.590,9.891,344.500,85.320,20.710,6.613,532.000,129.700,33.750,11.800,easy
1586.000,448.900,117.900,26.560,674.400,175.100,44.580,10.010,346.900,85.710,20.770,6.615,533.100,130.300,34.010,11.820,easy
1589.000,448.400,118.700,26.590,679.600,174.100,44.650,9.956,349.800,85.340,20.800,6.626,534.900,130.700,34.150,11.900,easy
1595.000,448.300,119.300,26.750,677.200,175.900,44.700,10.100,347.200,85.740,20.770,6.639,538.200,131.700,34.120,11.960,easy
1601.000,449.100,118.100,26.800,678.700,177.000,44.730,10.020,348.300,85.650,20.840,6.646,541.400,132.100,34.420,11.950,easy
1609.000,450.900,119.600,27.060,677.400,176.100,44.830,10.070,349.400,86.050,20.860,6.645,541.900,132.800,34.690,12.030,easy
1612.000,451.300,121.000,26.900,682.300,176.200,45.040,10.150,348.700,86.160,20.880,6.673,543.200,132.700,34.390,11.990,easy
1589.000,445.600,117.400,26.530,675.200,175.000,44.580,9.982,344.700,85.630,20.730,6.606,534.200,129.700,33.740,11.760,easy
1576.000,442.100,117.300,26.130,670.000,175.600,44.350,9.973,347.500,85.020,20.650,6.598,528.500,128.500,33.420,11.670,easy
1568.000,438.900,115.500,26.010,671.300,174.600,44.050,9.937,345.500,84.770,20.620,6.582,525.300,127.900,33.130,11.640,easy
1564.000,438.100,115.900,25.950,673.900,175.800,44.080,9.943,343.700,84.910,20.510,6.559,525.100,127.600,33.060,11.590,easy
1565.000,439.700,115.700,26.140,672.000,173.900,44.110,10.010,346.700,84.680,20.630,6.564,524.600,127.700,33.180,11.590,easy
1564.000,443.200,115.900,26.020,669.200,173.800,44.540,9.879,344.900,84.830,20.610,6.582,525.600,128.000,33.190,11.640,easy
1568.000,436.800,116.300,26.160,675.000,173.300,44.140,10.070,340.000,85.040,20.590,6.591,525.200,128.400,33.410,11.670,easy
1572.000,443.500,117.300,26.250,670.500,173.900,44.460,10.050,345.100,84.920,20.630,6.585,527.100,128.300,33.360,11.690,easy
1573.000,440.500,116.400,26.320,675.000,175.300,44.290,10.030,348.500,84.780,20.650,6.603,528.200,128.800,33.620,11.720,easy
1576.000,444.800,117.100,26.430,670.300,173.800,44.270,9.937,342.400,84.990,20.620,6.610,529.400,129.400,33.590,11.760,easy
1583.000,445.800,118.500,26.440,673.900,173.400,44.500,9.904,345.400,85.210,20.710,6.619,532.400,130.100,33.810,11.770,easy
1585.000,447.600,118.500,26.580,679.100,174.600,44.650,10.060,349.300,85.200,20.760,6.609,533.300,130.500,33.890,11.840,easy
1589.000,447.900,118.500,26.760,671.200,176.100,44.720,10.020,345.200,85.710,20.690,6.642,535.600,130.800,34.050,11.880,easy
1595.000,449.200,118.400,26.720,675.600,176.400,44.830,9.986,347.300,85.600,20.800,6.638,538.000,131.300,34.300,11.930,easy
1599.000,449.700,119.200,26.770,679.100,174.300,44.610,9.998,350.100,85.330,20.780,6.630,538.800,132.200,34.490,12.010,easy
1604.000,450.900,120.200,26.920,680.700,175.900,45.070,10.080,347.800,85.860,20.860,6.653,542.100,132.800,34.510,12.050,easy
1598.000,449.700,118.100,26.530,679.700,174.700,44.440,9.963,345.600,85.760,20.740,6.624,536.200,130.300,33.900,11.800,easy
1575.000,441.600,117.400,26.070,672.900,175.800,44.530,9.972,346.500,85.020,20.690,6.590,531.100,128.900,33.630,11.700,easy
1573.000,443.500,115.900,26.260,670.700,175.000,44.320,9.924,343.900,84.830,20.550,6.566,527.600,128.500,33.340,11.640,easy
1566.000,441.200,116.000,26.160,668.200,176.000,44.050,9.864,342.300,84.940,20.600,6.593,527.200,128.100,33.280,11.660,easy
1566.000,440.600,116.600,26.180,662.600,174.600,44.300,9.894,344.900,84.710,20.630,6.566,526.300,127.900,33.280,11.610,easy
1566.000,440.900,116.100,26.090,668.400,174.200,44.090,9.901,345.700,84.770,20.570,6.571,527.100,128.400,33.310,11.660,easy
1569.000,444.900,116.400,26.260,677.900,173.500,44.180,10.040,341.900,84.840,20.630,6.596,528.300,128.700,33.460,11.680,easy
1572.000,443.500,117.100,26.150,669.600,174.700,44.060,10.070,345.200,84.950,20.640,6.591,528.700,128.800,33.630,11.710,easy
1573.000,444.000,117.300,26.150,673.500,174.700,44.080,9.979,349.400,85.280,20.620,6.594,529.600,129.100,33.570,11.780,easy
1579.000,444.800,117.300,26.490,669.800,174.300,44.560,10.070,340.600,85.240,20.680,6.607,532.300,129.600,33.770,11.780,easy
1583.000,441.100,117.000,26.460,671.100,174.600,44.530,9.900,346.900,85.160,20.760,6.607,533.700,130.300,33.920,11.820,easy
1588.000,441.200,118.500,26.430,672.800,175.200,44.630,9.960,349.500,85.270,20.740,6.621,536.600,130.800,34.100,11.900,easy
1592.000,451.500,118.100,26.740,672.600,175.500,44.730,9.971,345.800,85.580,20.740,6.639,536.900,131.600,34.180,11.950,easy
1596.000,456.300,118.100,26.750,675.800,176.300,44.640,10.060,345.500,85.690,20.810,6.627,540.700,131.900,34.340,11.980,easy
1603.000,450.100,119.400,26.920,679.800,176.100,44.600,10.030,349.700,85.810,20.920,6.636,542.700,132.800,34.540,12.050,easy
1612.000,451.500,119.600,26.880,680.300,176.800,44.840,10.010,347.100,86.000,20.880,6.634,542.600,133.300,34.640,12.150,easy
1617.000,452.500,120.600,27.020,679.000,177.000,45.010,10.050,348.400,86.010,20.910,6.672,546.100,134.100,35.010,12.180,easy
1624.000,456.900,120.700,27.050,683.900,176.000,44.810,9.986,351.500,86.130,20.950,6.647,545.000,132.800,34.380,11.980,easy
1586.000,445.100,117.500,26.040,673.800,175.300,44.290,9.979,345.500,85.430,20.660,6.611,534.300,130.200,33.730,11.810,easy
1572.000,442.200,116.800,26.280,669.000,175.400,44.280,9.898,344.600,85.270,20.620,6.579,530.300,128.900,33.460,11.680,easy
1569.000,438.200,115.900,25.950,669.100,173.900,44.480,9.928,346.100,84.500,20.550,6.559,527.200,128.400,33.460,11.650,easy
1565.000,439.700,117.800,26.140,671.200,175.200,43.960,9.951,345.500,84.680,20.560,6.559,525.500,128.000,33.200,11.610,easy
1564.000,437.600,116.800,26.210,667.900,172.800,44.140,9.869,342.300,84.910,20.560,6.555,526.500,128.200,33.330,11.650,easy
1564.000,440.900,116.700,26.140,659.600,174.000,44.200,9.914,347.000,84.650,20.580,6.568,527.800,128.400,33.430,11.660,easy
1570.000,444.900,115.800,26.180,670.300,174.200,44.320,9.949,344.500,84.660,20.600,6.570,528.100,128.700,33.410,11.710,easy
1572.000,438.400,116.100,26.470,670.300,172.900,44.570,9.991,343.000,85.230,20.590,6.596,529.000,128.900,33.500,11.730,easy
1575.000,443.200,118.200,26.480,673.700,174.800,44.500,9.902,345.100,85.010,20.650,6.599,529.900,129.400,33.700,11.760,easy
1578.000,445.900,117.600,26.450,673.500,174.700,44.530,9.955,346.700,84.870,20.690,6.605,532.700,130.100,33.750,11.840,easy
1585.000,449.300,116.900,26.620,671.700,173.400,44.710,10.030,343.800,85.150,20.670,6.605,534.500,130.800,33.930,11.900,easy
1590.000,447.300,118.900,26.500,678.300,175.200,44.640,10.070,346.300,85.420,20.690,6.607,536.600,130.900,34.120,11.910,easy
1595.000,452.200,118.500,26.950,672.000,175.600,44.310,10.020,349.900,85.400,20.720,6.626,538.800,131.700,34.280,11.990,easy
1600.000,451.200,118.700,26.920,681.400,176.300,44.510,10.150,346.400,85.660,20.740,6.635,541.800,132.700,34.440,12.020,easy
1607.000,449.700,120.400,26.830,678.700,176.100,44.740,10.120,347.700,85.730,20.750,6.630,543.400,133.000,34.720,12.090,easy
1614.000,454.400,120.500,26.760,680.600,176.100,44.920,10.070,350.200,85.540,20.850,6.639,545.600,133.600,34.860,12.140,easy
1622.000,456.200,121.600,27.290,687.800,176.100,44.710,10.050,350.400,86.150,20.850,6.666,546.900,134.700,34.990,12.240,easy
1628.000,458.200,121.900,27.290,685.500,177.400,45.000,10.050,349.300,86.090,20.930,6.666,549.400,135.200,35.220,12.210,easy
1610.000,448.000,118.600,26.600,677.200,175.500,44.190,9.961,351.600,85.740,20.720,6.615,541.800,131.600,34.210,11.930,easy
1581.000,445.600,117.900,26.330,677.300,174.100,44.480,9.919,345.200,85.250,20.560,6.556,533.800,130.100,33.660,11.820,easy
1575.000,443.800,116.500,26.310,668.900,175.400,44.430,9.871,342.300,84.670,20.500,6.560,529.300,129.000,33.430,11.680,easy
1567.000,440.000,116.400,26.050,678.000,174.000,44.370,9.905,342.600,84.490,20.480,6.552,527.500,128.700,33.360,11.660,easy
1568.000,443.700,116.300,26.450,670.200,174.700,43.940,9.862,344.700,84.570,20.480,6.542,526.000,128.400,33.240,11.660,easy
1570.000,437.400,115.900,26.130,669.400,175.000,44.110,9.933,337.800,84.670,20.440,6.557,528.100,128.600,33.410,11.670,easy
1572.000,440.400,116.400,26.170,674.900,175.300,44.360,9.967,344.100,84.650,20.530,6.557,527.800,128.800,33.410,11.680,easy
1575.000,443.600,116.800,26.420,667.900,173.700,44.460,9.999,346.400,84.490,20.540,6.561,530.000,129.000,33.520,11.730,easy
1579.000,444.300,117.400,26.400,671.900,173.600,44.460,10.020,342.000,84.790,20.610,6.575,530.300,129.700,33.660,11.810,easy
1581.000,443.600,116.800,26.370,674.100,175.900,44.240,9.972,344.300,84.860,20.590,6.584,532.400,130.100,33.780,11.800,easy
1585.000,443.900,117.500,26.600,664.700,174.900,44.490,9.932,348.700,84.880,20.620,6.588,534.100,130.900,33.930,11.880,easy
1591.000,449.100,118.200,26.720,678.800,174.200,44.900,10.080,344.500,85.370,20.660,6.609,536.700,131.400,34.080,11.930,easy
1595.000,446.700,120.200,26.750,674.500,175.800,44.610,10.080,344.000,85.330,20.710,6.603,539.000,131.700,34.310,11.960,easy
1601.000,445.900,118.900,26.860,679.100,174.800,44.650,10.000,347.600,85.170,20.760,6.595,540.700,132.900,34.410,12.030,easy
1607.000,453.300,120.100,26.970,676.200,176.300,44.350,10.000,349.400,85.400,20.710,6.637,541.400,133.100,34.580,12.110,easy
1612.000,451.400,121.200,27.020,681.600,176.600,44.980,10.040,344.500,85.790,20.760,6.635,544.800,133.900,34.760,12.170,easy
1620.000,456.400,121.900,27.050,680.600,176.800,44.520,9.989,354.400,85.570,20.860,6.631,546.900,134.100,34.760,12.070,easy
1595.000,449.700,117.600,26.450,679.000,174.500,44.360,9.991,345.900,85.460,20.700,6.593,536.400,131.000,33.860,11.880,easy
1578.000,443.200,116.500,26.530,680.000,175.300,44.180,9.984,342.500,85.020,20.530,6.557,532.500,129.400,33.590,11.760,easy
1575.000,441.900,116.300,26.290,667.700,174.700,44.060,9.874,348.000,84.450,20.520,6.563,529.200,129.100,33.500,11.680,easy
1571.000,437.600,116.400,26.080,677.000,174.600,44.400,9.898,346.100,84.390,20.510,6.536,529.000,128.800,33.470,11.720,easy
1570.000,439.500,115.700,26.150,676.300,174.200,44.040,9.893,338.400,84.400,20.520,6.558,527.700,128.600,33.270,11.700,easy
1572.000,443.000,117.400,26.230,667.500,174.200,44.230,9.945,343.000,84.480,20.490,6.549,529.300,128.900,33.570,11.700,easy
1576.000,443.800,117.800,26.430,668.600,174.900,44.400,9.897,346.100,84.460,20.540,6.565,529.900,129.500,33.560,11.750,easy
1576.000,443.600,116.400,26.350,675.300,176.200,44.580,9.975,342.700,84.800,20.550,6.560,531.500,129.800,33.660,11.810,easy
1583.000,444.300,117.800,26.640,669.900,174.700,44.400,9.943,342.600,84.820,20.580,6.572,532.300,129.900,33.770,11.800,easy
1584.000,445.700,117.700,26.510,675.300,175.500,44.380,9.920,349.100,84.610,20.630,6.598,533.400,130.400,33.930,11.890,easy
1590.000,449.500,117.600,26.670,673.800,174.100,44.730,9.980,345.100,85.160,20.590,6.599,535.100,131.200,34.050,11.900,easy
1595.000,449.000,118.700,26.610,678.800,175.500,44.770,10.000,343.400,84.870,20.680,6.609,537.500,131.600,34.290,11.970,easy
1601.000,447.600,119.100,26.870,679.400,175.500,45.000,10.040,349.400,84.860,20.700,6.615,539.200,132.200,34.380,11.990,easy
1605.000,450.900,120.400,27.010,679.500,175.300,45.020,9.924,346.400,85.300,20.700,6.613,540.400,133.000,34.470,12.090,easy
1612.000,451.100,119.800,27.050,674.300,175.800,44.670,10.120,343.200,85.470,20.680,6.637,543.000,133.600,34.720,12.140,easy
1619.000,456.800,121.600,27.150,680.000,176.400,44.860,10.060,348.200,85.680,20.790,6.630,546.500,134.200,34.840,12.190,easy
1621.000,451.300,119.800,26.910,675.300,175.700,44.350,10.070,347.000,85.400,20.720,6.612,540.500,132.400,34.140,11.940,easy
1582.000,445.300,117.200,26.360,671.800,175.000,44.020,9.995,343.600,84.710,20.490,6.557,531.800,129.600,33.650,11.780,easy
1575.000,441.400,116.700,26.110,671.900,173.800,44.400,9.930,343.000,84.440,20.490,6.549,528.300,128.700,33.420,11.680,easy
1566.000,440.900,116.900,26.170,665.800,173.200,44.150,9.917,344.300,84.260,20.440,6.534,525.100,128.200,33.150,11.670,easy
1563.000,440.400,115.700,26.030,672.900,173.300,44.450,9.890,342.000,84.130,20.370,6.545,524.400,128.000,33.180,11.640,easy
1564.000,442.200,116.300,26.200,669.300,172.100,44.290,9.878,343.500,84.000,20.410,6.540,523.800,127.800,33.230,11.640,easy
1566.000,437.000,116.500,26.200,673.200,173.300,44.070,9.986,346.500,84.340,20.430,6.558,525.700,128.400,33.360,11.690,easy
1568.000,440.300,115.600,26.060,669.700,174.000,44.520,9.956,336.600,84.460,20.460,6.580,526.600,128.500,33.460,11.710,easy
1571.000,438.700,116.200,26.400,668.100,172.400,44.100,9.891,342.500,84.540,20.500,6.585,528.000,129.100,33.620,11.750,easy
1574.000,442.500,116.800,26.330,671.900,174.100,44.270,9.992,343.900,84.550,20.640,6.583,529.100,129.300,33.700,11.800,easy
1578.000,445.400,117.500,26.450,671.700,174.800,44.300,9.964,343.400,84.500,20.550,6.600,530.900,130.200,33.720,11.840,easy
1585.000,447.900,117.900,26.580,674.700,173.500,44.750,9.889,343.800,84.950,20.560,6.600,533.300,130.400,33.990,11.860,easy
1589.000,444.900,117.900,26.800,679.000,174.100,44.640,9.976,345.300,84.790,20.600,6.610,534.900,130.900,34.130,11.920,easy
1593.000,448.000,118.800,26.610,673.100,174.300,44.740,9.967,343.200,84.620,20.630,6.618,536.200,131.700,34.160,12.000,easy
1599.000,447.500,119.300,26.910,675.900,174.800,44.760,10.060,342.000,85.220,20.670,6.614,539.300,132.300,34.430,12.050,easy
1606.000,453.200,119.700,26.990,669.700,175.600,44.990,10.040,346.900,85.160,20.740,6.619,541.100,132.600,34.660,12.100,easy
1612.000,452.800,120.900,27.180,681.900,176.300,44.930,10.040,348.100,85.280,20.730,6.647,543.000,133.600,34.650,12.160,easy
1620.000,455.500,119.800,26.950,681.100,176.800,44.740,10.000,342.400,85.870,20.730,6.654,543.400,133.200,34.510,12.030,easy
1585.000,445.800,118.100,26.370,676.400,175.300,44.010,9.954,343.600,84.680,20.600,6.562,533.500,130.000,33.740,11.790,easy
1571.000,441.200,118.000,26.310,669.400,173.100,44.100,9.967,345.000,84.470,20.500,6.561,528.200,128.800,33.320,11.740,easy
1565.000,441.000,117.300,26.030,666.500,173.400,44.140,9.974,340.300,84.180,20.450,6.538,525.000,128.100,33.170,11.660,easy
1561.000,438.700,115.600,26.000,671.300,173.900,44.080,9.862,341.700,84.410,20.440,6.548,524.500,127.600,33.170,11.630,easy
1560.000,439.600,116.400,25.970,666.700,173.500,43.850,9.980,343.700,83.840,20.480,6.551,523.100,127.600,33.160,11.660,easy
1562.000,434.200,116.600,26.130,665.600,174.100,43.840,9.873,340.300,84.230,20.450,6.565,524.500,127.900,33.180,11.710,easy
1563.000,438.600,115.900,26.080,666.300,173.100,43.950,9.885,342.400,84.360,20.470,6.583,525.500,127.900,33.390,11.710,easy
1566.000,439.600,115.900,26.130,666.800,174.500,44.300,9.878,347.000,84.160,20.510,6.573,525.900,128.600,33.370,11.760,easy
1568.000,442.300,117.100,26.170,668.900,173.400,44.220,9.800,342.200,84.280,20.520,6.600,527.400,129.200,33.570,11.780,easy
1571.000,439.900,117.200,26.330,669.000,174.100,44.440,9.899,339.000,84.180,20.520,6.598,528.500,129.500,33.620,11.800,easy
1576.000,442.900,117.100,26.420,673.400,173.700,44.240,9.931,345.700,84.390,20.620,6.589,530.800,129.800,33.800,11.830,easy
1581.000,443.200,118.800,26.530,670.100,173.300,44.230,9.986,343.700,84.490,20.550,6.598,531.600,130.300,33.870,11.940,easy
1584.000,446.300,118.600,26.550,675.000,174.600,44.440,9.923,343.000,84.580,20.610,6.608,535.100,130.700,34.080,11.940,easy
1588.000,447.700,118.900,26.570,671.400,175.000,44.320,9.951,345.000,84.640,20.670,6.610,536.400,131.300,34.270,11.980,easy
1595.000,445.900,119.200,26.630,678.500,173.600,44.960,9.939,344.800,84.950,20.660,6.619,538.400,132.300,34.400,12.050,easy
1600.000,450.200,119.000,26.920,675.500,175.100,44.840,10.010,342.600,85.460,20.650,6.619,540.200,132.900,34.510,12.090,easy
1607.000,452.500,119.700,26.920,679.000,175.500,44.690,9.909,345.800,85.030,20.760,6.629,541.000,132.400,34.430,12.030,easy
1580.000,443.300,117.500,26.340,668.000,173.700,43.940,10.010,345.400,84.650,20.500,6.582,531.400,129.800,33.690,11.780,easy
1567.000,439.400,116.900,26.260,669.200,172.900,44.050,9.793,339.400,84.140,20.460,6.549,526.700,128.600,33.310,11.720,easy
1562.000,439.500,116.800,26.020,673.400,173.800,44.000,9.748,340.800,83.970,20.400,6.552,524.900,127.900,33.250,11.690,easy
1559.000,439.700,116.700,25.960,666.900,172.700,43.870,9.861,343.100,84.010,20.460,6.547,523.500,127.800,33.190,11.630,easy
1558.000,438.700,115.600,26.310,667.900,173.500,43.940,9.771,339.100,83.960,20.360,6.546,523.200,127.600,33.030,11.650,easy
1559.000,440.300,116.500,26.030,670.400,172.400,43.980,9.814,340.100,84.220,20.400,6.545,524.300,127.900,33.270,11.690,easy
1562.000,437.900,117.200,26.280,673.100,173.300,43.630,9.844,342.300,83.850,20.480,6.556,526.000,128.300,33.370,11.750,easy
1566.000,439.300,116.500,26.240,670.100,175.600,43.880,9.874,341.200,84.190,20.450,6.569,525.200,128.600,33.360,11.770,easy
1567.000,440.700,116.700,26.080,670.800,172.900,44.210,9.905,337.700,84.190,20.440,6.575,527.500,129.100,33.500,11.770,easy
1571.000,441.200,117.000,26.330,668.900,173.300,44.080,9.811,345.000,84.070,20.520,6.572,530.100,129.200,33.730,11.840,easy
1576.000,442.100,116.800,26.500,671.200,173.000,44.210,9.935,343.200,84.380,20.520,6.589,530.100,130.100,33.770,11.880,easy
1581.000,443.700,118.100,26.660,673.500,174.200,44.250,9.843,342.000,84.360,20.530,6.576,532.900,130.600,33.880,11.930,easy
1586.000,445.400,118.400,26.560,676.600,174.300,44.100,9.876,347.500,84.330,20.610,6.603,535.300,131.100,34.190,11.950,easy
1592.000,451.600,119.300,26.700,672.800,174.700,44.060,9.963,348.700,84.840,20.640,6.610,536.600,131.700,34.350,12.040,easy
1596.000,448.200,118.800,26.800,672.100,175.400,44.280,9.883,343.400,84.930,20.590,6.621,539.400,132.500,34.500,12.080,easy
1605.000,457.300,119.700,26.960,669.200,175.000,44.440,9.925,344.500,84.890,20.660,6.607,541.600,132.700,34.730,12.150,easy
1610.000,453.300,120.700,26.910,672.300,174.400,44.200,9.799,346.700,84.950,20.730,6.614,540.400,132.400,34.380,12.020,easy
1575.000,441.800,116.800,26.110,671.400,172.500,43.800,9.785,341.200,84.430,20.360,6.556,530.100,129.400,33.500,11.780,easy
1560.000,439.700,116.800,26.120,669.000,173.600,43.920,9.813,339.900,83.820,20.390,6.524,524.900,128.000,33.250,11.680,easy
1554.000,435.100,116.500,25.860,666.100,173.400,43.570,9.785,344.500,83.550,20.350,6.509,521.900,127.300,32.990,11.640,easy
1550.000,436.800,116.400,26.010,669.100,172.300,43.870,9.812,339.200,83.650,20.280,6.521,520.600,127.200,33.050,11.630,easy
1549.000,434.700,115.000,26.040,668.600,171.300,43.140,9.716,341.300,83.690,20.320,6.504,520.400,126.800,33.070,11.630,easy
1553.000,437.600,115.300,25.910,666.500,170.900,44.030,9.750,340.000,83.490,20.370,6.521,521.200,127.100,33.110,11.620,easy
1553.000,434.000,116.300,26.180,661.000,173.000,43.630,9.839,338.300,83.680,20.370,6.534,520.900,127.300,33.110,11.650,easy
1555.000,437.100,116.300,26.140,664.000,171.200,44.060,9.733,339.000,83.700,20.390,6.532,522.500,127.600,33.220,11.650,easy
1558.000,437.100,115.600,26.040,664.300,173.000,43.810,9.783,344.200,83.610,20.360,6.531,523.900,128.200,33.340,11.710,easy
1561.000,441.500,116.300,26.230,664.800,173.100,44.000,9.790,340.200,84.180,20.350,6.536,524.900,128.300,33.440,11.760,easy
1568.000,440.000,117.500,26.470,669.600,172.500,44.280,9.828,339.900,84.220,20.360,6.552,528.300,129.200,33.470,11.820,easy
1573.000,440.400,117.600,26.440,670.000,172.500,44.090,9.823,343.700,83.930,20.510,6.562,529.500,129.600,33.680,11.830,easy
1577.000,443.100,117.200,26.540,673.900,173.800,43.880,9.847,341.600,84.180,20.480,6.559,532.200,130.200,33.860,11.920,easy
1581.000,441.600,118.200,26.680,666.300,173.000,43.930,9.849,339.000,84.280,20.490,6.575,534.700,130.700,34.070,11.970,easy
1589.000,445.500,118.600,26.840,670.800,173.300,44.220,9.911,344.200,84.460,20.520,6.570,537.000,131.600,34.380,12.000,easy
1595.000,447.600,119.000,26.940,674.500,174.500,44.100,9.896,345.200,84.430,20.560,6.593,538.400,132.100,34.430,12.060,easy
1604.000,451.300,119.900,26.970,672.600,174.600,44.220,9.868,342.800,84.910,20.570,6.593,539.100,132.000,34.290,11.980,easy
1573.000,441.200,117.600,26.270,669.300,173.400,43.590,9.796,343.200,84.140,20.390,6.530,529.400,128.900,33.510,11.740,easy
1558.000,439.800,115.600,26.110,667.300,171.600,43.620,9.768,342.000,83.730,20.310,6.501,524.600,127.800,33.150,11.680,easy
1552.000,437.300,115.600,25.890,658.300,171.500,43.440,9.708,336.900,83.510,20.260,6.510,520.700,127.100,32.920,11.620,easy
1549.000,438.200,115.500,25.940,664.700,171.000,43.560,9.704,341.000,83.650,20.260,6.485,520.400,126.700,32.940,11.580,easy
1549.000,433.500,115.300,26.030,669.000,172.100,43.200,9.719,341.500,83.170,20.270,6.478,519.100,126.600,32.890,11.580,easy
1546.000,438.200,115.200,25.850,659.600,172.100,43.670,9.738,338.500,83.530,20.200,6.502,518.700,127.000,32.970,11.620,easy
1550.000,441.500,115.600,25.810,670.600,171.300,43.620,9.781,339.900,83.510,20.300,6.513,520.900,126.900,33.060,11.610,easy
1553.000,437.300,116.600,25.830,665.400,172.400,43.630,9.679,340.900,83.360,20.310,6.482,522.100,127.300,33.160,11.610,easy
1553.000,438.500,115.500,25.960,665.800,171.000,43.650,9.738,340.400,83.620,20.310,6.500,522.100,127.500,33.080,11.670,easy
1559.000,441.000,115.600,26.020,666.400,172.300,44.150,9.745,338.400,83.540,20.290,6.506,523.200,127.700,33.220,11.710,easy
1564.000,439.300,117.300,26.200,665.600,172.600,43.710,9.748,341.500,83.700,20.340,6.509,526.000,128.300,33.400,11.720,easy
1565.000,436.800,116.100,26.300,663.100,173.200,43.560,9.702,342.300,83.510,20.330,6.521,526.800,129.000,33.570,11.750,easy
1569.000,442.300,117.000,26.350,662.700,174.200,43.900,9.767,339.300,84.160,20.430,6.536,529.300,129.600,33.720,11.840,easy
1575.000,442.800,117.400,26.360,666.500,172.500,43.960,9.894,343.400,83.930,20.390,6.532,530.400,130.100,33.830,11.860,easy
1582.000,441.800,118.100,26.620,670.300,171.700,43.840,9.816,344.200,84.010,20.440,6.555,532.900,130.900,34.080,11.930,easy
1587.000,451.100,118.700,26.700,669.700,175.600,43.870,9.843,340.600,84.430,20.400,6.559,532.900,130.600,33.770,11.830,easy
1560.000,445.800,115.500,25.920,666.800,171.700,43.790,9.702,340.300,83.680,20.340,6.492,524.300,127.500,33.110,11.610,easy
1548.000,434.700,114.800,25.820,657.200,170.700,43.510,9.735,341.300,83.250,20.200,6.482,518.900,126.400,32.780,11.510,easy
1540.000,437.500,114.000,25.670,663.700,170.900,43.110,9.671,334.400,83.200,20.140,6.463,516.800,125.500,32.640,11.490,easy
1538.000,431.400,114.000,25.530,659.200,172.200,43.760,9.626,340.400,83.050,20.210,6.487,515.500,125.900,32.730,11.470,easy
1536.000,431.900,113.700,25.710,662.500,171.400,43.690,9.769,341.400,83.030,20.200,6.463,515.000,125.600,32.600,11.460,easy
1539.000,430.000,115.300,25.720,662.600,172.000,43.290,9.734,338.800,83.170,20.150,6.480,515.400,125.600,32.560,11.520,easy
1541.000,431.900,114.600,25.810,664.800,170.600,43.390,9.718,336.500,83.280,20.160,6.474,516.300,125.900,32.750,11.480,easy
1545.000,435.400,114.300,26.000,666.600,171.500,43.510,9.710,339.400,83.320,20.260,6.476,517.000,126.300,32.800,11.510,easy
1545.000,436.800,114.700,25.840,656.800,171.100,43.490,9.770,338.300,83.400,20.170,6.490,518.400,126.300,32.780,11.560,easy
1550.000,438.500,115.900,25.980,658.700,172.200,43.660,9.742,342.100,83.340,20.250,6.507,519.700,127.300,32.970,11.590,easy
1555.000,440.600,116.000,26.040,669.400,172.300,43.530,9.655,341.200,83.040,20.310,6.499,522.100,127.200,33.120,11.610,easy
1559.000,441.600,117.100,26.040,661.500,173.000,43.270,9.787,340.200,83.600,20.280,6.533,522.500,128.000,33.180,11.680,easy
1563.000,441.600,115.500,26.210,658.500,173.000,43.860,9.769,335.600,83.670,20.310,6.521,524.400,128.400,33.340,11.710,easy
1568.000,440.100,117.300,26.360,668.400,173.300,43.710,9.770,342.700,83.790,20.370,6.538,526.600,128.700,33.510,11.760,easy
1573.000,439.800,117.700,26.550,672.400,172.100,43.860,9.829,343.800,84.120,20.440,6.528,528.100,129.700,33.650,11.810,easy
1580.000,445.300,117.300,26.540,674.500,172.600,43.600,9.766,342.800,84.200,20.310,6.535,531.000,130.400,33.810,11.860,easy
1586.000,448.200,118.700,26.680,667.400,172.300,44.040,9.849,342.300,83.940,20.450,6.557,533.700,130.500,34.060,11.910,easy
1591.000,446.400,118.100,26.860,667.600,174.400,44.090,9.764,346.500,84.350,20.480,6.555,535.200,131.100,34.020,11.930,easy
1576.000,442.000,116.500,26.210,665.800,171.700,43.740,9.719,342.700,84.270,20.310,6.509,526.800,128.300,33.190,11.670,easy
1550.000,438.300,115.800,25.870,666.200,171.500,43.030,9.681,340.900,83.240,20.180,6.465,519.600,126.300,32.860,11.500,easy
1546.000,433.100,114.700,25.780,668.700,172.500,43.310,9.702,340.600,83.080,20.170,6.456,516.300,125.600,32.540,11.440,easy
1540.000,432.900,113.700,26.050,662.400,170.900,43.230,9.610,336.500,82.670,20.140,6.456,514.500,125.600,32.440,11.420,easy
1538.000,431.400,114.300,25.700,660.300,170.400,43.230,9.698,337.300,82.950,20.150,6.461,513.500,125.000,32.600,11.430,easy
1536.000,433.500,115.400,25.910,665.300,171.600,43.360,9.534,341.700,82.790,20.140,6.464,514.300,125.400,32.610,11.450,easy
1540.000,433.200,113.800,25.760,660.900,170.900,43.640,9.619,339.100,83.040,20.120,6.468,514.700,125.800,32.550,11.480,easy
1543.000,430.300,115.800,25.780,661.600,171.200,42.950,9.729,338.100,83.260,20.190,6.493,516.000,125.800,32.710,11.470,easy
1544.000,438.400,114.600,25.780,662.400,171.400,43.400,9.773,342.500,82.950,20.170,6.486,517.000,125.700,32.720,11.520,easy
1548.000,434.000,115.600,25.970,662.800,170.800,43.020,9.678,338.400,83.070,20.180,6.494,517.700,126.300,32.820,11.550,easy
1553.000,436.900,115.700,25.890,663.500,172.600,43.290,9.736,335.800,83.290,20.260,6.509,519.400,127.400,33.040,11.600,easy
1555.000,439.400,116.300,26.150,660.000,171.800,43.710,9.750,343.200,83.490,20.280,6.499,522.000,127.400,33.160,11.640,easy
1561.000,435.300,116.700,26.150,665.100,172.100,43.410,9.709,341.400,83.370,20.290,6.510,524.000,128.100,33.150,11.680,easy
1565.000,442.200,116.200,26.270,661.100,171.500,43.300,9.737,338.300,83.540,20.350,6.528,525.500,128.700,33.350,11.730,easy
1570.000,443.300,117.200,26.390,666.300,172.900,43.660,9.710,341.500,83.590,20.380,6.522,528.400,129.100,33.560,11.770,easy
1575.000,445.500,118.200,26.340,667.600,172.900,43.480,9.755,346.100,83.820,20.390,6.532,528.400,129.800,33.730,11.820,easy
1579.000,449.600,117.600,26.360,665.900,173.000,43.640,9.764,341.300,83.930,20.320,6.547,531.200,130.300,33.930,11.840,easy
1586.000,449.200,118.300,26.610,676.100,173.200,43.820,9.774,344.700,84.380,20.460,6.552,531.100,129.800,33.620,11.730,easy
1559.000,439.400,115.200,26.020,662.300,171.300,43.640,9.638,341.000,83.660,20.250,6.478,522.900,127.000,32.890,11.570,easy
1550.000,439.700,114.800,25.900,662.900,172.300,43.000,9.694,338.500,83.190,20.170,6.463,518.300,126.300,32.640,11.510,easy
1544.000,435.900,114.300,25.840,668.100,170.500,43.350,9.693,339.000,82.960,20.040,6.452,515.600,125.400,32.550,11.470,easy
1543.000,434.400,115.500,25.880,663.900,171.400,43.290,9.721,339.200,82.730,20.210,6.452,514.800,125.300,32.560,11.430,easy
1541.000,433.700,114.700,25.700,663.900,171.000,43.040,9.667,339.200,82.960,20.130,6.474,514.800,125.400,32.460,11.450,easy
1542.000,434.800,114.400,25.920,656.400,173.000,43.300,9.637,337.400,83.110,20.130,6.451,515.500,125.600,32.660,11.510,easy
1544.000,435.300,114.500,26.090,664.800,171.400,43.410,9.676,341.400,82.840,20.230,6.485,515.500,126.000,32.660,11.490,easy
1550.000,439.400,115.100,26.060,668.200,172.100,43.310,9.657,338.100,83.000,20.170,6.471,516.600,126.100,32.710,11.530,easy
1551.000,436.500,115.300,26.020,660.900,171.100,43.210,9.737,336.000,83.380,20.160,6.499,518.200,126.500,32.930,11.560,easy
1554.000,439.300,115.300,26.080,663.600,171.400,43.300,9.657,341.700,83.070,20.210,6.464,520.200,126.900,33.070,11.610,easy
1558.000,440.800,115.600,26.260,664.300,171.600,43.390,9.699,341.100,83.260,20.260,6.511,520.800,127.600,33.060,11.630,easy
1563.000,438.700,116.400,26.360,662.400,172.200,43.840,9.675,335.400,83.350,20.210,6.501,522.300,128.000,33.290,11.690,easy
1567.000,442.500,117.600,26.220,666.100,172.300,43.340,9.811,342.300,83.580,20.280,6.486,524.600,128.500,33.420,11.680,easy
1569.000,440.900,117.500,26.510,672.300,170.400,43.540,9.813,344.300,83.520,20.350,6.511,527.000,129.000,33.540,11.800,easy
1576.000,445.700,118.500,26.500,667.800,172.800,43.440,9.733,337.300,83.830,20.240,6.521,528.300,129.800,33.700,11.840,easy
1582.000,446.400,119.300,26.650,666.800,171.500,43.770,9.743,340.000,83.960,20.370,6.521,531.700,130.100,33.940,11.860,easy
1584.000,444.700,117.700,26.380,668.000,172.600,43.660,9.746,344.000,83.840,20.270,6.512,526.700,128.200,33.190,11.650,easy
1552.000,434.200,115.300,26.170,669.500,169.800,42.950,9.728,341.000,83.360,20.120,6.467,519.100,126.600,32.640,11.510,easy
1546.000,434.800,115.200,25.960,662.500,172.100,43.570,9.666,337.600,83.070,20.090,6.426,514.000,125.100,32.340,11.360,easy
1539.000,432.600,113.900,25.800,661.400,171.600,43.460,9.722,336.400,82.640,20.060,6.424,512.000,124.700,32.270,11.390,easy
1536.000,432.600,113.900,25.680,657.300,170.700,43.250,9.677,337.600,82.690,20.060,6.429,510.900,124.600,32.300,11.390,easy
1535.000,436.400,115.100,25.670,654.600,170.600,43.060,9.686,334.900,82.660,19.970,6.444,510.900,124.600,32.370,11.400,easy
1536.000,429.800,114.300,25.700,659.500,171.100,43.160,9.557,336.800,82.560,20.070,6.429,512.300,124.700,32.450,11.400,easy
1540.000,431.400,114.900,25.710,666.200,170.300,43.160,9.613,339.300,82.980,20.070,6.454,512.200,125.100,32.390,11.440,easy
1544.000,433.700,115.000,25.800,661.900,171.200,42.920,9.692,332.700,83.020,20.050,6.452,513.800,125.300,32.580,11.440,easy
1546.000,432.000,114.900,25.900,665.800,171.800,43.270,9.758,336.900,82.780,20.120,6.441,514.800,125.600,32.700,11.460,easy
1548.000,433.100,115.400,26.040,659.900,170.900,43.390,9.733,337.300,82.930,20.140,6.458,516.600,126.100,32.690,11.530,easy
1553.000,437.000,116.300,25.970,666.200,171.800,43.510,9.742,334.800,83.150,20.110,6.483,518.300,126.500,32.850,11.550,easy
1556.000,438.900,117.100,26.150,661.900,171.400,43.220,9.700,340.700,82.980,20.240,6.467,520.200,126.700,32.940,11.570,easy
1561.000,439.900,117.100,26.300,664.200,172.500,43.720,9.735,338.800,83.290,20.180,6.474,521.100,127.600,33.070,11.650,easy
1566.000,439.800,115.500,26.240,660.500,172.600,43.500,9.750,337.300,83.310,20.230,6.502,522.600,127.900,33.210,11.680,easy
1570.000,444.600,117.600,26.490,664.300,172.100,43.340,9.802,340.900,83.410,20.310,6.477,526.000,128.400,33.430,11.700,easy
1576.000,448.200,117.900,26.470,664.500,174.200,43.640,9.827,341.300,83.500,20.250,6.508,527.100,129.100,33.500,11.810,easy
1579.000,445.200,117.600,26.610,667.600,173.600,44.140,9.789,340.600,84.080,20.270,6.531,529.300,129.900,33.740,11.820,easy
1577.000,444.000,116.200,26.280,665.200,171.200,43.350,9.798,338.800,83.700,20.240,6.489,523.200,127.100,33.110,11.560,easy
1551.000,436.200,115.300,26.000,657.500,171.800,43.450,9.676,340.400,82.680,20.070,6.438,517.000,125.300,32.560,11.460,easy
1544.000,432.900,115.200,25.910,656.600,170.700,43.090,9.665,335.100,82.420,20.000,6.449,512.100,124.500,32.280,11.360,easy
1537.000,433.000,114.700,25.600,664.400,171.600,43.600,9.610,333.100,82.530,20.010,6.415,511.700,124.300,32.280,11.340,easy
1536.000,432.800,114.300,25.460,660.000,172.200,42.960,9.696,338.200,82.220,20.010,6.417,511.100,124.000,32.260,11.330,easy
1537.000,433.500,114.200,25.660,651.700,171.300,43.040,9.732,336.300,82.230,20.050,6.420,509.400,124.400,32.180,11.360,easy
1538.000,431.000,114.600,25.650,663.600,170.900,43.360,9.707,332.700,82.520,20.060,6.442,510.700,124.400,32.350,11.370,easy
1541.000,432.700,114.600,25.880,654.100,171.600,43.530,9.684,338.100,82.220,20.080,6.441,511.000,124.400,32.390,11.430,easy
1543.000,436.800,114.200,25.750,666.900,170.500,43.310,9.676,340.000,82.620,20.030,6.444,512.100,124.900,32.410,11.430,easy
1544.000,432.300,114.200,25.950,661.900,171.700,43.650,9.735,337.000,82.520,20.090,6.464,513.900,124.900,32.540,11.470,easy
1549.000,437.000,114.200,25.720,661.400,172.500,43.460,9.746,337.900,82.700,20.170,6.451,515.800,125.300,32.590,11.500,easy
1552.000,440.100,115.900,26.100,663.300,171.500,44.020,9.686,340.300,82.600,20.120,6.461,515.900,125.700,32.650,11.510,easy
1557.000,438.200,116.200,26.010,666.000,171.400,44.060,9.737,335.400,83.090,20.080,6.459,517.500,126.400,32.830,11.560,easy
1559.000,441.000,116.300,26.330,664.000,172.000,43.820,9.816,337.500,83.070,20.220,6.472,519.900,126.900,33.030,11.590,easy
1564.000,439.000,117.200,26.240,661.600,171.900,43.650,9.780,339.200,83.010,20.160,6.481,521.500,127.100,33.200,11.650,easy
1568.000,440.200,117.500,26.420,662.900,173.000,43.850,9.889,339.100,83.090,20.200,6.488,522.400,128.100,33.210,11.700,easy
1574.000,444.700,117.400,26.410,672.700,173.800,43.990,9.806,338.400,83.380,20.250,6.494,523.800,127.700,33.070,11.580,easy
1555.000,435.200,115.200,25.860,660.600,172.400,43.560,9.683,338.000,82.760,20.070,6.439,515.000,125.100,32.510,11.430,easy
1546.000,434.100,115.600,25.740,662.500,171.900,43.760,9.674,336.400,82.470,20.010,6.453,511.100,124.500,32.200,11.360,easy
1541.000,433.400,114.100,25.660,669.400,171.400,43.320,9.683,332.700,82.480,19.960,6.401,510.300,124.000,32.250,11.320,easy
1537.000,433.900,114.600,25.650,660.800,171.900,43.390,9.754,337.400,82.020,19.960,6.404,508.900,123.600,32.140,11.320,easy
1536.000,430.600,113.700,25.700,663.900,171.000,43.700,9.714,335.200,82.380,19.930,6.417,508.900,123.800,32.150,11.350,easy
1540.000,436.600,114.400,25.670,657.500,170.200,43.200,9.788,335.400,82.480,19.940,6.437,509.600,124.000,32.270,11.370,easy
1541.000,433.800,114.900,25.800,663.700,171.800,43.700,9.728,337.400,82.110,20.010,6.434,510.600,124.000,32.320,11.370,easy
1543.000,433.600,115.100,25.710,666.200,172.200,43.730,9.699,338.400,82.280,20.050,6.449,511.300,124.500,32.270,11.400,easy
1544.000,433.300,116.200,26.000,668.200,171.600,43.410,9.734,336.900,82.690,20.040,6.456,511.800,124.700,32.370,11.440,easy
1549.000,438.000,115.100,26.090,660.300,170.800,43.760,9.775,338.900,82.770,20.070,6.459,514.000,125.100,32.640,11.480,easy
1555.000,437.500,115.500,25.990,657.600,172.300,43.680,9.797,341.000,82.640,20.120,6.460,515.400,125.900,32.670,11.500,easy
1557.000,437.600,116.100,25.860,669.800,173.000,43.940,9.713,334.400,82.790,20.130,6.468,516.500,126.000,32.790,11.570,easy
1560.000,440.800,116.900,25.990,667.700,172.900,43.910,9.902,337.300,83.030,20.120,6.466,518.100,126.700,32.970,11.570,easy
1564.000,441.600,116.600,26.320,666.600,172.800,43.940,9.720,339.900,82.840,20.170,6.467,520.200,127.000,33.050,11.640,easy
1569.000,441.800,117.100,26.280,665.700,173.300,43.830,9.839,337.700,83.240,20.150,6.486,522.500,127.700,33.130,11.710,easy
1573.000,444.900,117.700,26.230,667.200,172.400,43.790,9.843,339.500,83.350,20.230,6.491,524.300,128.200,33.430,11.740,easy
1580.000,447.500,117.300,26.470,670.900,172.800,44.000,9.751,340.000,83.340,20.240,6.503,526.800,128.700,33.570,11.760,easy
1586.000,446.600,117.700,26.550,672.400,172.400,43.990,9.892,343.300,83.700,20.250,6.517,528.600,129.500,33.650,11.840,easy
1589.000,443.700,117.800,26.520,669.500,173.500,44.170,9.757,338.600,83.670,20.220,6.482,527.100,127.700,33.050,11.610,easy
1550.000,435.200,115.800,25.930,660.700,171.000,43.440,9.755,337.800,82.310,19.990,6.432,511.100,124.500,32.370,11.410,bogus
1552.000,433.300,116.500,26.000,660.700,172.800,43.640,9.869,334.800,82.590,19.980,6.446,512.500,124.800,32.410,11.440,bogus
1554.000,437.400,115.900,25.960,662.900,172.100,43.640,9.815,334.100,82.560,20.020,6.431,514.500,125.100,32.580,11.450,bogus
1559.000,440.200,115.700,26.130,664.200,171.900,43.530,9.833,341.000,82.590,20.080,6.449,515.700,125.500,32.760,11.500,bogus
1564.000,441.100,116.300,26.040,671.300,172.900,43.760,9.764,337.900,82.900,20.110,6.467,517.500,126.200,32.850,11.590,bogus
1511.000,422.900,111.000,24.640,645.000,167.700,42.500,9.399,328.700,82.070,19.840,6.374,514.100,125.500,32.440,11.410,hard
1510.000,421.100,111.800,24.610,655.600,167.200,42.660,9.386,333.600,81.890,19.880,6.376,515.600,125.700,32.640,11.460,hard
1513.000,424.500,112.900,24.790,652.500,168.300,42.570,9.396,332.800,81.720,19.900,6.376,516.300,126.100,32.610,11.510,hard
1515.000,425.700,111.600,24.600,653.500,169.000,42.290,9.531,332.400,81.980,19.850,6.391,517.500,126.500,32.590,11.520,hard
1516.000,424.600,111.900,24.730,654.500,168.400,42.840,9.485,335.400,81.980,19.950,6.378,519.300,126.400,32.830,11.490,hard
1520.000,427.400,113.200,24.870,650.300,168.900,42.750,9.501,336.600,82.020,20.020,6.386,520.900,126.900,32.930,11.590,hard
1524.000,429.200,112.800,24.890,655.000,168.500,42.380,9.495,336.300,82.340,19.990,6.410,522.400,127.300,32.820,11.540,hard
1513.000,418.900,110.700,24.700,653.600,167.200,42.180,9.426,334.000,82.010,19.870,6.354,514.900,125.000,32.290,11.330,hard
1501.000,419.200,110.100,24.240,645.400,166.900,42.710,9.437,334.000,81.260,19.770,6.347,510.700,123.700,31.970,11.250,hard
1495.000,414.900,109.100,24.150,651.000,167.700,42.260,9.334,331.600,81.230,19.640,6.328,507.100,123.000,31.860,11.190,hard
1493.000,418.600,109.700,24.310,652.100,166.500,41.900,9.410,329.500,81.410,19.660,6.321,506.600,122.800,31.700,11.140,hard
1488.000,416.500,109.000,24.070,650.100,166.800,42.340,9.357,332.200,80.990,19.730,6.312,504.300,122.100,31.710,11.100,hard
1487.000,413.000,109.200,23.950,647.900,165.400,41.950,9.364,331.000,81.100,19.690,6.323,504.200,122.600,31.670,11.170,hard
1490.000,413.900,109.000,24.100,648.500,166.600,42.150,9.395,329.300,81.260,19.750,6.334,504.700,122.700,31.730,11.190,hard
1490.000,419.200,109.000,24.050,654.200,167.300,42.040,9.379,334.800,81.020,19.760,6.327,504.900,122.700,31.680,11.130,hard
1493.000,417.900,109.600,24.110,646.300,166.500,41.740,9.353,330.900,81.200,19.710,6.321,506.000,122.900,31.640,11.170,hard
1495.000,415.100,109.500,24.120,649.600,167.500,41.810,9.453,328.800,81.670,19.760,6.341,505.600,123.300,31.850,11.170,hard
1498.000,416.600,110.500,24.240,652.100,167.200,42.060,9.407,333.600,80.960,19.760,6.344,508.000,123.200,31.890,11.210,hard
1500.000,420.200,109.300,24.180,655.900,167.800,42.020,9.328,336.600,81.580,19.800,6.349,509.600,123.900,31.990,11.230,hard
1503.000,420.600,109.500,24.410,650.700,167.400,42.120,9.353,329.500,81.910,19.790,6.352,509.000,123.700,31.780,11.160,hard
1488.000,415.100,108.300,23.900,649.000,166.000,41.910,9.345,330.800,81.040,19.660,6.304,502.200,121.600,31.340,10.950,hard
1481.000,413.200,107.800,23.970,649.300,167.300,41.490,9.353,331.400,80.580,19.620,6.300,498.200,120.600,31.060,10.910,hard
1473.000,409.900,106.300,23.600,644.200,166.100,41.740,9.335,328.500,80.670,19.550,6.282,493.500,119.600,30.960,10.830,hard
1468.000,413.300,106.400,23.570,644.300,165.300,41.490,9.349,326.400,80.810,19.560,6.279,493.000,119.300,30.720,10.800,hard
1468.000,409.000,107.400,23.510,646.500,165.700,41.300,9.368,332.900,80.320,19.570,6.266,492.300,119.400,30.800,10.770,hard
1469.000,412.800,106.600,23.430,645.100,167.600,41.530,9.339,328.200,80.670,19.570,6.296,492.300,119.300,30.730,10.780,hard
1470.000,412.700,106.200,23.550,643.000,165.000,41.480,9.314,329.400,80.690,19.530,6.279,493.400,119.500,30.760,10.770,hard
1471.000,410.000,106.100,23.670,651.500,166.300,41.590,9.295,332.800,80.490,19.600,6.288,494.800,119.700,30.780,10.810,hard
1473.000,410.500,106.200,23.630,649.700,167.000,41.370,9.376,329.700,81.050,19.670,6.280,494.600,119.900,30.810,10.850,hard
1477.000,411.300,107.200,23.810,652.200,167.100,41.420,9.370,329.300,80.910,19.580,6.315,494.900,120.100,30.970,10.850,hard
1481.000,413.700,107.800,23.810,650.500,166.700,41.620,9.350,331.100,80.740,19.700,6.324,496.900,120.400,31.150,10.890,hard
1484.000,409.000,107.100,23.880,644.500,166.100,41.960,9.373,332.300,81.010,19.710,6.331,497.300,121.300,31.140,10.960,hard
1488.000,413.600,107.400,23.940,646.600,166.900,41.950,9.366,328.700,81.490,19.740,6.341,500.100,121.300,31.300,10.970,hard
1492.000,415.600,108.900,24.060,646.700,166.700,41.660,9.409,329.200,81.440,19.790,6.344,501.100,121.900,31.500,11.030,hard
1496.000,415.800,108.600,24.210,653.500,167.100,41.500,9.387,332.600,81.750,19.850,6.358,503.500,122.700,31.620,11.070,hard
1498.000,415.700,108.900,24.270,648.900,168.700,42.190,9.439,333.000,81.860,19.860,6.382,506.700,123.100,31.770,11.150,hard
1506.000,415.700,109.600,24.380,653.100,167.300,42.060,9.423,334.400,81.940,19.900,6.389,508.800,124.100,31.980,11.170,hard
1510.000,423.900,110.700,24.630,658.100,167.800,42.030,9.467,334.900,81.900,19.950,6.382,510.200,124.300,32.070,11.250,hard
1513.000,422.200,109.500,24.310,652.200,168.000,42.200,9.383,334.300,82.310,19.880,6.381,505.000,122.000,31.300,10.980,hard
1491.000,415.300,106.900,23.820,646.600,167.300,41.700,9.364,333.000,81.460,19.730,6.316,498.400,120.200,31.000,10.880,hard
1485.000,413.800,107.100,23.560,656.200,166.400,41.420,9.359,334.700,81.300,19.660,6.306,493.900,119.400,30.710,10.770,hard
1476.000,406.900,106.900,23.830,644.900,167.200,42.000,9.345,330.300,81.060,19.610,6.304,490.800,119.300,30.550,10.760,hard
1475.000,408.000,106.600,23.780,649.200,166.800,41.600,9.340,326.700,81.170,19.670,6.317,489.700,118.800,30.580,10.720,hard
1476.000,409.200,107.000,23.780,648.000,166.300,41.770,9.280,330.200,80.910,19.680,6.300,490.200,118.700,30.510,10.750,hard
1477.000,412.400,107.400,23.710,652.700,166.300,41.850,9.360,331.300,81.080,19.670,6.307,489.500,118.900,30.660,10.780,hard
1480.000,413.700,107.100,23.860,652.600,166.300,41.860,9.273,329.700,81.250,19.640,6.334,491.100,119.200,30.740,10.800,hard
1481.000,412.600,107.400,23.750,653.500,168.800,41.630,9.432,330.600,80.830,19.720,6.316,492.600,119.200,30.840,10.780,hard
1484.000,418.800,107.500,23.960,650.500,167.300,41.750,9.402,334.300,81.130,19.710,6.326,493.200,119.700,30.860,10.850,hard
1486.000,417.200,107.800,24.160,647.100,167.700,41.770,9.378,328.500,81.240,19.740,6.340,494.500,120.000,30.940,10.860,hard
1490.000,415.800,108.300,24.150,647.000,166.700,42.440,9.476,330.700,81.430,19.740,6.338,497.100,120.200,31.040,10.880,hard
1495.000,411.900,109.700,24.430,651.800,167.300,42.020,9.439,335.100,81.500,19.840,6.351,498.000,120.800,31.140,10.900,hard
1497.000,418.600,109.700,24.240,658.100,169.000,41.780,9.483,331.400,81.960,19.850,6.368,498.900,121.500,31.240,11.000,hard
1500.000,422.900,109.600,24.440,659.400,168.300,42.210,9.466,334.400,81.490,19.900,6.379,501.100,121.900,31.460,11.040,hard
1508.000,421.300,110.400,24.670,651.500,168.200,42.370,9.552,338.000,82.140,19.900,6.387,503.400,122.700,31.630,11.100,hard
1512.000,421.900,110.900,24.520,661.300,168.500,42.110,9.520,332.100,82.170,19.950,6.404,505.400,123.300,31.820,11.170,hard
1518.000,426.600,112.100,24.640,653.600,168.600,42.490,9.510,334.600,82.450,19.940,6.394,508.600,124.200,32.000,11.230,hard
1522.000,428.000,111.600,24.800,666.800,170.600,42.260,9.505,337.300,82.380,20.030,6.405,509.900,124.000,31.980,11.170,hard
1513.000,422.100,110.300,24.430,655.200,170.400,42.170,9.445,336.500,82.190,19.880,6.363,500.400,121.400,31.280,10.970,hard
1501.000,418.300,108.900,24.220,659.900,169.100,42.340,9.500,330.500,81.760,19.730,6.326,496.300,120.500,31.010,10.880,hard
1493.000,413.600,108.100,24.190,657.400,169.700,41.910,9.419,334.600,81.430,19.790,6.309,494.000,119.400,30.860,10.830,hard
1490.000,417.600,108.800,24.080,654.100,167.500,42.240,9.368,334.800,81.500,19.730,6.333,493.100,119.400,30.760,10.830,hard
1492.000,417.900,108.200,24.160,654.300,168.000,42.100,9.457,328.400,81.580,19.750,6.327,492.100,119.300,30.860,10.840,hard
1494.000,420.300,108.900,24.460,655.600,167.900,41.970,9.471,331.800,81.290,19.790,6.345,493.600,119.700,30.900,10.860,hard
1498.000,419.200,109.200,24.390,655.400,169.700,42.500,9.482,333.000,81.420,19.780,6.345,494.600,120.000,30.920,10.930,hard
1500.000,417.400,109.100,24.360,657.800,169.400,42.320,9.454,329.700,81.850,19.810,6.358,495.600,120.400,31.090,10.930,hard
1501.000,420.500,110.300,24.400,648.800,168.900,41.990,9.486,332.100,81.770,19.820,6.350,496.000,120.200,31.260,10.930,hard
1506.000,423.200,111.100,24.550,652.900,167.900,42.260,9.503,334.800,81.740,19.820,6.352,498.300,120.800,31.250,11.030,hard
1508.000,426.700,110.000,24.510,652.800,168.300,42.560,9.508,331.500,81.910,19.850,6.362,498.400,121.300,31.370,11.030,hard
1511.000,425.700,111.000,24.570,656.900,169.300,42.250,9.584,332.300,81.860,19.910,6.365,500.400,121.600,31.590,11.070,hard
1516.000,421.100,111.000,24.660,652.500,169.000,42.430,9.522,335.000,82.000,19.940,6.384,501.800,122.200,31.630,11.130,hard
1519.000,423.400,111.500,24.770,657.700,168.600,42.580,9.532,336.900,82.180,19.900,6.390,504.300,122.900,31.770,11.170,hard
1522.000,426.000,111.800,24.890,656.200,168.800,42.780,9.485,332.500,82.010,20.040,6.396,507.200,123.500,31.980,11.210,hard
1527.000,427.400,112.200,25.010,665.200,169.100,42.740,9.511,338.200,82.410,20.010,6.394,509.500,124.100,32.180,11.270,hard
1531.000,427.100,112.100,24.770,661.900,170.800,42.870,9.504,337.000,82.520,20.000,6.410,507.100,123.100,31.570,11.120,hard
1512.000,421.300,111.000,24.680,650.800,169.600,42.170,9.590,332.400,81.980,19.840,6.343,500.300,121.400,31.340,11.000,hard
1508.000,418.800,109.700,24.560,662.600,169.100,42.480,9.569,336.000,81.620,19.830,6.355,497.600,120.800,31.120,11.000,hard
1505.000,419.800,110.900,24.360,649.300,168.400,42.240,9.479,334.600,81.460,19.810,6.362,496.900,120.900,31.180,10.970,hard
1506.000,424.100,109.700,24.520,649.100,168.200,42.410,9.344,330.100,81.580,19.800,6.358,496.300,120.500,31.240,10.990,hard
1506.000,421.700,111.000,24.570,655.800,167.800,42.270,9.481,331.500,81.430,19.820,6.349,497.200,120.800,31.320,11.000,hard
1509.000,423.800,110.900,24.570,658.400,170.400,42.530,9.464,333.200,81.510,19.870,6.365,499.000,121.200,31.290,11.050,hard
1512.000,424.600,111.100,24.600,652.500,169.000,42.310,9.443,332.900,81.960,19.810,6.364,499.500,121.900,31.470,11.080,hard
1513.000,423.200,111.300,24.710,660.900,170.500,42.730,9.503,334.300,81.800,19.900,6.367,502.300,121.800,31.550,11.100,hard
1516.000,423.600,111.200,24.710,658.100,169.900,42.850,9.555,336.300,82.020,19.960,6.370,502.600,122.400,31.610,11.170,hard
1520.000,426.500,111.400,24.730,657.600,168.900,42.240,9.488,331.300,82.070,19.940,6.396,504.600,123.100,31.770,11.190,hard
1525.000,427.100,112.000,24.970,656.500,170.300,42.700,9.496,334.900,82.250,19.990,6.375,506.900,123.300,31.950,11.240,hard
1527.000,428.200,112.700,24.910,657.700,170.500,42.560,9.607,338.500,82.380,20.000,6.387,508.700,124.000,32.090,11.310,hard
1532.000,427.700,112.700,24.930,659.600,168.700,42.930,9.571,334.100,82.270,20.010,6.405,509.400,124.600,32.320,11.340,hard
1534.000,433.400,111.800,25.240,659.300,168.900,42.670,9.490,336.200,82.600,20.030,6.403,512.800,125.300,32.470,11.390,hard
1540.000,431.400,113.600,25.150,664.400,169.700,42.890,9.577,338.000,82.390,20.110,6.412,515.300,125.800,32.660,11.440,hard
1541.000,433.200,113.800,25.220,654.500,171.100,42.860,9.598,337.400,83.010,20.050,6.426,518.000,126.600,32.730,11.530,hard
1549.000,436.800,114.800,25.290,661.000,170.000,43.040,9.545,335.800,82.780,20.160,6.416,517.800,126.300,32.600,11.410,hard
1529.000,429.200,112.000,24.820,665.900,169.500,42.830,9.508,336.500,82.190,20.000,6.355,508.800,123.200,31.890,11.220,hard
1519.000,426.100,112.000,24.580,658.200,168.300,42.530,9.455,331.900,81.920,19.830,6.341,504.500,122.700,31.690,11.170,hard
1512.000,423.600,110.600,24.790,656.500,169.100,42.130,9.494,327.700,81.790,19.790,6.331,500.900,121.800,31.510,11.150,hard
1509.000,423.600,111.000,24.600,660.200,170.200,42.690,9.520,334.500,81.630,19.780,6.322,500.000,121.600,31.490,11.120,hard
1508.000,421.600,111.000,24.660,657.400,169.800,42.340,9.476,336.600,81.550,19.800,6.342,500.300,121.700,31.490,11.150,hard
1510.000,427.000,110.700,24.660,653.800,169.500,42.630,9.544,331.600,81.700,19.810,6.338,502.100,122.100,31.610,11.130,hard
1512.000,425.100,111.500,24.820,652.900,169.600,42.820,9.440,332.600,81.730,19.860,6.328,502.100,122.200,31.800,11.230,hard
1514.000,423.300,110.200,24.740,658.800,168.700,42.550,9.492,335.100,81.660,19.870,6.331,503.200,122.500,31.850,11.220,hard
1517.000,425.200,112.300,24.880,654.600,168.400,43.030,9.500,331.200,81.980,19.880,6.363,504.500,123.200,31.770,11.250,hard
1519.000,428.700,110.800,24.710,662.600,170.700,42.620,9.455,333.200,81.890,19.900,6.365,506.500,123.000,32.050,11.280,hard
1522.000,425.000,112.500,24.940,663.300,170.300,42.640,9.501,334.800,81.670,19.980,6.349,508.600,123.800,32.110,11.330,hard
1527.000,427.100,112.000,24.990,665.100,168.900,42.890,9.584,335.500,82.290,19.910,6.370,510.600,124.400,32.310,11.400,hard
1528.000,429.800,112.600,24.940,660.700,169.400,42.760,9.539,333.600,82.090,19.920,6.362,512.100,124.900,32.540,11.420,hard
1531.000,428.700,113.700,25.060,660.500,170.400,43.270,9.642,336.600,82.240,19.970,6.371,513.100,125.700,32.570,11.500,hard
1536.000,431.600,113.300,25.170,662.000,171.400,42.750,9.580,332.800,82.230,19.970,6.386,516.500,126.300,32.790,11.560,hard
1541.000,435.100,113.900,25.270,665.700,171.400,42.970,9.531,332.600,82.820,19.960,6.382,519.300,126.600,32.930,11.600,hard
1546.000,433.500,114.900,25.320,661.300,171.100,43.190,9.557,337.000,82.700,20.040,6.387,521.800,127.500,33.090,11.640,hard
1549.000,435.700,115.600,25.470,661.300,169.700,43.300,9.617,338.400,82.970,20.090,6.406,523.400,128.200,33.180,11.670,hard
1544.000,430.100,113.700,25.160,666.300,169.200,42.970,9.474,332.900,82.440,19.930,6.366,515.400,125.400,32.500,11.420,hard
1522.000,427.000,112.000,25.020,654.200,168.600,42.640,9.479,336.400,81.500,19.840,6.307,508.100,123.500,32.040,11.320,hard
1515.000,424.100,112.300,24.810,653.400,168.400,42.550,9.475,332.700,81.190,19.810,6.306,505.100,122.800,31.870,11.230,hard
1507.000,423.000,111.100,24.640,657.100,168.400,42.340,9.460,326.000,81.750,19.730,6.300,503.900,122.400,31.750,11.200,hard
1508.000,421.100,110.400,24.690,650.900,167.600,42.430,9.450,331.100,81.410,19.720,6.281,503.600,122.200,31.770,11.190,hard
1509.000,423.300,111.700,24.660,653.200,168.700,42.470,9.526,333.100,81.240,19.740,6.301,503.300,122.700,31.760,11.210,hard
1511.000,423.700,110.100,24.750,655.200,168.200,42.790,9.435,328.900,81.480,19.640,6.292,504.500,122.800,31.850,11.270,hard
1510.000,424.800,112.000,24.730,657.300,169.200,42.680,9.469,331.300,81.760,19.750,6.308,505.300,123.100,32.000,11.270,hard
1511.000,424.100,112.100,24.660,651.600,167.400,42.570,9.534,332.500,81.380,19.750,6.309,506.900,123.400,32.030,11.310,hard
1515.000,423.900,111.300,25.050,654.800,168.800,42.510,9.507,331.400,81.600,19.750,6.311,508.000,123.600,32.090,11.380,hard
1517.000,428.100,111.800,24.810,659.000,168.600,43.140,9.475,333.400,81.460,19.800,6.322,509.500,124.100,32.220,11.400,hard
1522.000,424.100,112.800,25.040,661.800,169.100,42.560,9.496,338.600,81.390,19.820,6.333,510.700,124.600,32.380,11.450,hard
1524.000,429.400,112.600,25.210,651.400,170.200,42.460,9.535,332.700,81.860,19.830,6.340,513.400,125.200,32.420,11.480,hard
1527.000,428.400,112.400,25.070,655.400,170.600,42.880,9.475,334.000,81.810,19.900,6.365,515.600,125.800,32.680,11.490,hard
1531.000,432.200,113.300,25.160,655.000,169.800,43.150,9.501,334.200,82.150,19.940,6.326,516.700,126.300,32.910,11.540,hard
1535.000,431.300,113.100,25.020,659.900,171.400,42.800,9.619,334.300,82.250,19.950,6.342,518.400,127.100,32.950,11.620,hard
1539.000,433.900,112.800,25.290,655.500,168.800,42.940,9.502,333.800,82.280,19.920,6.374,521.800,127.500,33.190,11.670,hard
1544.000,432.100,114.200,25.430,668.000,169.900,43.230,9.596,338.200,82.330,20.030,6.363,522.200,127.600,32.990,11.610,hard
1527.000,428.400,111.700,24.900,655.900,168.700,42.640,9.375,337.200,81.850,19.810,6.320,513.600,125.000,32.320,11.410,hard
1514.000,425.700,111.400,24.670,657.600,167.700,42.290,9.505,330.300,81.410,19.710,6.281,508.400,123.600,32.160,11.350,hard
1508.000,428.200,111.100,24.610,655.500,168.100,42.500,9.385,331.400,81.110,19.730,6.278,506.300,122.900,31.910,11.270,hard
1506.000,420.100,111.400,24.520,655.000,167.400,42.370,9.520,331.700,81.160,19.730,6.269,505.600,122.900,31.860,11.260,hard
1503.000,421.500,111.100,24.590,654.500,168.500,42.410,9.578,330.700,81.110,19.650,6.302,504.500,123.300,31.820,11.270,hard
1505.000,422.100,110.400,24.880,656.400,167.600,42.100,9.449,330.200,81.300,19.720,6.289,505.200,123.100,31.860,11.250,hard
1508.000,421.300,110.300,24.540,654.300,168.100,42.600,9.471,335.900,81.110,19.790,6.304,506.400,123.300,31.990,11.320,hard
1508.000,427.200,110.700,24.700,655.100,167.300,42.690,9.534,331.000,81.500,19.680,6.304,507.800,123.600,32.100,11.350,hard
1511.000,426.900,110.300,24.720,651.400,168.700,42.320,9.547,333.000,81.520,19.760,6.298,508.900,124.000,32.230,11.350,hard
1514.000,426.200,111.600,24.770,655.300,169.300,42.260,9.446,332.400,81.600,19.800,6.305,512.100,124.500,32.360,11.440,hard
1517.000,426.500,111.900,24.910,652.100,169.200,42.740,9.473,332.400,81.810,19.780,6.302,510.700,125.100,32.460,11.460,hard
1521.000,429.500,112.200,24.930,660.800,167.800,42.870,9.579,332.800,81.810,19.860,6.334,513.900,125.200,32.570,11.500,hard
1522.000,428.800,112.600,24.940,660.000,168.500,42.460,9.509,336.900,81.700,19.910,6.328,514.500,125.800,32.760,11.520,hard
1527.000,430.000,113.200,25.090,651.600,169.000,42.910,9.421,333.100,82.060,19.910,6.337,516.300,126.600,32.800,11.550,hard
1532.000,427.800,113.100,25.240,654.300,168.800,42.850,9.527,333.300,82.180,19.950,6.340,519.000,127.200,33.020,11.620,hard
1536.000,431.800,113.200,25.230,663.200,169.100,42.930,9.534,334.700,82.210,19.960,6.344,521.600,127.600,33.160,11.670,hard
1541.000,436.000,114.000,25.320,659.400,171.100,43.070,9.531,334.900,82.390,20.000,6.359,523.400,127.700,33.290,11.650,hard
1529.000,431.500,112.400,24.750,660.300,169.700,42.880,9.385,332.600,81.840,19.820,6.319,514.900,125.300,32.480,11.430,hard
1511.000,422.000,111.700,24.670,650.100,167.800,42.470,9.435,332.900,81.350,19.730,6.282,509.700,123.700,32.080,11.300,hard
1503.000,421.000,110.700,24.480,656.800,167.900,42.250,9.497,333.000,81.360,19.670,6.267,505.800,122.800,31.910,11.250,hard
1498.000,418.500,109.500,24.380,651.400,166.000,42.540,9.468,328.700,81.380,19.620,6.258,502.900,122.800,31.790,11.210,hard
1498.000,421.400,110.300,24.580,649.200,167.500,42.450,9.412,329.900,81.180,19.600,6.259,503.100,122.300,31.800,11.200,hard
1497.000,418.700,109.600,24.420,651.600,167.100,42.380,9.371,331.400,80.830,19.640,6.271,504.800,122.700,31.810,11.220,hard
1499.000,420.200,110.200,24.520,644.700,169.500,42.530,9.463,329.300,81.160,19.670,6.283,504.400,122.800,31.820,11.260,hard
1501.000,422.700,110.600,24.620,654.000,168.300,42.090,9.438,330.000,81.050,19.650,6.275,505.600,122.900,32.080,11.260,hard
1503.000,420.600,110.700,24.520,655.800,169.000,42.250,9.458,333.600,81.050,19.710,6.271,507.100,123.100,32.030,11.290,hard
1505.000,419.700,110.900,24.680,654.100,168.300,42.780,9.462,333.000,81.340,19.740,6.289,508.400,124.000,32.090,11.330,hard
1509.000,419.000,110.300,24.670,653.200,169.700,42.600,9.484,328.600,81.450,19.750,6.289,509.900,124.100,32.320,11.390,hard
1509.000,421.000,111.000,24.820,655.000,167.700,42.390,9.514,333.200,81.400,19.780,6.287,511.700,124.700,32.470,11.420,hard
1514.000,425.600,111.500,24.880,654.200,167.400,42.620,9.485,331.500,81.470,19.790,6.304,512.400,125.200,32.620,11.470,hard
1518.000,423.800,111.400,24.870,654.400,167.600,42.790,9.419,330.700,82.030,19.820,6.309,516.200,126.100,32.640,11.490,hard
1524.000,421.200,111.900,24.890,660.800,169.300,42.900,9.488,336.600,81.990,19.920,6.318,518.200,126.500,32.880,11.550,hard
1527.000,426.800,112.300,25.110,660.300,169.100,42.860,9.485,334.900,81.880,19.900,6.339,518.300,127.100,33.020,11.590,hard
1534.000,431.400,112.300,25.310,652.400,168.200,42.530,9.565,330.500,82.440,19.930,6.346,521.300,128.100,33.100,11.680,hard
1537.000,430.400,113.800,25.160,661.500,170.300,42.620,9.482,336.500,82.230,19.930,6.334,523.500,128.500,33.460,11.720,hard
1545.000,432.400,114.100,25.040,653.000,169.400,42.670,9.488,335.400,82.550,19.980,6.339,522.800,127.100,32.870,11.550,hard
1512.000,421.700,110.800,24.700,657.300,168.500,41.950,9.567,331.100,81.630,19.700,6.283,512.200,124.500,32.280,11.370,hard
1503.000,419.800,110.200,24.460,648.500,168.500,42.490,9.486,333.700,81.290,19.720,6.276,508.300,123.600,31.990,11.250,hard
1495.000,418.300,109.900,24.390,657.700,167.600,41.970,9.411,333.300,80.960,19.650,6.256,504.000,122.600,31.800,11.210,hard
1494.000,418.900,109.100,24.450,652.200,165.800,42.200,9.347,329.700,80.960,19.600,6.244,503.300,122.500,31.670,11.190,hard
1493.000,417.800,109.200,24.370,655.900,167.100,42.380,9.394,329.000,81.270,19.610,6.247,503.000,122.500,31.740,11.160,hard
1492.000,420.800,109.100,24.530,654.700,166.900,42.200,9.447,332.200,80.870,19.660,6.243,505.000,122.700,31.750,11.210,hard
1499.000,418.600,109.400,24.370,654.000,167.300,42.000,9.454,328.900,81.330,19.640,6.267,505.500,123.000,31.770,11.210,hard
1498.000,418.600,109.800,24.610,654.900,167.600,42.300,9.494,329.900,81.340,19.690,6.263,506.200,123.500,32.000,11.230,hard
1500.000,424.600,110.000,24.470,654.300,168.600,42.030,9.397,330.700,81.030,19.720,6.270,508.600,123.400,31.950,11.310,hard
1504.000,421.900,110.400,24.550,652.200,168.300,42.370,9.441,331.800,81.230,19.670,6.283,509.000,124.300,32.190,11.340,hard
1506.000,421.200,110.600,24.780,653.600,167.800,42.280,9.472,331.200,81.730,19.760,6.282,511.400,124.800,32.290,11.380,hard
1510.000,421.200,111.100,24.760,656.100,167.800,42.630,9.526,333.700,81.670,19.780,6.304,512.800,125.500,32.420,11.390,hard
1514.000,422.100,112.100,24.660,658.900,167.200,42.400,9.479,336.100,81.670,19.790,6.307,514.500,125.800,32.540,11.470,hard
1520.000,423.600,111.700,24.990,661.500,169.300,42.510,9.435,330.200,81.900,19.810,6.311,516.700,126.600,32.680,11.510,hard
1525.000,431.900,112.000,24.960,656.600,168.700,42.800,9.366,335.400,82.010,19.910,6.319,519.300,127.000,32.890,11.510,hard
1529.000,429.100,112.100,25.090,657.800,169.400,42.860,9.519,337.400,82.180,19.870,6.343,520.600,127.600,33.030,11.630,hard
1533.000,432.200,112.700,25.050,657.600,168.700,42.780,9.546,332.300,82.680,19.950,6.330,523.100,128.300,33.190,11.630,hard
1527.000,427.700,111.700,24.720,663.000,168.600,42.660,9.280,333.500,82.300,19.900,6.295,516.100,125.800,32.420,11.390,hard
1503.000,423.800,110.800,24.580,659.800,166.500,42.340,9.442,334.300,81.530,19.740,6.265,511.400,123.800,32.030,11.300,hard
1500.000,421.000,109.700,24.630,657.500,168.100,42.660,9.347,329.500,81.320,19.670,6.286,507.400,123.200,31.860,11.220,hard
1496.000,418.200,110.200,24.380,654.200,168.000,42.370,9.373,332.100,81.670,19.650,6.280,506.300,123.000,31.780,11.180,hard
1496.000,419.600,108.600,24.440,653.200,167.500,42.090,9.377,333.100,81.170,19.630,6.253,504.500,122.700,31.660,11.190,hard
1493.000,417.300,108.500,24.450,659.500,166.600,42.360,9.468,330.300,80.980,19.620,6.275,505.000,123.200,31.780,11.220,hard
1496.000,420.400,109.800,24.420,652.300,167.400,42.560,9.388,330.100,81.360,19.690,6.274,505.600,123.500,31.870,11.200,hard
1500.000,419.800,110.100,24.470,654.600,167.900,42.600,9.403,335.100,81.240,19.750,6.265,507.700,123.700,31.940,11.270,hard
1502.000,417.300,110.100,24.530,650.300,168.600,42.470,9.526,331.400,81.450,19.690,6.280,508.100,124.200,31.920,11.290,hard
1505.000,422.100,110.700,24.740,651.800,168.300,42.170,9.469,331.000,81.690,19.730,6.299,509.300,124.400,32.120,11.320,hard
1508.000,423.200,111.400,24.740,653.200,167.200,42.360,9.491,335.000,81.460,19.770,6.295,512.200,124.800,32.340,11.390,hard
1511.000,424.100,111.200,24.690,656.500,168.200,42.770,9.459,334.500,81.810,19.860,6.297,513.900,125.600,32.460,11.440,hard
1515.000,423.900,111.900,24.840,652.100,168.500,42.770,9.391,329.100,82.180,19.820,6.319,515.300,126.200,32.590,11.440,hard
1520.000,424.900,112.400,24.820,655.200,167.900,42.500,9.407,336.600,81.850,19.910,6.312,518.600,126.600,32.800,11.480,hard
1525.000,427.600,112.200,24.970,654.600,169.500,42.620,9.467,336.700,81.940,19.920,6.325,519.400,127.500,32.900,11.580,hard
1533.000,427.700,112.700,25.110,660.200,169.100,42.580,9.423,334.800,82.250,19.900,6.350,522.500,128.400,33.140,11.640,hard
1537.000,433.900,113.600,25.290,660.400,168.300,43.320,9.529,335.600,82.290,19.960,6.357,524.900,128.700,33.400,11.680,hard
1543.000,434.600,113.600,25.210,660.600,169.900,42.590,9.522,338.000,82.720,20.040,6.360,525.000,128.500,33.180,11.620,hard
1519.000,424.700,111.800,24.700,651.700,167.900,42.650,9.371,333.300,82.270,19.810,6.309,516.300,125.500,32.320,11.380,hard
1506.000,422.400,111.400,24.420,657.900,167.900,42.380,9.473,331.600,81.740,19.700,6.272,509.900,123.900,31.970,11.250,hard
1500.000,419.800,109.700,24.400,649.600,168.500,42.420,9.280,331.300,81.260,19.690,6.251,506.800,123.100,31.740,11.170,hard
1493.000,418.000,110.300,24.400,650.400,168.600,41.810,9.353,331.200,81.160,19.650,6.277,504.900,122.700,31.520,11.170,hard
1492.000,418.900,110.300,24.210,651.500,166.500,41.780,9.339,327.400,81.180,19.640,6.261,503.600,122.500,31.620,11.130,hard
1492.000,419.600,109.100,24.390,653.700,168.500,41.900,9.360,332.500,81.220,19.670,6.260,504.700,122.800,31.690,11.180,hard
1496.000,419.700,109.400,24.340,648.800,167.500,42.460,9.401,331.600,81.530,19.660,6.271,505.500,123.100,31.760,11.180,hard
1497.000,421.700,109.900,24.440,654.600,166.900,42.570,9.448,328.400,81.270,19.680,6.279,507.500,123.100,31.820,11.190,hard
1498.000,420.000,110.500,24.480,646.800,167.400,42.430,9.414,333.000,81.440,19.720,6.260,507.400,123.800,32.000,11.240,hard
1504.000,420.500,111.000,24.610,657.300,168.200,42.180,9.401,334.100,81.480,19.730,6.311,509.300,124.500,32.050,11.330,hard
1507.000,422.700,110.800,24.610,650.700,168.200,42.050,9.381,330.100,81.700,19.780,6.320,510.600,124.900,32.250,11.330,hard
1510.000,425.900,111.400,24.640,650.400,168.600,42.300,9.433,334.100,81.840,19.790,6.298,513.700,125.500,32.470,11.390,hard
1515.000,424.300,111.600,24.910,659.100,167.800,42.660,9.359,335.600,81.950,19.860,6.327,515.600,126.100,32.570,11.460,hard
1519.000,425.400,112.300,24.910,654.700,169.300,42.290,9.464,331.800,82.260,19.880,6.334,517.200,126.700,32.670,11.500,hard
1524.000,425.500,111.900,24.920,660.000,170.200,42.610,9.412,333.800,82.040,19.940,6.326,520.700,127.000,33.000,11.540,hard
1531.000,430.100,112.200,24.930,657.300,168.600,42.820,9.426,337.700,82.220,20.020,6.346,522.000,127.900,33.040,11.600,hard
1536.000,430.400,112.500,25.280,659.800,170.400,42.640,9.430,336.300,82.430,19.970,6.378,523.100,128.700,33.270,11.650,hard
1543.000,432.400,114.600,25.310,659.800,168.100,42.860,9.506,337.100,82.760,20.050,6.355,525.900,129.000,33.500,11.650,hard
1530.000,426.900,111.100,24.850,659.100,169.200,42.670,9.430,337.900,82.530,19.940,6.328,519.000,126.300,32.480,11.390,hard
1506.000,421.200,111.000,24.430,652.500,167.600,42.020,9.313,331.900,81.720,19.720,6.279,509.800,124.400,31.990,11.280,hard
1498.000,420.700,110.200,24.290,660.900,168.200,42.080,9.330,330.700,81.440,19.650,6.266,506.700,123.300,31.750,11.180,hard
1491.000,416.600,109.800,24.380,655.900,166.400,42.340,9.402,335.000,81.060,19.640,6.256,505.100,122.800,31.650,11.110,hard
1491.000,416.400,109.800,24.400,652.100,167.300,42.040,9.369,331.000,81.180,19.630,6.253,502.400,122.500,31.600,11.130,hard
1490.000,418.200,109.200,24.310,649.600,167.400,42.010,9.392,327.500,81.370,19.630,6.274,503.900,122.800,31.640,11.140,hard
1492.000,416.300,110.200,24.240,649.700,166.700,42.330,9.390,330.700,81.090,19.690,6.255,503.700,123.000,31.800,11.150,hard
1495.000,419.900,109.500,24.290,645.300,167.000,42.410,9.437,332.400,81.120,19.730,6.276,506.500,123.000,31.770,11.210,hard
1496.000,423.500,110.500,24.420,649.700,166.700,42.250,9.382,328.900,81.680,19.720,6.284,507.400,124.100,31.910,11.230,hard
1500.000,417.700,109.900,24.350,645.300,168.200,42.400,9.436,331.800,81.400,19.770,6.277,508.500,123.900,32.040,11.270,hard
1504.000,421.400,111.400,24.640,656.100,168.500,42.390,9.347,332.700,81.500,19.790,6.309,510.300,124.900,32.170,11.330,hard
1506.000,425.100,111.000,24.580,655.800,169.400,42.110,9.449,329.200,81.860,19.810,6.310,512.500,125.200,32.190,11.350,hard
1511.000,423.900,111.200,24.810,654.300,167.600,42.490,9.359,334.400,82.110,19.830,6.317,513.600,125.400,32.440,11.370,hard
1516.000,425.900,112.800,24.830,651.200,167.200,42.260,9.449,335.400,82.130,19.890,6.321,516.200,126.100,32.650,11.480,hard
1520.000,424.600,112.000,24.890,654.100,169.000,42.830,9.526,332.500,82.340,19.880,6.348,519.500,126.900,32.760,11.560,hard
1525.000,429.000,112.000,25.090,650.600,169.000,42.660,9.496,333.700,82.380,19.970,6.338,521.600,127.600,32.970,11.590,hard
1531.000,432.600,113.400,25.150,660.800,169.300,42.730,9.461,336.200,82.300,20.030,6.350,522.800,128.300,33.180,11.630,hard
1538.000,432.600,113.700,25.260,660.200,169.800,42.350,9.478,336.400,82.920,20.090,6.363,523.100,128.100,32.990,11.590,hard
1512.000,425.100,111.300,24.650,653.600,167.500,42.380,9.351,332.600,82.420,19.900,6.306,515.000,125.300,32.290,11.320,hard
1501.000,420.900,110.100,24.420,656.800,168.100,41.950,9.448,333.900,81.600,19.790,6.287,509.900,124.200,31.960,11.220,hard
1494.000,417.400,109.400,24.200,654.100,166.000,42.350,9.355,330.900,81.590,19.680,6.288,506.500,123.300,31.740,11.210,hard
1491.000,416.600,109.400,24.200,646.700,168.100,42.430,9.449,329.200,81.610,19.650,6.282,505.100,123.000,31.820,11.160,hard
1489.000,418.700,109.300,24.260,649.500,167.400,42.170,9.403,331.900,81.270,19.680,6.273,505.600,122.700,31.690,11.160,hard
1491.000,418.200,109.500,24.230,648.200,166.600,41.950,9.374,331.300,81.510,19.740,6.278,504.900,122.900,31.730,11.210,hard
1495.000,418.100,110.600,24.470,649.400,167.100,42.640,9.399,331.000,81.490,19.750,6.310,506.100,123.600,31.810,11.250,hard
1495.000,415.500,110.200,24.340,654.900,166.600,42.210,9.341,333.800,81.590,19.760,6.296,507.100,123.500,32.010,11.250,hard
1497.000,422.300,110.400,24.460,648.600,167.700,42.290,9.430,333.800,81.800,19.840,6.305,508.700,124.200,32.100,11.280,hard
1502.000,419.800,110.500,24.400,657.000,168.900,42.590,9.453,330.200,81.850,19.800,6.317,510.800,124.800,32.160,11.320,hard
1506.000,421.000,111.900,24.710,648.000,168.500,42.200,9.463,334.800,81.880,19.860,6.325,511.900,125.200,32.280,11.370,hard
1509.000,418.000,111.200,24.620,650.600,167.800,42.410,9.352,335.600,82.180,19.880,6.318,514.500,126.100,32.370,11.410,hard
1515.000,421.600,112.200,24.850,651.600,168.800,42.710,9.465,332.000,82.340,19.870,6.336,515.100,126.300,32.540,11.450,hard
1518.000,428.300,111.600,24.800,656.200,169.600,42.260,9.446,334.000,82.260,19.940,6.336,517.600,126.900,32.880,11.510,hard
1524.000,429.000,111.400,25.030,654.900,167.200,42.340,9.460,337.300,82.200,20.010,6.348,520.000,127.200,32.940,11.590,hard
1529.000,427.500,112.900,24.960,651.200,168.900,42.750,9.483,337.100,82.740,20.000,6.360,521.200,127.900,33.130,11.620,hard
1533.000,429.700,113.300,25.210,661.600,170.100,42.860,9.516,335.500,82.680,19.990,6.369,525.000,128.900,33.360,11.660,hard
1531.000,429.900,113.000,24.700,655.600,167.900,42.780,9.470,337.600,82.380,20.010,6.337,518.800,126.500,32.610,11.410,hard
1502.000,422.400,110.600,24.460,655.100,167.500,42.060,9.423,332.500,81.860,19.750,6.296,510.700,124.200,32.010,11.290,hard
1495.000,415.700,109.400,24.200,650.800,167.000,41.980,9.366,327.000,81.910,19.740,6.282,506.100,123.400,31.790,11.180,hard
1487.000,416.800,108.900,24.210,641.700,167.100,41.970,9.384,332.200,81.060,19.700,6.257,503.600,122.700,31.640,11.130,hard
1487.000,416.700,108.800,24.000,641.400,166.600,42.000,9.305,334.200,81.310,19.680,6.279,501.900,122.500,31.580,11.130,hard
1486.000,416.100,109.000,24.120,644.000,167.000,42.600,9.319,328.400,81.410,19.670,6.280,503.500,122.700,31.680,11.150,hard
1488.000,416.400,109.800,24.180,652.400,168.500,42.230,9.357,330.900,81.420,19.770,6.274,503.900,123.000,31.790,11.160,hard
