A-DC1,A-DC2,A-DC3,A-DC4,A-DC5,A-DC6,A-DC7,A-DC8,B-DC1,B-DC2,B-DC3,B-DC4,B-DC5,B-DC6,B-DC7,B-DC8,condition
1363.000,303.400,67.230,14.840,1744.000,327.400,66.970,12.930,387.500,63.420,12.990,3.501,377.100,106.700,30.050,8.770,baseline
1308.000,287.600,62.410,13.680,1674.000,312.900,64.540,12.510,384.900,62.640,12.690,3.434,357.300,101.200,28.500,8.301,baseline
1263.000,280.800,61.610,13.580,1684.000,315.400,64.830,12.630,376.300,62.170,12.670,3.397,356.100,101.600,28.620,8.404,baseline
1279.000,284.400,62.630,13.800,1692.000,318.000,65.400,12.740,378.300,62.220,12.690,3.413,361.000,102.900,29.060,8.494,baseline
1303.000,287.700,63.530,13.990,1697.000,319.400,65.650,12.750,382.300,62.870,12.830,3.445,362.700,103.200,29.070,8.569,baseline
1304.000,289.000,63.790,14.020,1703.000,320.700,65.820,12.870,383.300,63.250,12.760,3.453,366.100,104.000,29.540,8.650,baseline
1328.000,294.900,65.530,14.340,1720.000,325.200,66.650,13.010,385.100,62.850,12.800,3.476,371.700,106.000,30.000,8.817,baseline
1356.000,301.100,67.060,14.790,1739.000,328.100,67.710,13.100,387.400,63.820,13.000,3.520,377.400,107.800,30.470,8.957,baseline
1366.000,298.900,64.730,14.100,1690.000,315.900,64.620,12.490,389.300,63.850,12.950,3.471,362.300,102.800,29.000,8.371,baseline
1263.000,278.800,60.990,13.450,1665.000,315.100,64.500,12.580,373.500,62.500,12.660,3.388,356.700,102.000,28.530,8.344,baseline
1271.000,281.300,61.580,13.580,1681.000,316.900,64.650,12.600,379.100,62.530,12.580,3.395,358.700,102.500,28.960,8.453,baseline
1292.000,285.700,63.140,13.890,1695.000,318.700,65.420,12.740,386.000,62.640,12.670,3.431,362.500,103.600,29.120,8.520,baseline
1302.000,287.800,63.470,14.000,1703.000,319.600,65.710,12.720,386.200,63.240,12.750,3.451,364.800,103.900,29.430,8.624,baseline
1317.000,290.700,64.780,14.270,1718.000,323.200,66.440,12.890,386.400,62.790,12.860,3.461,369.600,105.200,29.940,8.804,baseline
1348.000,301.000,66.370,14.640,1737.000,327.400,67.680,13.200,387.700,64.310,12.850,3.518,377.700,107.700,30.340,8.982,baseline
1391.000,310.000,68.150,14.990,1744.000,324.600,66.170,12.810,391.700,64.500,13.070,3.527,379.300,107.200,29.970,8.642,baseline
1296.000,284.600,62.290,13.590,1669.000,312.700,64.030,12.530,386.100,62.710,12.660,3.413,357.500,101.600,28.720,8.363,baseline
1267.000,280.300,61.320,13.610,1679.000,316.200,64.860,12.630,385.700,62.300,12.600,3.407,357.700,102.100,28.680,8.453,baseline
1286.000,284.400,62.490,13.880,1694.000,319.000,65.420,12.750,379.700,62.630,12.600,3.413,363.000,103.400,29.170,8.626,baseline
1309.000,289.000,63.660,14.010,1702.000,319.000,65.490,12.750,385.100,62.790,12.790,3.441,365.700,103.700,29.350,8.571,baseline
1315.000,290.100,64.190,14.180,1712.000,321.000,66.140,12.810,382.300,63.210,12.860,3.439,368.300,105.200,29.640,8.713,baseline
1338.000,298.000,65.530,14.600,1733.000,326.400,67.030,13.000,386.400,63.660,12.900,3.497,375.900,106.800,30.150,8.863,baseline
1374.000,306.300,67.760,15.090,1755.000,330.100,68.290,13.260,391.500,64.340,13.070,3.518,383.200,108.200,30.840,9.088,baseline
1395.000,308.600,66.180,14.410,1706.000,318.100,64.860,12.560,395.500,64.390,13.010,3.486,368.800,103.900,29.170,8.542,baseline
1275.000,281.500,61.710,13.600,1682.000,315.000,64.810,12.540,380.500,62.320,12.630,3.400,358.200,102.400,28.870,8.448,baseline
1284.000,284.000,62.650,13.900,1702.000,319.600,65.710,12.770,381.900,62.800,12.730,3.418,362.700,103.000,29.090,8.562,baseline
1316.000,294.400,64.890,14.290,1723.000,322.800,66.380,12.860,386.800,63.460,12.830,3.447,368.400,104.300,29.660,8.658,baseline
1329.000,295.000,65.170,14.380,1720.000,323.500,66.450,12.940,389.000,63.210,12.770,3.454,369.200,104.900,29.670,8.706,baseline
1342.000,298.600,65.840,14.690,1724.000,325.900,67.000,13.040,393.500,63.310,12.900,3.472,374.400,106.100,30.210,8.918,baseline
1372.000,306.500,67.540,14.980,1755.000,330.100,68.240,13.250,395.800,63.390,12.980,3.502,381.300,108.400,30.820,9.041,baseline
1412.000,314.200,70.170,15.520,1774.000,334.100,68.670,13.160,395.500,64.450,13.100,3.554,385.900,109.400,31.010,9.068,baseline
1365.000,297.100,64.930,14.190,1700.000,316.800,65.080,12.600,389.400,63.630,12.910,3.467,364.900,103.700,29.140,8.532,baseline
1287.000,285.500,62.930,13.870,1695.000,318.500,65.280,12.720,378.700,62.270,12.730,3.423,362.400,103.400,29.110,8.549,baseline
1307.000,289.100,64.240,14.260,1719.000,321.800,66.140,12.830,384.800,63.210,12.710,3.451,368.200,105.100,29.550,8.733,baseline
1338.000,297.100,65.060,14.510,1728.000,321.800,66.280,12.860,388.200,63.320,12.730,3.475,371.800,105.300,29.810,8.751,baseline
1336.000,296.700,65.600,14.490,1724.000,324.100,66.400,12.980,388.800,63.490,12.900,3.507,372.600,105.900,29.960,8.856,baseline
1359.000,301.700,66.560,14.820,1747.000,329.400,67.720,13.130,394.000,64.190,12.930,3.518,378.400,107.500,30.520,9.049,baseline
1394.000,310.500,68.640,15.310,1773.000,333.300,68.550,13.340,393.200,64.970,13.200,3.544,385.800,109.700,31.310,9.200,baseline
1423.000,315.600,68.700,15.000,1729.000,322.500,65.700,12.700,401.100,64.620,13.150,3.538,375.700,106.300,29.890,8.662,baseline
1302.000,286.000,63.040,13.930,1689.000,317.700,64.840,12.610,392.500,63.590,12.770,3.437,363.600,103.900,29.160,8.577,baseline
1301.000,289.000,64.090,14.110,1702.000,321.800,65.540,12.750,387.100,63.430,12.720,3.442,367.400,104.400,29.620,8.688,baseline
1327.000,296.300,64.910,14.470,1726.000,323.900,66.310,12.860,392.500,64.080,12.870,3.472,372.000,105.900,30.070,8.792,baseline
1338.000,296.500,65.730,14.560,1723.000,323.400,66.500,12.930,393.100,63.140,12.950,3.491,373.100,106.100,30.080,8.887,baseline
1354.000,302.100,66.850,14.920,1749.000,328.400,67.430,13.120,390.400,64.090,12.970,3.515,379.000,107.700,30.790,9.004,baseline
1393.000,309.900,69.060,15.340,1772.000,332.300,68.740,13.310,392.000,64.890,13.130,3.525,385.300,109.300,31.280,9.201,baseline
1432.000,318.100,70.650,15.700,1781.000,332.000,67.940,13.020,402.400,65.280,13.220,3.559,389.900,109.700,30.980,9.056,baseline
1345.000,293.700,64.380,14.130,1691.000,316.300,64.850,12.510,396.800,64.000,12.790,3.460,365.900,103.800,29.180,8.558,baseline
1285.000,285.300,62.120,13.880,1697.000,316.600,65.140,12.600,384.800,62.320,12.690,3.438,365.000,104.100,29.440,8.627,baseline
1299.000,286.800,63.070,14.040,1703.000,319.100,65.210,12.700,389.200,62.900,12.820,3.460,370.400,105.400,29.810,8.772,baseline
1314.000,291.300,63.860,14.150,1706.000,320.700,65.700,12.700,390.000,63.530,12.870,3.459,371.200,106.200,29.920,8.846,baseline
1326.000,294.700,65.530,14.400,1735.000,324.300,66.600,12.970,392.100,64.290,12.940,3.483,376.000,106.900,30.190,8.920,baseline
1366.000,303.600,67.760,14.980,1758.000,331.000,67.800,13.190,394.600,63.840,13.020,3.512,381.400,108.200,30.780,9.084,baseline
1409.000,314.700,69.700,15.530,1786.000,335.300,69.100,13.350,398.100,64.560,13.100,3.553,389.100,110.400,31.520,9.290,baseline
1440.000,316.800,69.570,15.030,1723.000,323.300,66.000,12.690,397.800,64.910,13.130,3.536,377.400,106.200,29.950,8.706,baseline
1300.000,287.200,63.020,13.940,1689.000,317.300,65.060,12.630,386.700,63.020,12.750,3.446,365.400,103.800,29.390,8.580,baseline
1301.000,290.700,63.500,14.180,1712.000,321.100,65.670,12.760,385.700,63.450,12.760,3.435,368.000,104.500,29.490,8.671,baseline
1327.000,296.400,65.030,14.440,1728.000,323.300,66.610,12.840,383.000,63.590,12.880,3.452,372.000,105.700,29.890,8.808,baseline
1342.000,296.400,65.320,14.480,1738.000,322.800,66.350,12.840,394.800,64.330,12.900,3.476,373.100,106.100,29.890,8.845,baseline
1355.000,302.100,66.520,14.710,1741.000,325.400,66.870,12.990,393.500,63.440,12.830,3.475,376.500,107.100,30.360,8.980,baseline
1381.000,307.300,68.240,14.990,1761.000,329.700,68.050,13.150,391.600,63.860,13.060,3.509,382.400,108.500,31.090,9.116,baseline
1411.000,314.400,69.800,15.420,1778.000,333.300,67.990,13.010,393.700,64.750,13.140,3.545,388.000,109.700,31.140,9.056,baseline
1356.000,296.500,64.780,14.010,1695.000,318.100,64.780,12.520,389.300,64.160,12.940,3.446,366.200,104.100,29.300,8.563,baseline
1288.000,285.400,62.780,13.840,1704.000,318.300,65.230,12.610,391.800,63.130,12.680,3.429,364.800,104.000,29.350,8.607,baseline
1307.000,287.900,64.030,14.120,1715.000,321.500,65.950,12.780,393.200,63.220,12.760,3.447,370.000,105.200,29.680,8.740,baseline
1333.000,295.500,65.090,14.290,1725.000,322.600,66.090,12.740,391.600,63.330,12.820,3.462,372.800,105.400,29.900,8.810,baseline
1336.000,297.200,65.520,14.460,1730.000,324.900,66.320,12.900,383.600,63.510,12.800,3.462,373.300,106.100,30.250,8.917,baseline
1356.000,300.600,66.540,14.730,1740.000,326.800,67.010,12.940,391.100,64.090,12.980,3.508,379.500,108.000,30.630,9.043,baseline
1382.000,306.100,67.980,15.160,1761.000,330.700,67.840,13.160,393.200,64.940,13.090,3.535,386.000,110.000,31.160,9.172,baseline
1409.000,314.300,68.650,14.930,1732.000,321.900,65.480,12.590,402.600,64.740,13.130,3.534,379.500,106.900,29.860,8.770,baseline
1298.000,285.900,62.330,13.770,1684.000,315.800,64.530,12.450,391.400,63.430,12.760,3.431,364.700,103.800,29.360,8.628,baseline
1291.000,286.500,63.050,13.950,1695.000,318.300,64.950,12.640,390.400,62.130,12.700,3.433,368.400,104.800,29.780,8.745,baseline
1315.000,293.600,64.490,14.280,1713.000,320.200,65.740,12.660,392.000,63.780,12.850,3.466,374.200,106.400,30.060,8.840,baseline
1326.000,293.900,64.310,14.260,1715.000,320.700,65.780,12.750,391.900,63.550,12.880,3.493,374.500,106.600,30.100,8.888,baseline
1330.000,294.500,65.360,14.480,1722.000,323.900,66.230,12.860,397.000,64.230,12.880,3.483,378.000,107.600,30.520,9.035,baseline
1357.000,302.200,66.740,14.900,1744.000,327.400,67.320,12.980,398.800,64.360,12.960,3.511,384.300,109.400,30.930,9.190,baseline
1392.000,309.600,68.560,15.150,1749.000,325.800,66.350,12.750,398.900,64.620,13.120,3.543,387.400,109.600,30.710,9.006,baseline
1317.000,290.600,62.960,13.880,1680.000,313.900,64.280,12.440,388.100,63.410,12.800,3.464,366.700,103.900,29.370,8.651,baseline
1279.000,284.600,62.470,13.810,1683.000,315.400,64.580,12.520,387.700,62.610,12.730,3.458,367.200,104.400,29.660,8.698,baseline
1299.000,288.200,63.860,14.070,1697.000,320.200,65.480,12.590,384.600,63.440,12.730,3.439,372.500,105.800,30.010,8.823,baseline
1316.000,292.600,64.180,14.190,1706.000,319.300,65.540,12.620,392.100,63.450,12.830,3.462,373.300,105.700,30.040,8.818,baseline
1319.000,294.300,64.960,14.330,1717.000,321.300,65.730,12.780,390.500,63.440,12.850,3.460,376.400,106.700,30.300,8.947,baseline
1345.000,301.600,66.000,14.670,1732.000,325.300,66.760,12.930,397.600,63.810,12.870,3.503,382.000,108.400,30.820,9.120,baseline
1376.000,308.500,67.820,15.110,1755.000,328.800,67.650,12.980,396.500,64.260,13.020,3.541,386.400,109.800,31.310,9.170,baseline
1357.000,297.400,64.320,14.090,1688.000,313.700,64.280,12.440,391.200,63.710,12.900,3.453,367.200,104.500,29.470,8.604,baseline
1274.000,283.100,62.370,13.700,1681.000,314.300,64.480,12.470,383.500,62.870,12.630,3.417,362.700,103.700,29.320,8.598,baseline
1287.000,286.200,63.150,13.900,1691.000,318.200,64.830,12.570,388.500,63.220,12.720,3.422,366.300,104.500,29.570,8.733,baseline
1308.000,290.800,64.330,14.130,1701.000,319.200,65.260,12.580,388.300,62.900,12.760,3.435,370.700,105.300,29.800,8.755,baseline
1311.000,291.200,64.200,14.150,1706.000,320.600,65.480,12.670,389.700,62.950,12.750,3.442,371.500,105.700,29.920,8.854,baseline
1328.000,295.900,65.680,14.470,1719.000,324.000,66.170,12.820,384.800,63.240,12.920,3.471,375.300,107.200,30.550,8.979,baseline
1357.000,301.200,67.210,14.860,1738.000,326.000,67.080,12.970,389.700,64.050,12.960,3.502,382.300,109.300,31.020,9.159,baseline
1386.000,308.600,67.440,14.770,1712.000,319.000,65.150,12.480,389.800,64.520,13.090,3.499,378.300,107.000,29.760,8.768,baseline
1283.000,282.500,61.670,13.680,1673.000,313.500,64.120,12.400,386.500,63.030,12.630,3.388,363.300,103.000,29.030,8.539,baseline
1273.000,282.600,61.820,13.710,1687.000,315.300,64.690,12.460,386.100,62.890,12.580,3.404,363.600,103.300,29.130,8.635,baseline
1289.000,286.700,62.600,13.930,1698.000,317.500,64.660,12.520,386.000,62.410,12.680,3.435,368.400,104.900,29.660,8.748,baseline
1303.000,288.600,63.300,14.030,1701.000,318.100,65.080,12.600,384.900,63.400,12.780,3.455,367.600,105.000,29.780,8.740,baseline
1309.000,291.300,63.610,14.160,1701.000,321.500,65.640,12.720,384.800,63.230,12.840,3.464,371.500,105.900,30.100,8.860,baseline
1334.000,297.800,65.500,14.560,1728.000,324.400,66.300,12.890,390.000,63.630,12.840,3.471,377.900,107.600,30.660,8.997,baseline
1365.000,304.900,67.570,14.940,1739.000,328.100,66.700,12.860,389.700,63.780,12.920,3.501,383.300,109.500,30.810,9.056,baseline
1327.000,291.500,63.110,13.870,1675.000,313.200,63.580,12.350,391.900,63.230,12.740,3.420,364.100,103.600,29.180,8.515,baseline
1264.000,280.400,62.070,13.630,1677.000,314.300,64.300,12.350,382.000,61.800,12.570,3.402,360.800,103.300,29.210,8.561,baseline
1279.000,283.100,62.240,13.800,1689.000,315.900,64.920,12.540,385.200,62.670,12.670,3.388,365.000,104.300,29.470,8.641,baseline
1299.000,289.500,63.060,14.010,1697.000,317.500,65.000,12.540,381.300,62.740,12.750,3.424,368.300,104.600,29.690,8.705,baseline
1302.000,288.700,63.720,14.100,1702.000,318.300,65.400,12.650,383.600,63.600,12.750,3.437,369.400,105.400,29.820,8.797,baseline
1320.000,294.400,64.770,14.380,1716.000,320.900,65.960,12.790,386.500,63.420,12.810,3.444,374.700,106.800,30.240,8.959,baseline
1347.000,300.700,66.440,14.750,1738.000,324.900,66.960,13.000,390.900,64.260,12.890,3.480,379.800,108.400,30.840,9.142,baseline
1377.000,307.000,66.950,14.670,1715.000,318.500,65.090,12.430,394.000,63.650,12.930,3.494,375.400,106.100,29.790,8.707,baseline
1277.000,280.800,61.600,13.630,1676.000,313.000,63.660,12.410,381.600,62.220,12.560,3.403,362.100,103.200,29.050,8.553,baseline
1272.000,282.900,61.830,13.730,1677.000,315.700,64.470,12.460,381.700,62.510,12.590,3.393,364.000,103.900,29.360,8.638,baseline
1289.000,287.300,63.540,13.930,1692.000,318.600,64.780,12.550,382.600,62.760,12.700,3.423,368.100,104.800,29.780,8.698,baseline
1300.000,287.600,62.910,14.020,1706.000,317.300,64.800,12.570,392.100,62.820,12.660,3.431,368.400,105.000,29.780,8.772,baseline
1306.000,291.400,63.940,14.230,1706.000,320.500,65.690,12.690,388.300,62.790,12.670,3.421,372.500,105.600,29.950,8.899,baseline
1330.000,296.700,65.420,14.600,1722.000,324.300,66.260,12.840,384.600,63.050,12.880,3.469,376.900,107.400,30.560,9.048,baseline
1358.000,303.600,66.630,14.780,1733.000,323.500,65.820,12.650,387.400,63.760,12.950,3.499,382.700,108.000,30.550,8.925,baseline
1300.000,284.800,62.220,13.620,1666.000,312.000,64.180,12.260,387.100,62.510,12.680,3.415,361.000,102.800,29.070,8.508,baseline
1263.000,279.500,61.420,13.630,1676.000,312.600,64.050,12.370,382.800,61.940,12.610,3.371,361.900,103.200,29.220,8.592,baseline
1276.000,282.500,62.450,13.880,1682.000,316.200,64.670,12.530,384.100,62.200,12.670,3.384,365.600,104.300,29.510,8.730,baseline
1293.000,286.900,62.890,13.880,1685.000,315.300,64.660,12.520,385.300,62.620,12.660,3.419,366.300,104.200,29.600,8.707,baseline
1295.000,289.100,63.540,14.020,1696.000,317.300,65.170,12.660,382.000,62.320,12.650,3.413,368.300,105.400,29.960,8.843,baseline
1317.000,294.100,64.470,14.340,1711.000,321.300,65.790,12.770,380.700,62.850,12.760,3.430,374.400,106.800,30.410,8.980,baseline
1344.000,299.900,66.060,14.690,1727.000,324.100,66.950,12.950,389.700,63.210,12.820,3.481,379.600,108.500,30.730,9.061,baseline
1357.000,298.700,64.510,14.070,1677.000,313.300,64.100,12.340,389.100,63.520,12.720,3.449,367.700,103.900,29.220,8.550,baseline
1258.000,277.900,60.900,13.500,1662.000,311.500,63.720,12.310,378.600,61.580,12.430,3.360,358.900,102.300,29.060,8.537,baseline
1265.000,279.300,61.690,13.690,1670.000,313.500,63.960,12.470,378.900,61.480,12.470,3.371,361.500,103.200,29.240,8.597,baseline
1283.000,284.400,62.740,13.950,1680.000,315.100,64.380,12.460,374.500,61.660,12.520,3.375,365.100,104.000,29.380,8.652,baseline
1289.000,285.300,63.310,13.940,1693.000,315.800,64.840,12.500,377.800,61.970,12.530,3.377,365.600,104.600,29.560,8.736,baseline
1300.000,290.300,63.850,14.160,1710.000,318.600,65.420,12.680,378.800,62.380,12.540,3.400,370.900,105.600,29.960,8.870,baseline
1330.000,296.100,65.210,14.520,1724.000,322.300,66.170,12.830,382.000,63.290,12.690,3.432,376.900,107.200,30.360,9.026,baseline
1358.000,302.500,67.020,14.870,1734.000,323.400,65.430,12.600,390.800,63.400,12.760,3.454,379.400,107.700,30.250,8.878,baseline
1293.000,283.800,61.700,13.610,1665.000,309.700,63.600,12.280,386.000,61.860,12.480,3.358,359.500,102.000,28.970,8.493,baseline
1257.000,277.500,61.020,13.510,1671.000,313.800,63.950,12.390,376.400,61.440,12.420,3.354,359.100,102.300,28.940,8.534,baseline
1270.000,282.800,62.270,13.740,1680.000,315.200,64.490,12.450,371.700,61.640,12.370,3.381,363.200,103.400,29.340,8.646,baseline
1288.000,286.300,62.920,13.890,1693.000,315.100,64.540,12.470,378.700,61.930,12.540,3.373,365.500,103.700,29.420,8.648,baseline
1291.000,286.800,63.330,14.080,1691.000,316.500,64.800,12.600,381.800,61.960,12.530,3.401,366.600,104.700,29.690,8.783,baseline
1312.000,291.000,64.570,14.250,1709.000,319.600,65.840,12.720,380.000,62.250,12.540,3.419,372.900,105.800,30.060,8.947,baseline
1340.000,299.600,66.010,14.690,1724.000,323.800,66.400,12.840,384.200,62.660,12.710,3.446,378.100,107.500,30.750,9.074,baseline
1363.000,299.700,66.060,14.380,1694.000,314.400,64.280,12.310,386.700,63.130,12.770,3.438,369.800,104.900,29.460,8.587,baseline
1260.000,279.100,60.830,13.430,1659.000,310.200,63.520,12.260,373.900,61.510,12.470,3.343,358.100,102.100,28.880,8.513,baseline
1257.000,278.800,60.790,13.590,1665.000,311.300,63.890,12.310,377.200,61.790,12.460,3.324,360.600,103.000,29.120,8.565,baseline
1269.000,282.000,62.060,13.730,1673.000,313.600,64.170,12.300,373.600,61.770,12.480,3.356,365.100,103.700,29.570,8.640,baseline
1270.000,281.200,62.130,13.630,1671.000,311.500,63.750,12.300,377.900,61.780,12.440,3.385,364.500,104.100,29.420,8.692,baseline
1271.000,283.500,62.420,13.710,1676.000,313.600,64.160,12.370,376.600,61.510,12.550,3.376,368.500,105.100,29.860,8.834,baseline
1287.000,286.800,63.660,13.990,1686.000,316.700,64.770,12.480,378.200,62.040,12.660,3.417,375.300,106.300,30.320,8.971,baseline
1308.000,292.000,64.570,14.270,1700.000,318.900,64.570,12.490,377.400,62.830,12.620,3.441,379.100,108.000,30.500,8.933,baseline
1279.000,280.500,61.430,13.480,1653.000,308.900,62.780,12.140,382.500,62.930,12.520,3.358,361.000,102.500,29.040,8.503,baseline
1243.000,274.900,60.560,13.380,1657.000,309.800,63.300,12.280,379.900,61.260,12.390,3.342,359.600,102.700,29.140,8.591,baseline
1267.000,281.800,62.470,13.690,1671.000,313.700,64.320,12.400,377.200,61.770,12.390,3.357,364.700,103.800,29.440,8.709,baseline
1283.000,284.500,62.790,13.830,1675.000,313.800,64.290,12.390,376.400,62.220,12.540,3.378,366.000,103.900,29.560,8.677,baseline
1282.000,285.000,62.510,13.910,1683.000,314.700,64.430,12.520,381.500,62.050,12.560,3.370,368.100,104.600,29.610,8.758,baseline
1297.000,287.700,63.480,14.130,1693.000,317.800,65.180,12.610,383.100,62.550,12.590,3.392,373.700,106.600,30.120,8.954,baseline
1319.000,296.600,65.360,14.610,1715.000,322.100,66.380,12.810,383.200,62.670,12.740,3.436,380.600,108.400,30.870,9.115,baseline
1355.000,299.600,65.470,14.380,1686.000,312.500,63.650,12.310,391.300,63.320,12.630,3.424,370.400,104.400,29.450,8.662,baseline
1255.000,277.800,61.040,13.550,1661.000,309.600,63.620,12.330,382.300,61.090,12.440,3.342,359.100,102.600,29.070,8.556,baseline
1261.000,279.800,61.990,13.650,1668.000,313.000,63.800,12.420,381.300,61.340,12.430,3.358,363.000,103.300,29.430,8.708,baseline
1284.000,286.400,63.060,13.970,1685.000,314.400,64.220,12.500,375.800,62.180,12.520,3.370,365.800,104.500,29.700,8.686,baseline
1291.000,287.900,63.230,13.950,1687.000,315.300,64.630,12.550,382.300,62.300,12.520,3.370,366.600,104.800,29.680,8.765,baseline
1303.000,290.500,63.950,14.220,1699.000,319.400,65.260,12.660,383.500,62.020,12.620,3.394,373.100,105.900,30.150,8.920,baseline
1331.000,295.500,65.920,14.650,1715.000,322.300,66.010,12.830,385.400,62.740,12.670,3.438,380.000,107.500,30.630,9.051,baseline
1361.000,303.900,67.600,15.030,1728.000,320.600,65.430,12.480,387.600,62.980,12.700,3.438,381.200,107.900,30.320,8.892,baseline
1292.000,284.600,62.240,13.720,1663.000,310.600,63.370,12.300,377.200,61.910,12.470,3.342,361.300,102.900,29.100,8.521,baseline
1259.000,280.000,61.580,13.630,1673.000,312.500,63.910,12.310,372.100,61.660,12.390,3.332,361.500,102.700,29.120,8.594,baseline
1275.000,284.500,62.260,13.950,1679.000,315.400,64.530,12.460,379.600,61.820,12.450,3.351,366.200,104.300,29.560,8.684,baseline
1295.000,286.200,63.330,14.040,1684.000,316.400,64.670,12.470,380.000,61.750,12.470,3.362,367.300,104.600,29.540,8.739,baseline
1298.000,289.500,63.510,14.130,1695.000,317.700,64.800,12.600,383.000,62.300,12.550,3.385,371.000,105.100,29.920,8.824,baseline
1322.000,295.900,65.200,14.500,1719.000,320.600,65.710,12.790,382.300,61.840,12.610,3.409,376.800,106.700,30.480,9.028,baseline
1348.000,302.500,67.200,14.860,1731.000,324.400,66.460,12.870,384.600,62.650,12.670,3.456,382.900,108.400,30.900,9.162,baseline
1349.000,296.800,64.420,14.060,1682.000,311.900,63.580,12.310,384.400,63.340,12.640,3.397,365.600,103.900,29.260,8.539,baseline
1259.000,281.000,61.130,13.640,1670.000,311.900,63.720,12.330,380.100,61.760,12.350,3.332,360.200,102.600,29.160,8.554,baseline
1271.000,282.400,62.120,13.870,1685.000,314.600,64.160,12.430,378.300,61.580,12.380,3.343,363.300,103.800,29.550,8.717,baseline
1294.000,289.100,63.840,14.130,1692.000,315.600,64.450,12.500,381.300,61.880,12.480,3.372,367.100,104.800,29.700,8.781,baseline
1299.000,288.500,63.840,14.110,1695.000,317.100,64.530,12.550,382.900,61.600,12.540,3.375,369.600,104.900,29.890,8.819,baseline
1314.000,292.900,64.750,14.380,1712.000,320.500,65.820,12.680,382.700,62.130,12.580,3.403,373.000,106.200,30.410,8.991,baseline
1343.000,301.200,66.190,14.790,1727.000,323.000,66.570,12.890,380.500,62.910,12.640,3.417,380.200,108.100,30.860,9.113,baseline
1374.000,305.700,66.960,14.800,1716.000,318.000,64.720,12.400,388.500,63.530,12.770,3.433,379.300,106.300,30.030,8.791,baseline
1281.000,283.000,62.340,13.740,1661.000,309.800,63.450,12.240,381.200,61.480,12.410,3.346,361.500,103.200,28.960,8.580,baseline
1270.000,282.100,61.980,13.730,1675.000,314.000,64.140,12.410,376.100,61.570,12.340,3.347,362.300,103.400,29.480,8.660,baseline
1293.000,288.500,63.370,14.070,1693.000,316.100,64.780,12.510,373.800,61.750,12.540,3.361,369.000,104.900,29.800,8.761,baseline
1304.000,291.100,63.580,14.050,1693.000,316.100,64.820,12.470,380.400,61.660,12.520,3.364,367.800,105.100,29.700,8.734,baseline
1309.000,291.800,64.490,14.290,1709.000,318.800,65.570,12.640,380.700,62.570,12.520,3.364,371.900,105.900,30.220,8.891,baseline
1333.000,298.300,65.520,14.610,1724.000,321.600,65.720,12.720,382.900,62.240,12.640,3.407,377.800,107.500,30.710,9.069,baseline
1362.000,303.700,66.700,14.830,1730.000,322.600,65.800,12.610,387.900,63.040,12.700,3.420,382.500,107.600,30.340,8.904,baseline
1299.000,286.000,62.460,13.750,1668.000,311.100,63.620,12.250,380.400,61.510,12.440,3.346,360.300,102.600,29.150,8.536,baseline
1265.000,281.700,61.800,13.710,1673.000,313.800,63.850,12.330,375.600,61.170,12.390,3.316,362.000,102.800,29.230,8.643,baseline
1283.000,283.900,62.630,13.970,1684.000,315.300,64.440,12.460,372.400,61.340,12.470,3.345,365.600,104.500,29.600,8.712,baseline
1301.000,289.600,63.450,14.140,1695.000,315.800,64.310,12.450,378.100,62.090,12.410,3.354,365.900,104.400,29.620,8.713,baseline
1302.000,289.200,64.160,14.190,1696.000,316.800,65.230,12.580,378.100,62.120,12.450,3.360,370.400,105.000,29.730,8.855,baseline
1324.000,295.600,65.200,14.480,1712.000,319.900,65.760,12.690,385.000,61.950,12.580,3.366,375.100,106.800,30.390,9.024,baseline
1351.000,302.200,66.770,14.880,1738.000,324.400,66.700,12.750,383.800,62.050,12.650,3.434,380.900,108.000,30.930,9.081,baseline
1335.000,292.000,63.810,13.990,1668.000,309.900,63.320,12.280,381.800,62.210,12.540,3.356,362.600,102.800,29.060,8.519,baseline
1259.000,280.200,61.580,13.590,1663.000,310.500,63.460,12.260,374.900,60.780,12.330,3.303,359.000,102.100,28.970,8.542,baseline
1273.000,283.900,62.300,13.840,1679.000,313.500,64.030,12.390,377.400,61.380,12.330,3.300,362.300,103.100,29.260,8.629,baseline
1294.000,287.500,63.490,14.010,1688.000,314.800,64.040,12.420,377.400,61.300,12.340,3.323,365.200,103.900,29.430,8.698,baseline
1297.000,288.000,63.490,14.050,1690.000,315.400,64.600,12.510,378.500,61.510,12.370,3.334,366.200,104.200,29.580,8.759,baseline
1313.000,292.200,64.880,14.320,1713.000,319.100,65.330,12.620,375.100,61.870,12.440,3.356,371.700,105.500,30.090,8.889,baseline
1343.000,299.700,66.250,14.740,1728.000,323.400,66.400,12.830,377.100,62.290,12.600,3.367,376.600,107.600,30.690,9.055,baseline
1374.000,306.300,66.720,14.610,1692.000,316.900,64.140,12.320,375.800,62.480,12.660,3.388,371.700,104.600,29.550,8.617,baseline
1271.000,279.200,61.570,13.640,1659.000,310.300,63.560,12.230,376.400,61.000,12.290,3.289,358.100,102.200,28.930,8.531,baseline
1269.000,281.100,61.740,13.690,1672.000,312.900,63.760,12.340,373.500,60.470,12.270,3.315,360.200,102.300,28.960,8.570,baseline
1286.000,286.900,62.880,14.000,1682.000,315.000,64.300,12.380,373.200,60.810,12.340,3.314,363.300,103.500,29.420,8.633,baseline
1296.000,288.600,63.330,14.010,1690.000,315.700,64.230,12.420,372.700,60.870,12.460,3.328,363.900,103.300,29.430,8.693,baseline
1302.000,292.000,63.940,14.130,1694.000,317.400,65.100,12.580,373.000,61.120,12.420,3.343,365.900,104.700,29.690,8.776,baseline
1328.000,297.100,65.280,14.440,1723.000,321.500,65.900,12.770,373.900,62.230,12.410,3.382,374.200,106.200,30.170,8.925,baseline
1359.000,302.800,67.170,14.910,1731.000,322.900,65.850,12.610,383.500,62.060,12.620,3.391,377.400,107.100,30.260,8.871,baseline
1305.000,287.500,62.980,13.680,1658.000,310.400,63.190,12.220,378.100,61.660,12.290,3.312,358.400,101.900,28.750,8.453,baseline
1259.000,278.800,61.490,13.660,1663.000,312.100,63.570,12.250,372.000,60.740,12.210,3.294,356.700,101.800,28.860,8.489,baseline
1273.000,282.000,62.560,13.870,1672.000,314.000,63.940,12.420,371.100,60.480,12.290,3.299,361.500,102.500,29.120,8.598,baseline
1293.000,287.800,62.610,13.960,1685.000,313.900,64.300,12.370,373.600,61.130,12.350,3.323,362.100,103.200,29.170,8.621,baseline
1292.000,287.200,63.020,14.050,1689.000,315.000,64.670,12.500,371.700,61.250,12.360,3.317,364.500,104.200,29.430,8.718,baseline
1313.000,292.500,64.100,14.320,1700.000,317.900,65.200,12.600,380.000,61.410,12.420,3.332,368.400,105.400,29.870,8.838,baseline
1338.000,298.800,65.670,14.640,1725.000,322.300,65.970,12.770,381.600,61.430,12.610,3.383,374.700,106.700,30.320,9.019,baseline
1364.000,303.800,66.130,14.560,1692.000,313.400,64.310,12.320,377.400,61.850,12.500,3.381,368.000,104.000,29.280,8.571,baseline
1267.000,280.100,61.440,13.590,1659.000,310.300,63.410,12.220,372.200,60.540,12.260,3.290,357.300,101.400,28.830,8.427,baseline
1266.000,281.000,62.140,13.710,1667.000,311.900,63.600,12.400,370.200,60.310,12.270,3.283,357.800,102.000,29.020,8.542,baseline
1287.000,285.200,63.110,14.030,1683.000,314.800,64.170,12.440,370.000,61.200,12.270,3.312,362.200,103.200,29.100,8.651,baseline
1295.000,287.900,63.470,13.960,1683.000,314.600,64.210,12.450,374.200,61.070,12.260,3.316,363.000,103.500,29.290,8.650,baseline
1305.000,290.600,64.280,14.260,1691.000,317.500,65.110,12.520,374.900,60.850,12.320,3.339,365.900,104.300,29.780,8.773,baseline
1331.000,297.400,65.300,14.530,1719.000,321.000,65.750,12.740,377.900,61.750,12.450,3.359,371.700,106.100,30.160,8.933,baseline
1359.000,304.000,66.900,14.920,1725.000,321.500,65.430,12.510,376.400,62.110,12.540,3.396,376.800,106.600,30.130,8.811,baseline
1298.000,284.200,62.150,13.760,1661.000,309.700,63.250,12.190,370.900,61.480,12.320,3.302,357.100,101.800,28.840,8.463,baseline
1267.000,281.900,61.920,13.740,1669.000,312.900,63.830,12.300,374.500,60.330,12.250,3.283,358.000,102.300,28.980,8.553,baseline
1285.000,286.400,63.190,13.990,1684.000,315.700,64.280,12.450,374.700,61.370,12.270,3.299,362.500,103.600,29.330,8.663,baseline
1308.000,291.300,63.480,14.120,1691.000,315.600,64.780,12.500,375.200,60.870,12.330,3.339,364.200,103.500,29.400,8.687,baseline
1311.000,292.500,64.530,14.350,1701.000,318.900,65.340,12.700,377.900,60.900,12.340,3.339,365.000,104.200,29.660,8.785,baseline
1344.000,300.400,66.110,14.870,1728.000,324.500,66.600,12.890,376.200,62.230,12.440,3.361,372.200,106.000,30.160,8.924,baseline
1379.000,309.900,68.120,15.240,1753.000,328.700,67.390,13.020,376.900,62.090,12.580,3.387,378.200,107.500,30.630,9.019,baseline
1381.000,304.300,65.870,14.410,1690.000,314.200,64.150,12.400,381.400,61.950,12.450,3.355,363.800,102.900,29.090,8.514,baseline
1279.000,283.400,62.330,13.900,1676.000,314.800,64.320,12.380,373.700,60.910,12.270,3.310,357.200,102.000,28.920,8.516,baseline
1291.000,287.100,63.370,14.100,1690.000,316.000,64.610,12.450,370.400,60.800,12.250,3.309,358.600,102.600,29.180,8.635,baseline
1308.000,290.900,63.890,14.260,1689.000,316.300,64.700,12.440,374.600,60.990,12.340,3.313,361.400,103.100,29.300,8.588,baseline
1304.000,289.700,63.010,14.130,1698.000,315.900,64.750,12.520,371.900,61.170,12.260,3.317,361.800,103.300,29.410,8.652,baseline
1315.000,293.400,64.230,14.370,1706.000,318.100,65.190,12.590,370.500,61.150,12.350,3.324,366.700,104.300,29.730,8.795,baseline
1338.000,298.000,65.840,14.630,1715.000,321.500,65.800,12.710,380.500,61.580,12.480,3.334,371.800,106.000,30.080,8.944,baseline
1362.000,304.700,66.460,14.730,1700.000,313.700,64.100,12.270,381.500,62.410,12.500,3.375,368.800,104.700,29.370,8.598,baseline
1275.000,282.400,61.730,13.580,1664.000,310.000,63.520,12.260,370.000,60.470,12.210,3.294,354.500,100.800,28.730,8.454,baseline
1269.000,281.300,61.810,13.690,1674.000,312.000,63.860,12.330,367.400,59.940,12.190,3.283,356.500,101.800,28.970,8.518,baseline
1285.000,286.100,62.840,13.970,1682.000,315.300,64.400,12.300,370.800,60.400,12.250,3.287,360.200,102.800,29.130,8.581,baseline
1298.000,289.200,63.350,14.010,1690.000,315.000,64.240,12.400,374.100,61.050,12.220,3.293,360.300,102.700,29.180,8.560,baseline
1306.000,291.400,64.270,14.300,1703.000,318.400,65.000,12.560,374.100,60.950,12.250,3.292,366.100,103.900,29.570,8.738,baseline
1333.000,297.700,65.750,14.630,1719.000,321.200,65.670,12.750,376.700,60.930,12.370,3.335,369.600,105.100,30.000,8.892,baseline
1359.000,303.600,67.030,15.000,1732.000,323.700,66.420,12.840,378.200,61.280,12.490,3.373,376.400,107.100,30.430,8.999,baseline
1354.000,297.700,64.250,14.100,1669.000,310.600,63.280,12.180,375.900,61.130,12.390,3.302,361.800,101.900,28.810,8.469,baseline
1263.000,281.600,61.150,13.650,1661.000,310.200,63.560,12.230,366.400,60.390,12.100,3.260,355.700,101.500,28.810,8.424,baseline
1274.000,284.400,62.080,13.840,1675.000,313.000,63.950,12.360,368.100,60.650,12.170,3.268,359.500,102.300,29.020,8.561,baseline
1300.000,290.800,63.320,14.230,1695.000,316.000,64.730,12.450,370.900,61.010,12.200,3.299,363.800,103.300,29.290,8.627,baseline
1311.000,293.100,64.050,14.330,1699.000,317.700,65.140,12.580,373.300,60.810,12.300,3.314,364.000,103.400,29.440,8.725,baseline
1332.000,297.300,65.810,14.640,1726.000,321.400,65.690,12.800,371.600,60.350,12.310,3.326,368.500,105.700,30.000,8.853,baseline
1363.000,305.900,67.380,14.950,1730.000,324.000,66.630,12.910,376.200,61.150,12.420,3.368,375.800,106.800,30.490,9.057,baseline
1395.000,312.100,69.240,15.350,1765.000,326.200,66.390,12.680,376.200,62.120,12.570,3.408,381.000,108.000,30.480,8.994,baseline
1331.000,291.500,63.930,13.970,1672.000,311.400,63.400,12.220,378.400,61.430,12.350,3.294,359.600,102.400,28.900,8.533,baseline
1275.000,286.100,62.120,13.850,1671.000,313.500,63.780,12.310,374.700,60.330,12.070,3.285,359.800,102.400,29.020,8.617,baseline
1289.000,286.300,63.080,14.130,1688.000,314.300,64.600,12.440,370.000,60.550,12.240,3.321,364.400,104.000,29.520,8.734,baseline
1321.000,294.600,64.770,14.400,1698.000,317.500,65.190,12.550,371.400,60.770,12.360,3.322,365.300,104.500,29.730,8.809,baseline
1331.000,296.400,65.400,14.630,1719.000,320.900,65.480,12.690,372.700,61.420,12.260,3.337,368.800,104.800,30.010,8.847,baseline
1358.000,304.600,67.180,15.030,1734.000,323.900,66.680,12.920,373.600,62.110,12.470,3.352,375.100,106.800,30.450,9.022,baseline
1394.000,312.200,69.170,15.440,1763.000,328.700,67.650,13.160,382.700,62.180,12.510,3.362,382.200,108.300,30.970,9.202,baseline
1432.000,319.600,70.450,15.490,1743.000,321.600,65.280,12.550,384.300,62.710,12.580,3.399,379.000,107.000,30.190,8.819,baseline
1315.000,291.900,63.430,14.140,1677.000,312.500,64.210,12.380,373.200,61.220,12.270,3.310,361.700,102.900,29.270,8.625,baseline
1298.000,289.300,63.770,14.190,1697.000,315.000,64.380,12.450,369.500,60.010,12.290,3.296,364.400,103.500,29.490,8.715,baseline
1325.000,296.000,65.450,14.650,1714.000,319.000,65.280,12.610,374.400,61.040,12.400,3.333,369.300,105.500,29.950,8.857,baseline
1345.000,299.700,66.050,14.650,1707.000,318.600,65.290,12.640,373.600,61.840,12.400,3.338,371.700,105.700,30.040,8.905,baseline
1351.000,302.700,66.450,14.840,1729.000,322.400,65.860,12.750,376.800,61.610,12.380,3.346,375.200,106.600,30.320,9.029,baseline
1379.000,308.700,68.370,15.340,1744.000,326.300,66.970,12.970,378.900,62.350,12.540,3.393,380.100,108.600,30.920,9.195,baseline
1418.000,317.000,70.640,15.790,1776.000,331.600,68.240,13.120,385.100,62.540,12.660,3.414,388.000,110.600,31.590,9.380,baseline
1435.000,318.900,68.750,15.010,1703.000,317.900,64.780,12.400,384.300,62.300,12.710,3.393,373.500,106.300,30.010,8.764,baseline
1307.000,291.200,63.700,14.250,1687.000,314.000,64.420,12.390,375.300,60.920,12.260,3.308,365.000,104.100,29.480,8.745,baseline
1316.000,292.900,64.230,14.460,1707.000,318.100,65.260,12.600,369.400,61.320,12.330,3.320,369.000,105.400,29.960,8.874,baseline
1346.000,301.000,66.480,14.850,1727.000,320.800,65.670,12.690,379.000,61.040,12.380,3.337,373.200,106.300,30.260,8.938,baseline
1357.000,303.500,66.730,14.830,1726.000,320.100,65.560,12.730,379.700,61.840,12.470,3.368,374.200,106.200,30.160,9.016,baseline
1369.000,306.800,67.940,15.140,1738.000,324.900,66.530,12.850,379.800,61.230,12.450,3.372,378.700,108.000,30.810,9.160,baseline
1404.000,315.700,69.960,15.640,1763.000,330.600,67.980,13.150,379.300,62.110,12.610,3.415,384.500,110.000,31.430,9.302,baseline
1453.000,327.000,72.470,16.300,1801.000,334.500,68.730,13.120,381.200,62.660,12.710,3.434,391.900,111.200,31.720,9.316,baseline
1410.000,310.000,67.270,14.880,1707.000,317.700,64.990,12.520,384.100,62.660,12.470,3.358,370.100,105.300,29.740,8.728,baseline
1319.000,295.100,65.070,14.430,1708.000,317.400,65.110,12.580,374.500,60.670,12.270,3.311,367.500,105.100,29.720,8.824,baseline
1341.000,300.500,66.380,14.810,1727.000,321.900,65.950,12.750,377.000,61.070,12.360,3.336,371.600,105.800,30.060,8.928,baseline
1373.000,305.200,67.430,15.060,1728.000,323.500,66.230,12.690,373.100,61.690,12.440,3.363,373.100,106.600,30.210,8.966,baseline
1369.000,304.800,67.620,15.050,1730.000,323.300,66.280,12.810,376.900,61.780,12.370,3.347,375.200,106.700,30.520,9.004,baseline
1388.000,310.900,68.570,15.330,1749.000,326.700,67.190,12.930,373.500,61.690,12.570,3.349,379.100,108.800,30.930,9.131,baseline
1415.000,318.300,69.950,15.720,1773.000,330.000,68.010,13.120,379.600,62.620,12.520,3.387,385.700,110.100,31.340,9.341,baseline
1448.000,323.500,71.680,15.780,1762.000,323.800,66.270,12.670,384.600,62.810,12.610,3.420,384.800,108.700,30.660,9.032,baseline
1339.000,296.900,65.090,14.420,1698.000,315.500,64.500,12.450,374.100,60.850,12.300,3.311,366.600,104.400,29.730,8.782,baseline
1322.000,294.100,65.540,14.540,1716.000,318.600,65.460,12.600,369.200,60.870,12.280,3.324,367.500,105.100,29.920,8.892,baseline
1350.000,302.000,66.570,14.860,1736.000,322.900,65.740,12.680,377.300,62.030,12.380,3.336,373.000,106.700,30.290,8.968,baseline
1364.000,302.700,66.780,14.920,1733.000,322.600,65.650,12.690,376.400,61.800,12.410,3.348,373.700,106.600,30.230,8.932,baseline
1366.000,306.400,67.980,15.060,1735.000,323.300,66.700,12.820,379.400,61.720,12.400,3.344,376.200,107.600,30.530,9.062,baseline
1392.000,310.400,68.990,15.470,1754.000,327.700,67.500,13.000,378.600,62.330,12.490,3.386,380.700,108.800,30.910,9.255,baseline
1424.000,318.900,70.620,15.850,1777.000,330.800,67.760,12.910,383.300,61.830,12.530,3.422,387.500,109.900,31.500,9.269,baseline
1381.000,303.000,66.040,14.630,1700.000,316.300,64.420,12.420,379.400,61.400,12.440,3.325,367.500,104.600,29.710,8.738,baseline
1309.000,290.700,63.840,14.340,1698.000,317.300,64.970,12.540,370.000,60.460,12.270,3.308,365.400,104.700,29.650,8.742,baseline
1326.000,297.500,65.090,14.590,1719.000,319.700,65.600,12.630,372.600,60.980,12.350,3.315,369.800,105.400,29.990,8.877,baseline
1351.000,300.800,66.650,14.750,1725.000,320.200,65.740,12.680,377.800,61.800,12.420,3.322,372.200,106.100,29.960,8.916,baseline
1350.000,300.700,66.610,14.810,1726.000,322.400,65.940,12.740,375.500,60.980,12.410,3.340,372.300,106.200,30.230,8.972,baseline
1371.000,305.100,67.720,15.120,1747.000,325.700,66.950,12.880,376.900,61.480,12.440,3.372,378.000,107.700,30.660,9.141,baseline
1402.000,313.900,69.190,15.580,1765.000,329.800,67.540,13.110,378.100,62.270,12.580,3.395,383.700,109.100,31.180,9.241,baseline
1431.000,318.800,69.350,15.370,1725.000,321.800,65.240,12.590,385.400,62.790,12.680,3.402,377.700,107.000,30.090,8.836,baseline
1312.000,288.900,64.020,14.170,1693.000,314.200,64.340,12.400,374.600,60.850,12.240,3.286,362.900,103.300,29.220,8.665,baseline
1306.000,288.800,64.380,14.260,1701.000,317.000,64.520,12.490,373.800,60.830,12.220,3.298,364.400,103.600,29.460,8.721,baseline
1322.000,295.900,64.860,14.530,1715.000,320.000,65.260,12.540,371.300,61.300,12.270,3.326,368.900,105.200,29.790,8.839,baseline
1334.000,296.200,65.390,14.570,1717.000,320.200,65.310,12.620,371.800,60.950,12.360,3.316,369.100,105.100,29.880,8.816,baseline
1341.000,301.800,66.020,14.700,1724.000,322.500,65.930,12.700,374.200,61.400,12.350,3.309,372.900,106.300,30.190,8.938,baseline
1369.000,306.900,67.760,15.130,1750.000,326.100,66.670,12.870,372.600,61.570,12.430,3.347,378.000,107.700,30.790,9.120,baseline
1401.000,314.100,69.790,15.570,1768.000,329.100,67.410,12.850,376.800,62.080,12.520,3.378,383.300,109.200,30.970,9.151,baseline
1365.000,300.200,64.790,14.410,1686.000,313.900,64.000,12.310,381.100,61.290,12.360,3.310,365.700,103.300,29.200,8.596,baseline
1289.000,286.800,62.760,14.050,1693.000,314.200,64.470,12.410,372.300,60.420,12.180,3.271,361.700,102.900,29.210,8.601,baseline
1300.000,290.100,63.590,14.220,1703.000,317.000,64.800,12.500,367.100,60.210,12.210,3.282,361.900,103.700,29.450,8.679,baseline
1321.000,295.200,64.560,14.290,1709.000,317.500,65.090,12.510,372.900,61.130,12.270,3.298,365.200,104.100,29.610,8.691,baseline
1321.000,295.900,64.760,14.410,1706.000,319.800,65.070,12.540,375.100,61.500,12.310,3.308,367.300,104.900,29.620,8.762,baseline
1340.000,300.000,66.160,14.640,1731.000,323.000,66.100,12.720,372.300,61.020,12.270,3.324,372.500,106.300,30.010,8.902,baseline
1368.000,306.600,67.690,15.110,1745.000,325.700,67.090,12.950,372.500,61.720,12.430,3.379,378.500,107.300,30.600,9.066,baseline
1400.000,311.700,69.010,15.240,1742.000,320.900,65.390,12.520,377.800,61.730,12.540,3.388,378.200,106.600,30.000,8.822,baseline
1306.000,289.000,63.090,13.940,1669.000,312.900,63.740,12.240,371.100,60.380,12.150,3.286,358.900,102.200,29.020,8.553,baseline
1286.000,285.900,62.890,13.930,1682.000,315.200,64.190,12.350,365.600,59.810,12.190,3.272,359.100,102.900,29.050,8.530,baseline
1299.000,290.300,63.720,14.110,1705.000,317.000,64.650,12.450,368.600,60.350,12.220,3.272,362.800,103.200,29.330,8.631,baseline
1315.000,294.200,63.760,14.210,1698.000,316.400,65.110,12.500,369.400,60.420,12.160,3.293,364.700,103.300,29.250,8.644,baseline
1317.000,294.100,64.610,14.370,1711.000,320.100,65.510,12.610,367.700,60.430,12.210,3.318,366.800,104.200,29.550,8.776,baseline
1343.000,300.600,65.570,14.690,1733.000,322.500,66.430,12.760,372.600,61.210,12.390,3.333,373.100,105.900,30.130,8.899,baseline
1374.000,307.200,67.380,15.080,1751.000,326.400,66.970,13.000,373.500,61.290,12.490,3.366,377.700,107.400,30.560,9.022,baseline
1397.000,307.700,67.160,14.670,1701.000,315.600,64.460,12.360,375.500,61.890,12.480,3.345,369.500,104.100,29.240,8.553,baseline
1285.000,286.000,62.440,13.750,1679.000,313.100,63.770,12.310,367.800,60.470,12.130,3.257,358.700,101.700,28.810,8.476,baseline
1287.000,288.300,63.210,13.940,1686.000,314.700,64.310,12.400,369.100,60.380,12.150,3.277,360.000,102.600,28.960,8.580,baseline
1306.000,291.700,64.400,14.190,1703.000,317.400,64.860,12.520,367.500,60.220,12.180,3.296,363.500,103.300,29.230,8.598,baseline
1314.000,292.300,63.900,14.200,1697.000,317.300,64.870,12.510,370.600,60.370,12.250,3.302,364.200,103.400,29.370,8.643,baseline
1325.000,294.600,64.820,14.430,1717.000,320.300,65.520,12.680,370.400,60.580,12.300,3.318,367.000,104.500,29.670,8.804,baseline
1351.000,303.200,65.940,14.780,1735.000,323.100,66.530,12.870,370.700,61.050,12.370,3.324,373.200,106.100,30.030,8.950,baseline
1382.000,309.500,67.830,15.140,1749.000,326.900,67.180,12.830,378.700,61.620,12.490,3.370,378.700,107.500,30.570,9.057,baseline
1355.000,298.000,64.200,14.060,1678.000,313.700,64.110,12.370,378.300,60.420,12.330,3.319,361.800,102.500,28.940,8.514,baseline
1282.000,285.100,62.630,13.910,1688.000,314.900,64.520,12.390,369.100,60.230,12.120,3.262,360.100,102.100,29.030,8.519,baseline
1297.000,289.800,63.220,14.000,1694.000,316.700,65.150,12.550,365.800,60.000,12.250,3.294,362.600,103.100,29.290,8.665,baseline
1322.000,294.200,64.330,14.290,1704.000,318.600,65.000,12.540,365.700,60.580,12.200,3.300,365.700,103.600,29.380,8.657,baseline
1320.000,293.100,64.130,14.260,1708.000,319.100,65.130,12.620,370.300,60.470,12.200,3.303,365.000,104.100,29.560,8.698,baseline
1338.000,299.900,65.800,14.660,1722.000,321.100,66.070,12.760,373.400,61.250,12.270,3.328,370.300,105.100,29.980,8.801,baseline
1366.000,305.800,67.720,14.920,1740.000,326.000,66.520,12.880,372.300,61.310,12.420,3.368,375.900,107.100,30.410,9.019,baseline
1394.000,312.200,68.210,14.810,1713.000,317.500,64.930,12.450,378.100,61.710,12.470,3.379,372.500,104.800,29.450,8.645,baseline
1289.000,285.900,62.620,13.810,1670.000,312.700,63.910,12.370,366.600,60.450,12.210,3.281,357.000,101.200,28.760,8.483,baseline
1285.000,286.000,62.580,13.930,1685.000,313.400,64.300,12.430,366.700,60.590,12.140,3.265,358.400,102.200,29.010,8.522,baseline
1303.000,291.300,63.600,14.200,1700.000,316.500,65.110,12.490,366.500,60.240,12.250,3.284,362.500,103.500,29.250,8.601,baseline
1315.000,292.200,64.070,14.200,1704.000,316.700,64.880,12.540,369.000,61.090,12.310,3.297,362.200,103.200,29.220,8.660,baseline
1320.000,296.300,65.220,14.370,1706.000,320.200,65.780,12.710,370.500,60.530,12.230,3.301,366.400,104.000,29.590,8.752,baseline
1347.000,301.100,66.040,14.740,1730.000,323.600,66.180,12.840,370.800,60.500,12.340,3.344,371.900,105.500,30.070,8.923,baseline
1376.000,308.700,67.920,15.020,1742.000,327.000,66.970,12.920,376.700,61.220,12.480,3.377,377.800,107.600,30.530,9.010,baseline
1364.000,300.300,64.770,14.170,1685.000,313.600,63.930,12.300,374.800,61.360,12.370,3.315,361.900,102.400,28.830,8.451,baseline
1273.000,284.400,62.070,13.820,1669.000,313.100,63.830,12.360,365.300,59.760,12.140,3.259,354.900,101.600,28.770,8.448,baseline
1283.000,283.500,62.930,13.820,1684.000,314.800,64.290,12.410,365.800,59.800,12.160,3.264,358.100,102.100,28.800,8.533,baseline
1301.000,289.200,63.930,14.070,1689.000,316.200,64.580,12.470,367.500,59.930,12.100,3.293,360.300,102.800,29.010,8.552,baseline
1305.000,289.400,63.260,14.150,1695.000,316.500,64.730,12.540,369.800,60.070,12.230,3.309,362.700,102.600,29.250,8.601,baseline
1321.000,293.800,64.690,14.330,1715.000,319.400,65.480,12.650,367.600,60.870,12.220,3.324,367.600,104.300,29.600,8.781,baseline
1346.000,300.800,66.150,14.800,1723.000,323.600,66.470,12.880,367.100,61.180,12.330,3.329,372.300,106.100,29.970,8.927,baseline
1376.000,307.100,68.190,15.080,1727.000,321.700,65.500,12.590,374.300,61.920,12.470,3.352,376.900,105.900,29.980,8.703,baseline
1302.000,286.900,62.670,13.770,1662.000,309.900,63.430,12.270,373.100,60.190,12.210,3.277,356.700,100.900,28.420,8.407,baseline
1270.000,282.900,61.960,13.680,1671.000,311.400,63.870,12.290,366.900,59.690,12.060,3.268,355.600,100.800,28.510,8.430,baseline
1281.000,286.600,62.860,13.910,1683.000,313.900,64.250,12.450,360.600,59.540,12.120,3.270,358.400,102.400,28.800,8.531,baseline
1300.000,289.700,63.310,14.020,1688.000,314.200,64.480,12.420,366.600,60.220,12.170,3.285,361.100,102.500,29.000,8.544,baseline
1304.000,291.000,63.700,14.160,1695.000,317.400,64.900,12.600,369.200,60.460,12.160,3.295,363.100,103.200,29.100,8.640,baseline
1325.000,295.800,65.310,14.430,1711.000,320.400,65.490,12.720,371.000,60.860,12.260,3.313,367.100,105.000,29.630,8.773,baseline
1354.000,302.200,66.680,14.870,1730.000,324.000,66.390,12.880,377.700,60.890,12.400,3.341,374.500,106.300,30.080,8.954,baseline
1311.000,292.800,64.510,14.300,1703.000,316.600,65.000,12.610,370.600,60.470,12.250,3.306,365.400,103.500,29.340,8.703,hard
1337.000,299.900,66.090,14.580,1717.000,321.600,65.980,12.790,369.400,60.870,12.310,3.355,369.900,105.600,29.840,8.854,hard
1366.000,305.900,67.970,15.000,1747.000,325.000,67.160,12.940,370.500,61.130,12.350,3.362,376.500,107.000,30.550,8.956,hard
1387.000,308.200,67.260,14.580,1687.000,314.800,64.100,12.350,368.500,61.100,12.390,3.338,365.200,103.200,28.970,8.498,hard
1277.000,285.100,62.400,13.750,1662.000,311.100,64.000,12.330,366.100,60.160,12.130,3.252,356.700,101.200,28.660,8.444,hard
1284.000,286.700,63.150,14.010,1677.000,313.800,64.090,12.440,364.800,60.530,12.100,3.282,358.800,102.000,28.900,8.538,hard
1305.000,292.800,64.510,14.220,1695.000,316.000,64.700,12.510,368.200,60.290,12.150,3.307,363.400,102.900,29.200,8.598,hard
1312.000,291.600,64.470,14.240,1694.000,315.700,64.830,12.520,375.200,60.530,12.240,3.286,363.300,103.600,29.330,8.644,hard
1324.000,296.500,65.100,14.560,1705.000,319.300,65.520,12.660,367.000,60.350,12.330,3.331,367.600,104.200,29.680,8.758,hard
1352.000,302.300,66.860,14.920,1727.000,322.900,66.530,12.850,370.000,61.400,12.380,3.344,373.300,106.100,30.070,8.875,hard
1381.000,311.400,68.330,15.270,1744.000,324.800,65.990,12.700,377.300,61.170,12.480,3.370,377.700,107.400,30.290,8.891,hard
1329.000,294.600,63.450,14.090,1672.000,311.300,63.760,12.290,368.600,60.830,12.270,3.299,358.100,102.000,28.670,8.477,hard
1282.000,285.100,62.790,14.050,1680.000,312.800,64.330,12.400,368.100,60.070,12.150,3.290,358.200,102.100,28.850,8.521,hard
1303.000,290.900,63.980,14.270,1693.000,316.000,64.630,12.520,370.400,60.090,12.220,3.302,362.800,103.400,29.290,8.644,hard
1324.000,295.000,64.820,14.330,1695.000,316.700,64.860,12.480,372.300,60.850,12.250,3.301,363.400,103.400,29.330,8.617,hard
1320.000,293.900,65.020,14.390,1704.000,318.000,65.220,12.600,365.600,60.730,12.240,3.330,364.700,104.000,29.620,8.726,hard
1342.000,301.900,66.650,14.740,1720.000,321.000,66.090,12.750,374.500,61.210,12.330,3.327,369.800,105.300,30.080,8.836,hard
1372.000,307.000,68.360,15.120,1736.000,325.200,66.720,12.870,377.600,61.130,12.470,3.362,376.200,107.300,30.270,9.027,hard
1390.000,309.300,67.110,14.630,1690.000,314.200,63.920,12.310,376.000,61.560,12.400,3.348,365.100,103.200,29.190,8.527,hard
1282.000,286.700,62.730,13.790,1666.000,310.800,63.700,12.310,368.600,60.100,12.160,3.280,357.300,101.600,28.720,8.455,hard
1288.000,287.800,63.410,14.040,1684.000,313.600,64.190,12.440,364.400,60.710,12.160,3.283,358.800,102.300,28.870,8.526,hard
1308.000,292.700,64.620,14.400,1694.000,315.700,64.670,12.480,361.000,60.090,12.180,3.274,362.500,103.200,29.110,8.568,hard
1313.000,292.900,64.360,14.390,1698.000,315.900,64.770,12.520,369.600,60.570,12.210,3.282,362.700,103.100,29.060,8.659,hard
1325.000,296.900,65.250,14.600,1711.000,320.100,65.520,12.710,372.100,59.690,12.230,3.319,367.600,104.400,29.490,8.762,hard
1353.000,304.400,67.240,14.940,1727.000,322.400,66.430,12.820,371.100,60.800,12.350,3.331,372.100,106.200,30.010,8.886,hard
1384.000,310.300,68.730,15.240,1746.000,324.200,66.350,12.660,372.600,60.580,12.430,3.343,375.800,107.500,30.220,8.850,hard
1328.000,293.800,64.080,13.960,1671.000,310.000,63.360,12.270,372.900,60.150,12.270,3.300,358.200,101.700,28.590,8.406,hard
1276.000,286.300,62.810,13.850,1671.000,310.400,63.540,12.280,360.800,60.070,12.020,3.247,356.500,101.600,28.600,8.433,hard
1287.000,287.600,63.220,14.030,1681.000,313.400,63.960,12.420,364.800,60.170,12.070,3.259,359.200,102.000,28.780,8.499,hard
1304.000,289.800,64.190,14.190,1687.000,313.900,64.370,12.390,367.400,59.850,12.130,3.288,361.100,102.000,28.850,8.516,hard
1304.000,291.500,63.640,14.240,1687.000,314.700,64.770,12.510,366.500,60.040,12.150,3.285,361.800,102.700,29.170,8.569,hard
1324.000,296.300,65.110,14.510,1707.000,319.100,65.010,12.570,366.500,60.020,12.230,3.306,366.900,104.200,29.440,8.716,hard
1351.000,303.200,66.220,14.830,1721.000,322.600,66.120,12.750,369.700,60.690,12.400,3.328,371.300,105.900,29.960,8.881,hard
1378.000,308.300,68.200,14.970,1711.000,316.100,64.190,12.290,373.900,61.140,12.370,3.338,370.300,104.500,29.180,8.553,hard
1286.000,285.000,61.820,13.760,1658.000,309.200,63.170,12.160,366.800,59.540,12.070,3.246,353.500,100.400,28.260,8.367,hard
1272.000,282.400,62.230,13.690,1666.000,310.400,63.580,12.300,357.200,59.250,12.050,3.258,354.000,100.800,28.400,8.365,hard
1282.000,286.600,62.360,13.990,1674.000,313.400,63.770,12.340,359.400,59.520,12.030,3.247,356.400,101.400,28.700,8.446,hard
1296.000,288.000,63.710,14.040,1678.000,312.000,63.580,12.320,361.700,59.750,12.140,3.277,356.600,101.800,28.790,8.407,hard
1299.000,289.200,63.630,14.090,1688.000,315.800,64.180,12.450,366.700,59.720,12.130,3.271,359.100,102.700,29.070,8.617,hard
1323.000,296.800,64.960,14.460,1707.000,318.200,64.970,12.590,370.400,59.920,12.240,3.298,366.100,104.000,29.400,8.708,hard
1350.000,300.800,66.710,14.850,1718.000,322.500,66.060,12.690,374.700,60.970,12.300,3.329,370.800,105.200,29.840,8.839,hard
1363.000,300.500,65.630,14.320,1672.000,310.600,63.170,12.140,371.200,60.440,12.270,3.316,360.100,101.800,28.530,8.395,hard
1265.000,282.600,61.790,13.700,1656.000,308.500,63.170,12.160,359.500,59.140,12.090,3.250,351.700,100.500,28.280,8.281,hard
1271.000,283.100,62.030,13.780,1659.000,311.500,63.460,12.240,359.000,59.410,12.040,3.244,354.300,100.500,28.380,8.353,hard
1287.000,285.900,63.170,14.050,1679.000,312.300,63.850,12.290,362.100,59.580,12.060,3.252,357.100,101.300,28.590,8.373,hard
1293.000,287.500,63.330,14.040,1676.000,313.000,63.660,12.350,361.700,59.980,12.030,3.271,357.300,101.200,28.710,8.471,hard
1303.000,292.700,63.990,14.230,1694.000,316.000,64.830,12.470,365.100,59.830,12.130,3.286,362.700,102.600,28.980,8.586,hard
1331.000,298.600,65.380,14.570,1710.000,319.200,65.060,12.660,366.300,60.030,12.200,3.319,367.400,104.000,29.540,8.713,hard
1358.000,304.800,67.090,14.850,1726.000,322.200,65.610,12.640,368.900,60.200,12.390,3.321,371.800,105.500,29.970,8.786,hard
1341.000,295.100,64.140,14.040,1666.000,308.900,63.080,12.150,372.600,60.760,12.240,3.290,356.800,100.900,28.410,8.312,hard
1268.000,283.700,62.280,13.720,1662.000,309.200,63.230,12.200,362.800,59.420,12.070,3.244,352.600,100.300,28.240,8.313,hard
1278.000,286.100,62.460,13.870,1675.000,311.200,63.330,12.340,363.200,59.620,12.020,3.248,355.900,101.000,28.560,8.396,hard
1297.000,291.100,63.610,14.040,1678.000,313.200,63.970,12.270,370.100,59.830,12.060,3.265,357.900,101.500,28.690,8.442,hard
1297.000,288.800,63.780,14.070,1680.000,313.500,64.050,12.350,364.900,59.930,12.120,3.269,359.600,101.800,28.830,8.493,hard
1314.000,294.200,64.430,14.370,1694.000,316.100,64.640,12.500,364.500,59.810,12.240,3.310,363.500,103.200,29.250,8.631,hard
1341.000,300.200,66.190,14.680,1715.000,319.600,65.450,12.690,367.100,60.670,12.250,3.318,369.500,104.500,29.510,8.804,hard
1368.000,307.000,67.430,14.840,1707.000,315.500,64.050,12.290,371.400,60.660,12.340,3.331,367.700,103.900,29.110,8.462,hard
1283.000,285.200,61.190,13.680,1654.000,307.800,62.860,12.160,362.200,59.840,12.120,3.259,352.000,100.400,28.080,8.281,hard
1271.000,282.700,62.020,13.840,1670.000,309.900,63.160,12.240,362.100,58.860,12.030,3.245,353.500,100.400,28.360,8.385,hard
1285.000,287.000,62.820,14.020,1681.000,311.900,63.780,12.270,361.000,59.850,12.080,3.259,356.500,101.400,28.690,8.406,hard
1298.000,289.900,63.580,14.090,1679.000,312.200,63.590,12.340,359.700,59.730,12.120,3.276,357.500,101.500,28.640,8.412,hard
1303.000,290.400,63.930,14.230,1688.000,313.500,64.400,12.460,364.800,59.970,12.150,3.272,361.900,102.500,29.040,8.548,hard
1327.000,298.300,65.800,14.670,1708.000,318.500,65.050,12.640,368.700,60.340,12.190,3.300,366.500,103.700,29.390,8.686,hard
1355.000,305.300,67.210,14.920,1732.000,321.200,65.570,12.710,374.100,60.660,12.300,3.339,372.000,105.400,29.830,8.839,hard
1352.000,298.200,64.410,14.220,1669.000,309.100,62.870,12.090,371.700,60.380,12.170,3.304,357.600,101.000,28.390,8.304,hard
1265.000,282.700,61.840,13.700,1667.000,308.700,62.920,12.120,360.000,58.820,12.060,3.239,350.800,100.100,28.050,8.282,hard
1273.000,284.700,62.380,13.840,1668.000,311.200,63.200,12.200,357.700,59.560,12.080,3.261,354.200,100.700,28.480,8.420,hard
1291.000,288.900,63.070,14.070,1683.000,312.000,63.810,12.280,360.000,60.090,12.070,3.273,356.200,101.500,28.650,8.383,hard
1296.000,289.400,63.880,14.140,1679.000,312.900,64.120,12.360,365.800,59.790,12.090,3.267,358.200,102.000,28.650,8.476,hard
1312.000,293.500,64.260,14.480,1700.000,316.100,64.810,12.530,370.000,59.820,12.130,3.302,363.200,103.300,29.150,8.613,hard
1340.000,300.300,66.470,14.770,1720.000,320.100,65.490,12.660,367.600,60.420,12.350,3.335,368.800,104.400,29.740,8.814,hard
1370.000,306.900,67.890,15.120,1733.000,321.300,65.640,12.520,372.100,60.770,12.430,3.359,373.800,105.600,29.810,8.725,hard
1314.000,289.100,62.660,13.920,1659.000,308.100,62.460,12.110,363.400,60.210,12.120,3.269,355.000,100.300,28.230,8.286,hard
1267.000,283.000,61.980,13.760,1669.000,309.300,62.850,12.180,361.000,59.110,12.000,3.252,354.100,100.400,28.210,8.330,hard
1278.000,285.900,62.940,13.910,1674.000,312.000,63.540,12.270,363.200,59.230,12.080,3.258,355.100,101.100,28.480,8.398,hard
1299.000,291.700,63.400,14.140,1686.000,313.000,63.670,12.290,367.700,59.310,12.120,3.303,358.300,101.900,28.710,8.445,hard
1301.000,289.900,63.820,14.230,1687.000,313.900,64.080,12.460,360.100,60.030,12.200,3.277,359.700,102.100,28.970,8.529,hard
1322.000,295.600,65.170,14.590,1702.000,316.900,64.940,12.550,362.800,60.210,12.220,3.314,365.000,104.000,29.390,8.649,hard
1351.000,303.700,66.690,14.970,1724.000,320.800,65.720,12.710,365.500,60.620,12.340,3.341,371.500,105.600,29.920,8.840,hard
1382.000,310.600,68.250,15.200,1724.000,317.800,64.410,12.330,372.700,61.370,12.420,3.372,371.700,105.100,29.430,8.579,hard
1294.000,285.700,62.410,13.890,1653.000,306.900,62.710,12.150,368.000,60.340,12.060,3.269,353.800,100.100,28.300,8.348,hard
1272.000,284.500,62.570,13.900,1671.000,309.600,63.240,12.180,363.100,59.430,12.090,3.255,355.000,100.800,28.250,8.419,hard
1287.000,288.100,63.350,14.160,1686.000,312.700,63.800,12.300,358.900,59.340,12.130,3.294,357.900,102.000,28.880,8.476,hard
1307.000,291.700,64.390,14.210,1688.000,313.100,63.670,12.300,365.700,59.860,12.180,3.290,359.600,102.500,28.880,8.503,hard
1311.000,293.000,64.260,14.410,1693.000,314.100,64.230,12.500,366.000,59.820,12.180,3.288,363.200,102.900,29.060,8.587,hard
1337.000,299.700,66.470,14.770,1708.000,319.300,65.200,12.630,368.000,60.460,12.290,3.330,369.600,104.800,29.630,8.774,hard
1368.000,307.900,68.270,15.180,1742.000,322.200,66.200,12.790,371.600,61.150,12.410,3.371,375.600,106.200,30.130,8.977,hard
1399.000,313.900,68.950,15.150,1720.000,315.700,64.000,12.280,373.500,61.330,12.540,3.370,372.700,104.600,29.310,8.606,hard
1294.000,286.700,63.190,13.890,1662.000,308.200,62.890,12.150,364.200,59.240,12.150,3.285,355.500,100.700,28.450,8.413,hard
1283.000,286.200,63.160,14.050,1674.000,311.100,63.420,12.230,361.500,60.420,12.150,3.272,357.700,101.600,28.850,8.488,hard
1305.000,291.300,64.510,14.360,1694.000,313.800,64.130,12.370,365.100,59.770,12.210,3.288,362.500,102.800,29.050,8.556,hard
1321.000,294.800,64.370,14.350,1691.000,313.200,64.020,12.320,368.700,60.690,12.210,3.309,362.800,102.700,29.050,8.539,hard
1324.000,295.200,65.370,14.590,1703.000,316.500,64.800,12.470,366.900,60.680,12.250,3.301,366.100,104.000,29.200,8.702,hard
1351.000,302.800,66.800,15.010,1726.000,319.200,65.810,12.680,368.500,60.640,12.370,3.346,371.800,105.300,29.900,8.869,hard
1382.000,309.800,68.570,15.380,1745.000,324.300,66.470,12.700,375.900,60.970,12.530,3.367,377.900,107.100,30.370,8.951,hard
1369.000,302.600,65.740,14.400,1675.000,310.600,62.880,12.130,371.800,61.090,12.280,3.331,361.700,102.100,28.730,8.438,hard
1284.000,286.700,62.950,14.030,1674.000,309.800,63.170,12.230,365.300,60.290,12.200,3.283,357.800,101.800,28.660,8.445,hard
1299.000,290.000,64.230,14.320,1682.000,312.800,63.930,12.330,365.000,60.350,12.200,3.314,360.900,102.600,28.950,8.561,hard
1323.000,296.600,65.330,14.510,1700.000,315.500,64.040,12.320,367.200,60.110,12.280,3.330,364.700,103.500,29.150,8.604,hard
1323.000,297.500,65.260,14.470,1699.000,315.200,64.340,12.430,367.700,60.310,12.280,3.330,365.100,103.200,29.290,8.661,hard
1340.000,299.000,66.280,14.790,1717.000,318.000,65.120,12.590,367.500,60.790,12.310,3.339,369.400,104.800,29.930,8.776,hard
1369.000,310.100,67.910,15.160,1738.000,321.600,66.100,12.710,366.600,61.390,12.400,3.341,375.000,106.400,30.120,8.949,hard
1401.000,313.700,68.840,15.250,1714.000,315.200,64.040,12.270,372.700,61.630,12.530,3.377,374.000,104.900,29.490,8.593,hard
1296.000,288.600,62.910,13.940,1666.000,308.200,62.790,12.120,370.400,59.990,12.180,3.274,355.700,101.000,28.580,8.388,hard
1283.000,287.100,63.540,14.080,1674.000,309.900,63.140,12.220,367.000,59.520,12.140,3.283,358.200,101.500,28.650,8.430,hard
1302.000,292.300,64.230,14.300,1691.000,313.800,64.040,12.310,363.500,59.650,12.110,3.304,361.500,102.600,28.970,8.514,hard
1317.000,295.700,64.940,14.400,1695.000,313.600,63.770,12.330,367.000,59.900,12.210,3.316,362.300,102.700,29.030,8.565,hard
1322.000,296.400,65.460,14.610,1706.000,317.000,64.690,12.440,365.700,60.900,12.280,3.309,366.000,103.600,29.460,8.686,hard
1350.000,303.400,66.710,14.850,1723.000,320.500,65.410,12.670,371.000,60.630,12.380,3.349,371.700,105.300,29.910,8.835,hard
1382.000,311.000,68.660,15.370,1740.000,324.100,66.100,12.740,372.100,60.610,12.450,3.378,378.700,106.800,30.280,8.983,hard
1384.000,306.700,66.110,14.540,1684.000,310.000,63.060,12.120,375.500,61.080,12.330,3.347,362.400,102.800,28.740,8.462,hard
1278.000,286.400,62.720,13.900,1659.000,307.900,62.940,12.120,361.100,59.880,12.170,3.271,356.100,100.700,28.410,8.382,hard
1286.000,286.300,63.200,14.080,1676.000,311.500,63.330,12.240,361.800,59.820,12.160,3.285,357.900,101.500,28.710,8.393,hard
1306.000,292.700,64.340,14.380,1693.000,313.700,63.770,12.300,362.500,59.960,12.200,3.296,361.700,102.900,28.910,8.505,hard
1315.000,294.700,64.430,14.410,1701.000,313.900,64.090,12.410,366.000,60.660,12.260,3.322,362.500,102.800,29.140,8.565,hard
1332.000,300.200,65.720,14.650,1714.000,317.700,65.070,12.520,367.800,60.760,12.280,3.329,367.500,104.000,29.360,8.693,hard
1361.000,306.600,67.200,15.070,1737.000,321.600,65.790,12.720,371.900,60.570,12.410,3.374,372.700,105.900,29.960,8.861,hard
1394.000,315.100,69.100,15.410,1753.000,323.500,65.390,12.520,371.800,61.350,12.520,3.394,376.700,106.600,30.040,8.775,hard
1328.000,294.800,63.860,14.110,1671.000,308.000,62.710,12.060,368.900,60.440,12.230,3.295,357.500,101.100,28.420,8.327,hard
1276.000,286.000,62.950,13.890,1677.000,309.300,63.100,12.140,366.400,59.760,12.100,3.284,356.100,101.100,28.470,8.357,hard
1288.000,288.200,63.550,14.090,1684.000,312.500,63.560,12.290,368.600,60.260,12.150,3.303,359.000,101.900,28.790,8.461,hard
1311.000,294.400,64.580,14.270,1688.000,312.700,63.870,12.260,369.500,60.050,12.250,3.315,361.000,102.400,28.850,8.447,hard
1313.000,294.100,64.560,14.440,1698.000,314.400,64.220,12.350,365.800,60.410,12.240,3.318,362.800,103.100,29.130,8.603,hard
1335.000,298.400,65.610,14.780,1720.000,318.900,64.870,12.580,364.000,60.730,12.350,3.345,369.200,104.500,29.550,8.772,hard
1365.000,308.000,67.440,15.140,1734.000,321.600,65.680,12.730,368.900,60.920,12.360,3.370,374.200,105.700,30.070,8.858,hard
1396.000,313.500,68.990,15.260,1733.000,316.900,64.260,12.310,374.200,61.720,12.540,3.380,374.700,105.300,29.390,8.594,hard
1302.000,288.400,62.910,13.910,1662.000,307.800,62.600,12.140,372.900,60.570,12.200,3.276,356.100,100.700,28.380,8.352,hard
1280.000,287.700,62.920,13.970,1673.000,310.000,62.980,12.180,362.200,59.850,12.160,3.279,356.700,101.300,28.490,8.390,hard
1298.000,291.000,63.720,14.300,1682.000,312.700,63.600,12.320,365.200,59.780,12.230,3.298,360.600,102.000,28.950,8.463,hard
1314.000,294.600,64.430,14.260,1695.000,313.900,63.780,12.360,366.700,60.140,12.340,3.318,360.800,102.200,28.920,8.498,hard
1317.000,293.900,64.520,14.420,1700.000,314.900,64.210,12.420,366.700,60.700,12.220,3.313,364.300,103.500,29.260,8.590,hard
1341.000,301.100,66.420,14.790,1717.000,318.300,65.060,12.600,370.900,60.520,12.310,3.342,370.200,105.000,29.660,8.749,hard
1372.000,308.200,67.910,15.250,1741.000,322.600,65.690,12.710,376.200,61.160,12.440,3.376,375.600,106.700,30.210,8.927,hard
1379.000,306.300,66.150,14.510,1679.000,310.900,62.950,12.110,375.000,61.040,12.470,3.351,362.000,102.200,28.690,8.413,hard
1278.000,284.700,62.840,13.890,1671.000,308.100,62.980,12.170,365.200,59.670,12.140,3.289,355.100,100.900,28.550,8.379,hard
1289.000,288.500,63.410,14.040,1679.000,311.800,63.540,12.240,364.000,59.910,12.220,3.283,359.200,101.800,28.780,8.486,hard
1309.000,293.400,64.410,14.260,1689.000,312.700,63.890,12.300,363.000,60.580,12.260,3.315,361.000,102.500,28.890,8.516,hard
1313.000,294.800,64.530,14.430,1691.000,313.700,63.950,12.360,365.300,60.390,12.240,3.306,361.800,102.700,28.930,8.537,hard
1327.000,298.300,65.430,14.650,1706.000,317.200,64.760,12.490,367.800,60.350,12.280,3.329,366.800,103.700,29.350,8.716,hard
1355.000,304.800,66.850,14.980,1728.000,320.200,65.530,12.700,368.800,60.720,12.440,3.365,371.700,105.300,29.940,8.853,hard
1384.000,310.900,68.220,15.240,1727.000,318.000,64.430,12.380,369.500,61.400,12.510,3.393,375.000,105.300,29.490,8.616,hard
1303.000,287.800,62.740,13.980,1659.000,307.200,62.620,12.080,368.300,59.820,12.210,3.307,354.500,100.600,28.260,8.283,hard
1274.000,284.800,62.630,13.900,1667.000,310.700,63.040,12.150,364.000,59.490,12.140,3.287,356.100,100.800,28.330,8.341,hard
1288.000,288.400,63.280,14.140,1677.000,311.900,63.430,12.270,364.900,60.430,12.160,3.299,358.500,102.300,28.720,8.489,hard
1307.000,291.300,63.900,14.260,1689.000,312.100,63.600,12.340,369.400,60.080,12.240,3.321,361.000,102.000,28.610,8.491,hard
1308.000,293.000,65.030,14.380,1688.000,314.700,64.200,12.380,367.100,59.770,12.280,3.328,362.600,103.000,29.190,8.593,hard
1332.000,300.200,65.710,14.800,1711.000,318.600,64.980,12.530,364.100,60.890,12.350,3.344,368.100,104.800,29.510,8.696,hard
1362.000,306.500,67.340,15.130,1732.000,320.900,65.640,12.730,368.700,61.510,12.490,3.383,373.900,106.100,30.040,8.834,hard
1390.000,311.200,67.720,14.880,1697.000,312.700,63.440,12.170,370.000,61.720,12.530,3.389,367.600,103.000,28.950,8.384,hard
1278.000,283.900,62.120,13.810,1663.000,307.500,62.510,12.120,364.600,60.030,12.190,3.294,354.600,100.400,28.220,8.287,hard
1275.000,284.800,62.370,13.940,1671.000,309.200,63.160,12.210,363.700,59.660,12.120,3.291,354.800,100.500,28.400,8.305,hard
1291.000,289.700,63.470,14.140,1685.000,312.100,63.540,12.300,363.300,59.920,12.220,3.326,358.900,101.700,28.710,8.417,hard
1301.000,291.400,63.990,14.130,1682.000,312.800,63.550,12.350,364.100,60.150,12.260,3.305,358.800,101.900,28.760,8.446,hard
1309.000,292.600,64.540,14.370,1698.000,314.600,64.050,12.430,363.000,60.440,12.280,3.326,363.300,103.100,28.860,8.525,hard
1334.000,299.800,66.210,14.790,1715.000,318.100,64.730,12.600,370.100,60.570,12.410,3.362,369.100,104.400,29.470,8.686,hard
1365.000,304.900,68.120,15.100,1734.000,322.900,65.650,12.750,373.500,60.640,12.440,3.371,374.600,106.300,30.030,8.860,hard
1373.000,304.900,66.310,14.540,1683.000,310.200,62.800,12.110,372.400,61.180,12.410,3.358,361.400,101.600,28.400,8.304,hard
1269.000,281.900,61.790,13.800,1666.000,307.600,62.530,12.150,364.000,59.680,12.150,3.284,352.600,100.000,28.240,8.260,hard
1275.000,284.200,62.440,13.970,1674.000,309.800,62.990,12.200,359.300,59.530,12.180,3.294,354.800,100.800,28.320,8.346,hard
1292.000,290.500,63.530,14.250,1684.000,312.200,63.380,12.290,362.200,60.530,12.220,3.306,359.200,101.600,28.620,8.356,hard
1300.000,290.600,63.920,14.230,1687.000,311.900,63.580,12.270,371.300,60.120,12.200,3.311,359.500,102.200,28.770,8.421,hard
1312.000,294.600,64.450,14.520,1700.000,314.700,64.520,12.510,368.500,60.760,12.260,3.345,364.700,103.200,29.140,8.612,hard
1340.000,301.400,66.600,14.900,1718.000,318.700,65.240,12.640,370.200,60.960,12.470,3.392,370.400,104.900,29.680,8.764,hard
1371.000,310.000,67.690,15.260,1739.000,322.200,66.150,12.680,368.200,61.360,12.540,3.392,375.600,106.600,30.040,8.822,hard
1355.000,299.900,65.470,14.280,1674.000,308.300,62.630,12.120,371.100,61.080,12.380,3.341,358.400,101.300,28.420,8.343,hard
1270.000,283.100,62.290,13.880,1665.000,308.500,63.030,12.150,363.200,59.900,12.140,3.291,354.500,100.700,28.300,8.328,hard
1283.000,287.100,63.070,14.060,1674.000,311.300,63.410,12.220,363.700,60.220,12.230,3.302,356.600,101.100,28.670,8.406,hard
1304.000,292.400,63.860,14.280,1684.000,312.400,63.580,12.320,367.300,60.090,12.190,3.333,360.700,101.700,28.760,8.432,hard
1305.000,294.200,64.210,14.310,1689.000,313.500,63.810,12.340,367.400,60.220,12.310,3.336,360.500,102.500,28.720,8.456,hard
1322.000,296.300,65.400,14.620,1707.000,315.500,64.630,12.440,366.200,60.890,12.380,3.338,365.600,103.400,29.290,8.613,hard
1349.000,302.600,67.230,14.960,1725.000,319.400,65.630,12.660,368.700,61.030,12.420,3.387,371.600,105.000,29.860,8.750,hard
1380.000,311.300,68.830,15.320,1727.000,317.700,64.240,12.330,371.000,61.710,12.540,3.418,372.400,105.200,29.330,8.548,hard
1299.000,288.800,63.010,13.850,1659.000,308.000,62.420,12.140,370.000,60.060,12.200,3.312,356.000,100.600,28.170,8.287,hard
1275.000,286.600,62.970,13.970,1678.000,309.900,63.020,12.230,364.700,59.700,12.190,3.323,356.300,100.900,28.520,8.313,hard
1293.000,289.200,63.790,14.160,1689.000,312.700,63.600,12.340,364.700,60.350,12.300,3.326,359.800,102.000,28.670,8.416,hard
1309.000,293.200,64.500,14.330,1695.000,313.000,63.610,12.340,366.100,60.320,12.320,3.325,359.900,102.200,28.700,8.449,hard
1310.000,294.900,64.770,14.450,1698.000,315.800,64.260,12.470,363.400,60.470,12.290,3.325,364.100,102.800,29.040,8.536,hard
1335.000,300.100,66.510,14.840,1717.000,318.000,65.040,12.630,369.300,60.740,12.380,3.372,368.000,104.700,29.560,8.740,hard
1365.000,309.100,68.280,15.240,1730.000,322.900,66.090,12.770,373.000,61.070,12.580,3.409,374.000,106.100,29.860,8.885,hard
1379.000,304.300,66.260,14.500,1679.000,309.600,63.000,12.150,371.500,61.640,12.450,3.386,362.100,102.000,28.580,8.311,hard
1272.000,283.400,62.310,13.920,1662.000,307.700,62.650,12.160,364.400,60.030,12.180,3.288,354.200,100.200,28.280,8.230,hard
1277.000,285.200,63.480,14.020,1671.000,310.200,63.130,12.210,361.200,60.100,12.230,3.303,354.700,101.100,28.410,8.355,hard
1295.000,289.500,63.990,14.310,1686.000,311.500,63.430,12.250,363.500,60.030,12.210,3.311,359.100,101.700,28.500,8.386,hard
1299.000,290.700,63.970,14.200,1689.000,311.800,63.630,12.330,363.500,59.970,12.330,3.322,358.200,101.600,28.560,8.452,hard
1313.000,295.900,64.620,14.440,1703.000,315.300,64.520,12.500,364.800,60.480,12.240,3.332,363.700,102.800,29.110,8.613,hard
1342.000,301.100,66.530,14.880,1721.000,320.000,65.300,12.660,367.100,60.640,12.400,3.384,368.400,104.100,29.600,8.723,hard
1373.000,309.700,68.090,15.180,1740.000,321.900,65.560,12.620,370.500,61.440,12.520,3.409,375.400,106.200,29.910,8.734,hard
1336.000,296.200,64.300,14.120,1663.000,306.400,62.550,12.090,371.500,60.970,12.290,3.323,356.200,100.600,28.190,8.232,hard
1264.000,281.600,61.960,13.840,1668.000,307.900,62.780,12.170,359.900,59.670,12.110,3.296,352.200,99.910,28.170,8.260,hard
1274.000,284.400,62.700,13.930,1674.000,309.200,63.010,12.220,364.500,59.320,12.160,3.306,355.100,100.400,28.220,8.337,hard
1293.000,288.100,63.600,14.100,1683.000,310.000,63.010,12.260,362.600,59.820,12.180,3.324,357.300,101.200,28.410,8.364,hard
1292.000,289.800,63.140,14.180,1684.000,312.300,63.980,12.330,364.400,59.800,12.300,3.310,357.000,101.200,28.610,8.406,hard
1310.000,293.300,64.690,14.510,1694.000,313.900,64.340,12.420,366.100,60.500,12.300,3.334,362.700,102.900,29.060,8.510,hard
1337.000,300.800,66.210,14.710,1723.000,318.300,65.150,12.540,365.900,60.870,12.430,3.362,368.000,104.100,29.340,8.698,hard
1364.000,307.400,67.640,15.020,1724.000,317.400,64.340,12.360,369.800,61.510,12.450,3.397,371.500,104.500,29.210,8.584,hard
1296.000,287.600,62.180,13.830,1662.000,306.600,62.550,12.090,366.700,60.310,12.190,3.309,352.600,99.440,27.860,8.195,hard
1260.000,281.300,61.970,13.770,1666.000,308.000,62.740,12.100,362.400,59.230,12.170,3.296,350.600,99.370,28.110,8.214,hard
1271.000,282.600,62.660,13.910,1669.000,310.300,63.170,12.260,362.900,59.740,12.290,3.296,354.100,100.300,28.170,8.328,hard
1289.000,287.900,63.360,14.000,1677.000,310.900,62.960,12.220,361.000,60.330,12.280,3.323,355.800,100.500,28.300,8.301,hard
1289.000,288.500,63.360,14.110,1689.000,312.700,63.750,12.370,365.000,60.130,12.290,3.315,357.400,101.500,28.570,8.414,hard
1312.000,294.500,64.850,14.470,1704.000,315.000,64.290,12.490,368.600,60.460,12.350,3.359,362.700,102.900,29.010,8.562,hard
1340.000,301.000,66.310,14.810,1717.000,318.000,65.080,12.630,367.900,61.060,12.410,3.396,369.000,104.400,29.530,8.712,hard
1368.000,307.100,67.530,14.900,1713.000,314.000,63.770,12.250,372.100,61.310,12.510,3.410,369.900,103.200,29.030,8.453,hard
1281.000,283.200,62.360,13.700,1657.000,306.300,62.550,12.050,364.700,59.460,12.280,3.311,351.600,99.490,27.930,8.199,hard
1264.000,283.000,61.970,13.790,1671.000,308.300,62.960,12.150,358.800,60.110,12.160,3.322,352.600,99.700,28.150,8.244,hard
1280.000,286.800,62.700,13.990,1673.000,310.100,63.400,12.220,363.900,59.820,12.250,3.304,356.000,101.000,28.370,8.346,hard
1292.000,289.000,63.100,13.970,1675.000,310.100,63.400,12.250,368.600,60.140,12.290,3.323,357.100,101.000,28.370,8.367,hard
1296.000,289.400,63.280,14.240,1691.000,311.800,64.030,12.380,362.400,60.120,12.230,3.340,359.100,101.800,28.600,8.475,hard
1319.000,297.200,64.950,14.530,1711.000,315.200,64.780,12.590,364.200,60.540,12.350,3.366,364.700,102.800,29.160,8.633,hard
1347.000,302.300,66.870,14.840,1731.000,321.000,65.540,12.660,366.600,60.630,12.500,3.383,369.800,104.400,29.540,8.741,hard
1351.000,299.500,64.850,14.250,1670.000,308.500,62.760,12.050,367.900,60.910,12.500,3.361,357.800,100.700,28.160,8.240,hard
1261.000,279.900,62.050,13.690,1658.000,307.800,62.620,12.090,367.100,60.150,12.230,3.306,352.100,99.640,28.050,8.236,hard
1272.000,284.700,62.270,13.860,1668.000,310.000,62.940,12.190,364.000,59.520,12.210,3.329,353.600,100.500,28.240,8.346,hard
1290.000,289.100,63.620,14.020,1680.000,310.400,63.140,12.220,366.400,59.780,12.250,3.341,357.300,101.000,28.370,8.388,hard
1288.000,286.900,63.040,14.030,1681.000,310.100,63.630,12.300,369.600,60.310,12.370,3.337,357.900,100.900,28.670,8.411,hard
1305.000,293.700,64.000,14.320,1690.000,315.000,64.240,12.440,365.400,60.170,12.410,3.358,361.900,102.500,29.010,8.560,hard
1333.000,299.600,65.630,14.760,1712.000,317.900,65.190,12.660,367.000,61.080,12.470,3.389,368.200,104.100,29.560,8.685,hard
1363.000,306.300,67.110,14.960,1725.000,316.700,64.110,12.260,373.000,61.510,12.540,3.427,369.100,103.900,28.970,8.476,hard
1283.000,286.100,61.880,13.730,1655.000,305.700,62.850,12.060,365.300,60.240,12.140,3.312,352.100,99.300,27.870,8.222,hard
1261.000,282.700,61.980,13.770,1670.000,308.700,63.080,12.170,364.900,59.510,12.140,3.305,351.700,99.780,28.100,8.312,hard
1273.000,286.900,62.620,14.010,1680.000,309.800,63.280,12.250,364.300,60.140,12.180,3.319,355.200,100.500,28.420,8.306,hard
1292.000,288.200,63.180,14.060,1682.000,311.000,63.420,12.360,364.800,60.060,12.260,3.331,356.700,101.000,28.370,8.339,hard
1295.000,290.500,63.510,14.190,1690.000,313.300,63.910,12.430,366.200,60.320,12.230,3.346,359.500,101.600,28.690,8.500,hard
1319.000,296.500,65.340,14.570,1710.000,316.100,64.660,12.580,370.100,60.780,12.340,3.371,365.200,103.400,29.130,8.593,hard
1348.000,302.900,67.250,14.900,1728.000,320.600,65.920,12.730,373.000,61.550,12.470,3.394,371.300,105.200,29.590,8.796,hard
1372.000,306.400,66.760,14.650,1687.000,311.100,63.150,12.200,374.200,61.360,12.490,3.412,362.100,101.400,28.580,8.328,hard
1261.000,280.900,61.500,13.700,1659.000,306.000,62.410,12.130,362.600,59.490,12.190,3.312,351.400,99.050,28.000,8.174,hard
1260.000,281.900,61.550,13.760,1666.000,308.700,62.870,12.150,361.200,59.790,12.200,3.307,351.500,99.500,28.050,8.264,hard
1275.000,284.600,62.740,14.000,1682.000,311.000,63.560,12.210,363.400,60.060,12.260,3.312,356.700,100.500,28.430,8.341,hard
1284.000,289.300,63.110,14.040,1680.000,311.400,63.450,12.320,364.700,60.400,12.300,3.332,355.100,100.400,28.210,8.383,hard
1293.000,290.500,63.910,14.210,1688.000,313.700,64.160,12.460,364.100,60.100,12.220,3.358,358.400,101.600,28.620,8.466,hard
1319.000,296.700,65.370,14.590,1711.000,316.500,64.810,12.580,367.800,60.050,12.420,3.374,363.500,103.400,29.180,8.605,hard
1349.000,301.900,67.340,14.900,1737.000,320.500,65.470,12.650,369.100,61.530,12.500,3.405,370.300,104.800,29.550,8.752,hard
1337.000,295.300,64.210,14.040,1658.000,307.000,62.190,12.060,367.000,61.470,12.390,3.330,355.800,99.950,28.130,8.205,hard
1251.000,278.600,61.480,13.600,1659.000,306.400,62.670,12.150,363.200,59.730,12.160,3.294,350.100,99.150,27.840,8.229,hard
1261.000,281.400,62.260,13.870,1674.000,308.200,63.030,12.170,365.100,59.720,12.120,3.303,353.600,99.910,28.170,8.311,hard
1278.000,285.500,62.760,14.010,1678.000,310.000,63.030,12.250,365.400,59.980,12.250,3.325,354.800,100.500,28.410,8.331,hard
1279.000,286.900,62.700,14.060,1674.000,309.300,63.230,12.200,364.600,60.050,12.330,3.329,355.400,101.000,28.410,8.362,hard
1290.000,288.200,63.560,14.180,1682.000,311.800,63.870,12.350,362.400,60.610,12.380,3.344,359.400,102.100,28.850,8.538,hard
1312.000,295.100,65.220,14.590,1703.000,316.300,64.830,12.570,368.900,61.070,12.460,3.388,367.200,104.100,29.440,8.718,hard
1349.000,302.700,66.650,15.060,1730.000,319.300,65.170,12.450,369.400,61.980,12.590,3.399,372.100,104.900,29.450,8.633,hard
1303.000,289.200,62.490,13.870,1655.000,306.500,62.480,12.140,369.000,60.740,12.280,3.334,352.500,99.430,28.040,8.237,hard
1257.000,283.200,61.850,13.800,1670.000,308.900,63.120,12.220,364.600,59.910,12.220,3.324,351.700,99.420,28.150,8.260,hard
1272.000,286.100,62.850,13.990,1682.000,311.500,63.660,12.320,366.100,60.290,12.280,3.325,354.900,100.900,28.470,8.311,hard
1295.000,290.100,63.680,14.160,1694.000,313.100,63.430,12.370,362.500,60.570,12.360,3.355,355.800,101.100,28.490,8.382,hard
1294.000,291.900,64.020,14.310,1699.000,313.600,64.190,12.440,363.700,61.160,12.370,3.356,358.500,101.900,28.710,8.446,hard
1318.000,297.900,65.520,14.590,1717.000,317.300,65.030,12.620,374.300,60.840,12.390,3.377,362.700,102.700,29.140,8.603,hard
1346.000,302.300,67.270,14.980,1732.000,320.500,65.600,12.780,374.800,61.170,12.500,3.418,369.000,104.300,29.620,8.770,hard
1370.000,304.700,67.070,14.650,1693.000,310.800,63.270,12.190,375.100,61.410,12.530,3.409,360.100,101.200,28.600,8.341,hard
1263.000,282.200,61.980,13.800,1658.000,307.100,62.770,12.210,365.400,60.070,12.260,3.321,350.400,99.730,28.050,8.265,hard
1267.000,283.400,62.540,13.830,1671.000,309.300,62.890,12.230,365.200,60.520,12.220,3.326,353.000,100.200,28.200,8.320,hard
1283.000,288.100,63.270,14.200,1683.000,309.900,63.640,12.300,366.600,60.530,12.310,3.330,356.300,101.000,28.380,8.331,hard
1288.000,287.300,63.560,14.160,1682.000,311.000,63.610,12.320,371.500,60.780,12.300,3.347,357.000,100.800,28.470,8.409,hard
1297.000,292.500,64.030,14.390,1695.000,313.200,64.330,12.460,369.400,60.240,12.350,3.372,361.400,102.100,28.900,8.514,hard
1322.000,298.200,65.790,14.720,1711.000,317.100,64.740,12.570,370.100,61.030,12.430,3.396,366.300,104.000,29.510,8.709,hard
1349.000,302.700,67.320,15.030,1720.000,317.100,64.580,12.390,370.300,61.640,12.520,3.399,370.000,104.800,29.390,8.576,hard
1292.000,286.900,62.460,13.790,1653.000,305.200,62.170,12.050,368.700,60.300,12.260,3.323,352.800,99.590,27.920,8.189,hard
1252.000,281.800,61.530,13.740,1663.000,306.900,62.810,12.150,368.500,60.170,12.180,3.297,351.300,99.290,27.960,8.191,hard
1264.000,283.400,62.440,13.950,1673.000,309.700,63.100,12.240,362.900,60.390,12.240,3.339,354.200,100.500,28.240,8.325,hard
1282.000,289.500,63.520,14.040,1671.000,310.100,63.230,12.250,370.000,59.870,12.250,3.335,355.900,100.700,28.290,8.355,hard
1284.000,288.800,63.010,14.110,1684.000,312.500,63.660,12.380,367.900,60.230,12.300,3.346,356.800,101.300,28.600,8.452,hard
1305.000,293.200,64.770,14.510,1695.000,315.400,64.410,12.510,364.600,60.930,12.360,3.352,363.200,102.800,29.130,8.578,hard
1335.000,301.800,66.520,14.870,1720.000,320.100,65.450,12.660,368.500,61.530,12.490,3.377,369.300,104.500,29.560,8.730,hard
1362.000,306.900,66.450,14.720,1694.000,310.500,63.390,12.180,377.900,61.300,12.520,3.391,364.100,102.000,28.560,8.389,hard
1258.000,281.000,61.060,13.710,1654.000,306.800,62.540,12.070,364.900,59.970,12.260,3.325,350.100,99.420,27.930,8.226,hard
1255.000,281.700,62.060,13.820,1672.000,307.100,62.900,12.210,363.400,60.090,12.210,3.315,351.200,99.360,28.040,8.247,hard
1269.000,285.400,62.680,13.950,1678.000,311.700,63.400,12.330,365.000,59.870,12.330,3.336,354.900,100.400,28.430,8.346,hard
1281.000,286.500,63.240,14.030,1683.000,310.900,63.420,12.260,365.300,60.880,12.270,3.334,354.100,101.000,28.430,8.330,hard
1287.000,289.100,63.460,14.280,1697.000,313.000,64.260,12.410,367.000,60.590,12.250,3.360,359.100,101.600,28.660,8.488,hard
1316.000,294.900,65.480,14.670,1712.000,317.200,64.710,12.590,376.900,60.590,12.340,3.370,364.500,103.200,29.130,8.627,hard
1345.000,303.800,67.010,14.970,1720.000,321.100,65.300,12.610,374.700,61.340,12.490,3.412,370.000,104.400,29.640,8.784,hard
1331.000,294.300,64.050,14.120,1663.000,307.800,62.410,12.050,371.100,61.340,12.370,3.358,355.400,100.200,28.170,8.188,hard
1248.000,281.400,61.390,13.710,1663.000,306.700,62.670,12.080,359.600,59.960,12.230,3.311,350.500,99.270,27.900,8.216,hard
1259.000,282.700,61.830,13.810,1673.000,309.900,62.960,12.160,361.400,60.220,12.200,3.312,351.600,100.100,28.100,8.274,hard
1278.000,287.400,63.230,14.060,1684.000,310.100,63.160,12.190,366.800,60.560,12.180,3.339,354.700,100.700,28.250,8.292,hard
1280.000,286.000,63.300,14.030,1678.000,311.500,63.280,12.300,366.200,60.000,12.300,3.325,355.400,101.200,28.470,8.378,hard
1295.000,291.900,64.340,14.410,1697.000,314.600,64.440,12.420,368.800,60.910,12.360,3.364,360.600,102.300,28.970,8.583,hard
1324.000,298.200,66.040,14.790,1715.000,317.900,65.210,12.620,367.400,61.390,12.430,3.394,367.300,103.900,29.350,8.657,hard
1353.000,305.000,67.300,15.050,1722.000,317.400,64.430,12.310,371.800,62.080,12.500,3.422,370.400,104.500,29.390,8.569,hard
1287.000,286.200,62.740,13.760,1658.000,304.900,61.970,11.950,367.100,61.190,12.290,3.336,352.200,99.820,27.970,8.238,hard
1249.000,279.700,61.840,13.690,1660.000,307.100,62.280,12.070,368.500,60.550,12.150,3.311,351.700,99.630,27.950,8.263,hard
1262.000,283.800,62.650,13.900,1672.000,309.000,63.140,12.280,368.400,60.270,12.240,3.336,354.900,100.400,28.310,8.362,hard
1282.000,288.100,63.280,14.080,1679.000,309.600,63.200,12.220,371.500,59.960,12.420,3.359,356.900,100.900,28.440,8.336,hard
1283.000,287.500,63.930,14.230,1685.000,312.900,63.960,12.300,366.400,60.780,12.330,3.344,358.900,101.900,28.710,8.414,hard
1307.000,295.600,64.990,14.580,1708.000,316.400,64.880,12.540,370.200,61.040,12.470,3.381,363.000,103.300,29.090,8.623,hard
1338.000,303.000,66.860,14.930,1722.000,320.500,65.380,12.620,371.300,61.550,12.500,3.400,368.400,104.500,29.500,8.749,hard
1354.000,302.300,65.490,14.430,1676.000,307.900,62.930,12.130,375.100,61.620,12.490,3.387,359.000,101.100,28.440,8.303,hard
1251.000,280.000,61.770,13.810,1655.000,306.400,62.380,12.120,368.400,60.310,12.210,3.326,350.400,99.190,27.890,8.242,hard
1258.000,282.500,62.100,13.820,1667.000,308.000,62.810,12.200,360.600,59.750,12.290,3.324,351.700,100.200,28.300,8.306,hard
1272.000,286.600,62.970,14.020,1676.000,310.500,62.950,12.200,365.300,60.180,12.370,3.345,356.600,100.900,28.440,8.385,hard
1277.000,286.100,63.020,14.020,1674.000,310.700,63.240,12.270,366.600,61.160,12.360,3.334,357.100,101.200,28.570,8.378,hard
1290.000,290.500,64.120,14.350,1694.000,313.900,64.260,12.470,370.300,61.020,12.310,3.366,361.400,102.400,28.940,8.580,hard
1324.000,298.000,65.900,14.750,1714.000,319.400,65.260,12.680,377.000,61.690,12.460,3.383,367.500,103.800,29.440,8.688,hard
1361.000,307.300,68.120,15.190,1738.000,319.500,64.890,12.410,374.800,61.870,12.570,3.424,370.600,104.600,29.360,8.550,hard
1294.000,287.300,62.730,13.960,1653.000,307.900,62.730,12.100,369.000,60.490,12.360,3.343,351.700,99.810,28.030,8.206,hard
1255.000,281.800,62.000,13.900,1665.000,308.600,63.130,12.170,364.000,60.190,12.270,3.320,351.000,99.560,28.160,8.259,hard
1265.000,283.400,62.190,13.980,1672.000,310.100,63.190,12.240,360.600,60.860,12.270,3.337,353.400,100.100,28.270,8.303,hard
1282.000,287.400,63.050,14.090,1676.000,309.500,63.320,12.210,371.900,60.900,12.220,3.337,355.200,100.900,28.380,8.333,hard
1280.000,288.200,62.760,14.110,1683.000,312.000,63.470,12.270,370.700,60.350,12.300,3.326,357.600,101.300,28.580,8.429,hard
1296.000,292.700,63.850,14.350,1697.000,314.300,64.440,12.430,369.900,61.010,12.350,3.369,363.500,102.900,29.210,8.601,hard
1323.000,297.600,65.890,14.760,1715.000,318.000,65.190,12.580,375.800,60.960,12.490,3.399,368.300,104.200,29.690,8.752,hard
1358.000,306.700,66.880,14.750,1697.000,310.900,63.530,12.210,377.100,62.260,12.560,3.402,364.400,102.400,28.560,8.359,hard
1260.000,282.700,61.520,13.760,1656.000,306.800,62.440,12.140,367.200,60.840,12.220,3.318,349.600,99.300,27.910,8.201,hard
1257.000,282.500,61.770,13.780,1673.000,308.400,62.980,12.170,368.100,59.970,12.220,3.334,351.500,99.360,28.010,8.256,hard
1270.000,285.500,62.980,14.100,1682.000,310.900,63.420,12.320,368.900,60.670,12.140,3.334,355.000,100.700,28.370,8.338,hard
1285.000,287.400,63.050,14.160,1688.000,311.100,63.580,12.310,366.600,60.530,12.330,3.339,354.600,100.700,28.350,8.338,hard
1290.000,290.000,63.770,14.290,1695.000,313.600,64.100,12.420,363.100,60.690,12.350,3.332,357.600,101.600,28.720,8.488,hard
1315.000,295.300,65.510,14.640,1709.000,316.800,64.940,12.570,368.200,61.580,12.470,3.380,364.300,103.000,29.320,8.584,hard
1345.000,302.200,66.910,14.990,1731.000,320.000,65.470,12.640,374.700,61.620,12.490,3.408,370.400,105.100,29.600,8.740,hard
1353.000,298.100,65.350,14.390,1677.000,307.900,62.750,12.030,380.100,61.560,12.510,3.380,358.000,100.500,28.150,8.262,hard
1252.000,279.500,61.650,13.680,1654.000,306.700,62.640,12.070,369.000,60.200,12.230,3.322,349.500,99.120,27.920,8.221,hard
1257.000,283.400,61.920,13.890,1670.000,309.200,63.070,12.180,369.700,60.070,12.210,3.331,351.600,99.940,28.140,8.269,hard
1277.000,287.500,63.460,14.080,1692.000,310.800,63.510,12.220,368.600,60.590,12.300,3.341,355.500,100.600,28.460,8.326,hard
1282.000,288.000,62.930,14.110,1689.000,311.900,63.570,12.300,365.400,60.810,12.320,3.347,355.600,100.400,28.420,8.388,hard
1296.000,292.000,64.390,14.340,1703.000,314.100,64.330,12.460,372.400,60.770,12.410,3.359,361.400,102.200,28.780,8.561,hard
1325.000,299.300,66.050,14.750,1720.000,317.800,65.020,12.570,370.500,60.990,12.470,3.384,365.500,103.900,29.280,8.694,hard
1354.000,306.300,67.850,15.120,1737.000,321.200,65.560,12.520,375.600,61.540,12.580,3.416,372.300,105.100,29.630,8.659,hard
1312.000,291.600,63.770,14.030,1665.000,306.500,62.610,12.070,373.100,60.670,12.420,3.351,354.700,100.200,28.100,8.220,hard
1254.000,280.700,61.630,13.800,1664.000,308.600,62.750,12.160,365.000,59.800,12.230,3.305,351.400,99.820,27.990,8.251,hard
1267.000,283.900,62.830,13.980,1680.000,311.100,63.290,12.230,363.400,60.220,12.300,3.307,355.900,100.700,28.510,8.355,hard
1288.000,288.000,63.250,14.140,1683.000,309.900,63.000,12.230,370.500,60.870,12.410,3.331,358.000,101.100,28.640,8.367,hard
1284.000,288.100,63.560,14.190,1690.000,311.400,63.190,12.290,374.500,60.670,12.310,3.343,358.300,101.500,28.740,8.483,hard
1302.000,294.000,64.320,14.420,1702.000,314.600,64.360,12.480,373.100,60.850,12.450,3.373,364.300,103.300,29.220,8.650,hard
1327.000,299.600,66.290,14.860,1717.000,317.700,65.000,12.540,373.900,61.420,12.570,3.411,368.400,104.500,29.590,8.800,hard
1350.000,301.000,66.370,14.630,1683.000,308.800,62.830,12.110,373.500,62.210,12.640,3.412,362.300,102.100,28.780,8.351,hard
1254.000,281.400,61.520,13.640,1653.000,305.500,62.160,12.010,368.400,60.460,12.320,3.315,352.000,99.580,28.060,8.241,hard
1255.000,279.900,61.660,13.840,1662.000,307.400,62.610,12.100,370.100,60.460,12.270,3.328,353.000,100.500,28.280,8.390,hard
1271.000,285.200,62.850,13.960,1675.000,309.300,63.210,12.180,369.400,60.780,12.320,3.352,356.600,101.300,28.540,8.405,hard
1278.000,287.500,63.330,14.080,1678.000,309.100,63.100,12.240,368.300,60.980,12.330,3.370,357.300,101.600,28.620,8.445,hard
1288.000,288.600,63.670,14.360,1687.000,312.900,64.020,12.360,370.200,60.850,12.380,3.351,361.200,102.200,28.960,8.598,hard
1314.000,295.400,65.490,14.650,1708.000,315.200,64.720,12.500,368.500,61.180,12.490,3.389,368.200,104.300,29.580,8.744,hard
1345.000,302.500,67.050,15.010,1729.000,318.900,65.020,12.450,375.700,61.660,12.640,3.417,374.200,105.700,29.700,8.764,hard
1306.000,289.800,63.180,13.970,1651.000,305.500,62.420,12.000,374.400,61.030,12.400,3.362,355.100,100.500,28.180,8.268,hard
1247.000,281.200,61.220,13.730,1662.000,307.200,62.610,12.050,369.400,59.810,12.250,3.319,352.400,99.790,28.190,8.253,hard
1258.000,281.800,61.950,13.920,1670.000,308.500,63.070,12.210,364.600,60.040,12.280,3.333,356.500,100.900,28.360,8.376,hard
1265.000,282.700,61.730,13.820,1655.000,305.200,62.390,12.020,367.100,60.470,12.250,3.338,352.700,99.450,28.020,8.279,bogus
1251.000,280.700,61.500,13.800,1663.000,307.700,62.490,12.140,362.300,60.340,12.280,3.314,352.500,99.650,28.170,8.322,bogus
1265.000,283.300,62.430,14.030,1673.000,310.000,63.210,12.210,367.500,60.390,12.310,3.321,356.500,100.800,28.370,8.356,bogus
1280.000,286.400,62.840,14.010,1683.000,310.400,63.150,12.250,370.200,60.550,12.250,3.321,355.700,101.000,28.440,8.408,bogus
1284.000,288.600,63.290,14.290,1692.000,312.000,63.600,12.370,364.800,61.120,12.330,3.353,359.400,102.100,28.680,8.514,bogus
1296.000,292.700,64.900,14.420,1684.000,310.900,63.050,12.160,367.900,60.330,12.270,3.315,362.500,102.700,29.070,8.560,hard
1303.000,293.200,64.630,14.480,1685.000,309.500,63.440,12.200,372.300,60.270,12.280,3.335,361.800,103.200,29.160,8.624,hard
1315.000,296.700,65.500,14.750,1704.000,312.800,63.820,12.390,366.700,60.570,12.340,3.339,366.000,104.100,29.470,8.715,hard
1342.000,303.000,66.810,15.080,1716.000,316.400,64.950,12.460,371.300,61.680,12.370,3.351,372.100,105.600,29.900,8.889,hard
1370.000,309.200,68.470,15.300,1715.000,312.900,63.290,12.170,380.500,61.510,12.500,3.367,372.600,105.000,29.400,8.632,hard
1289.000,287.800,63.210,14.050,1654.000,304.000,62.120,11.980,371.700,60.390,12.160,3.302,354.900,100.800,28.260,8.368,hard
1267.000,285.300,63.010,14.010,1664.000,306.000,62.210,12.010,367.000,60.270,12.160,3.290,355.900,101.300,28.590,8.375,hard
1278.000,287.500,64.020,14.250,1677.000,307.600,62.780,12.110,365.500,60.510,12.270,3.295,357.900,101.900,28.690,8.483,hard
1293.000,289.700,63.780,14.250,1670.000,307.700,62.470,12.140,362.900,60.330,12.150,3.282,358.300,102.100,28.770,8.472,hard
1294.000,291.400,64.400,14.370,1686.000,311.300,63.350,12.240,369.200,60.170,12.270,3.306,360.700,102.700,28.940,8.566,hard
1319.000,296.800,66.270,14.800,1701.000,313.200,64.070,12.390,370.400,61.040,12.330,3.318,366.600,103.900,29.430,8.754,hard
1350.000,303.500,67.390,15.120,1719.000,316.700,64.150,12.350,372.100,60.850,12.380,3.385,371.700,105.400,29.700,8.800,hard
1318.000,293.400,63.700,14.240,1656.000,302.800,61.540,11.930,371.300,60.430,12.230,3.285,354.700,100.500,28.320,8.307,hard
1259.000,283.400,62.570,13.910,1657.000,304.500,61.990,11.970,364.500,59.770,12.070,3.266,353.200,100.500,28.190,8.297,hard
1268.000,285.900,62.780,14.080,1664.000,306.400,62.570,12.070,362.400,60.090,12.090,3.269,354.200,100.800,28.500,8.373,hard
1285.000,289.700,63.800,14.210,1668.000,307.500,62.310,12.040,367.700,60.080,12.130,3.285,357.200,101.300,28.520,8.417,hard
1285.000,287.700,63.690,14.300,1674.000,307.300,62.700,12.140,366.300,59.940,12.160,3.288,358.000,101.600,28.670,8.527,hard
1304.000,293.300,64.910,14.490,1693.000,311.200,63.670,12.330,370.300,59.800,12.160,3.314,362.600,102.800,28.990,8.641,hard
1331.000,299.600,66.350,14.900,1702.000,313.800,64.090,12.440,369.400,60.610,12.300,3.345,367.500,104.600,29.680,8.780,hard
1353.000,303.400,66.380,14.680,1677.000,307.400,62.090,11.980,373.900,61.570,12.410,3.311,362.700,102.100,28.520,8.372,hard
1264.000,283.900,62.210,13.860,1647.000,303.900,61.710,11.900,367.100,59.680,12.040,3.243,351.300,100.300,27.970,8.268,hard
1261.000,282.800,62.430,13.900,1656.000,304.100,62.320,11.940,364.800,59.750,12.020,3.257,353.100,99.990,28.170,8.351,hard
1278.000,287.700,63.220,14.220,1669.000,305.500,62.580,12.010,370.000,60.020,12.100,3.285,354.800,101.000,28.420,8.413,hard
1283.000,287.900,63.460,14.150,1661.000,306.200,62.560,12.060,365.700,59.780,12.120,3.278,355.800,101.100,28.630,8.431,hard
1293.000,290.200,64.340,14.430,1681.000,308.800,63.060,12.230,370.300,59.820,12.210,3.299,359.200,102.300,28.900,8.527,hard
1316.000,298.200,65.290,14.770,1697.000,312.200,63.940,12.340,368.900,60.720,12.250,3.334,365.200,103.700,29.300,8.660,hard
1343.000,303.000,66.680,14.970,1702.000,311.900,63.020,12.080,372.300,61.400,12.310,3.330,367.000,103.800,29.120,8.499,hard
1282.000,287.000,62.560,13.900,1639.000,302.400,61.670,11.870,373.800,59.970,12.130,3.269,352.600,99.870,28.150,8.267,hard
1259.000,283.500,62.140,13.910,1651.000,304.300,61.930,11.990,363.700,59.550,11.990,3.273,350.700,100.100,28.370,8.335,hard
1273.000,287.400,63.160,14.110,1665.000,306.300,62.590,12.050,368.300,59.880,12.110,3.277,355.600,101.000,28.570,8.408,hard
1286.000,289.300,63.880,14.180,1663.000,306.500,62.520,12.020,365.700,60.680,12.100,3.290,355.400,101.100,28.510,8.432,hard
1288.000,289.000,63.900,14.360,1676.000,308.500,62.590,12.160,363.800,60.100,12.080,3.295,357.900,101.800,28.820,8.533,hard
1308.000,295.900,65.290,14.700,1690.000,311.500,63.240,12.290,371.200,60.810,12.220,3.306,362.600,103.200,29.190,8.674,hard
1336.000,301.400,66.690,15.040,1704.000,313.300,63.970,12.310,370.700,60.740,12.270,3.341,369.300,104.700,29.600,8.695,hard
1314.000,292.500,63.950,14.150,1648.000,302.900,61.600,11.870,371.600,60.490,12.120,3.293,354.000,99.690,28.200,8.253,hard
1253.000,282.300,62.250,13.960,1646.000,303.000,61.830,11.950,359.100,59.070,12.000,3.237,349.800,99.550,28.040,8.276,hard
1262.000,286.600,62.640,13.990,1657.000,305.500,62.040,12.000,362.600,59.870,12.080,3.252,353.000,100.400,28.270,8.356,hard
1282.000,286.600,63.160,14.180,1661.000,305.300,62.440,12.040,363.800,60.340,12.050,3.289,355.200,100.900,28.360,8.391,hard
1283.000,290.200,63.600,14.230,1658.000,307.400,62.530,12.140,369.900,59.970,12.020,3.283,355.900,101.000,28.480,8.462,hard
1299.000,293.700,64.880,14.540,1681.000,310.800,63.340,12.240,367.100,59.710,12.120,3.310,362.000,102.800,29.150,8.629,hard
1325.000,301.300,66.370,14.930,1697.000,313.300,63.920,12.370,369.100,60.790,12.250,3.323,367.200,104.500,29.610,8.810,hard
1353.000,304.900,67.560,14.850,1680.000,306.500,62.130,11.960,373.300,60.540,12.290,3.339,363.200,102.300,28.860,8.400,hard
1264.000,282.900,62.550,13.870,1639.000,301.600,61.660,11.910,361.700,59.470,12.020,3.257,349.900,99.310,27.960,8.239,hard
1256.000,283.300,62.440,13.870,1647.000,303.100,61.690,11.970,365.900,59.540,11.970,3.225,351.400,100.100,28.150,8.305,hard
1267.000,284.400,63.160,14.100,1657.000,306.400,62.110,12.050,364.800,59.380,12.030,3.256,353.600,100.400,28.430,8.386,hard
1279.000,288.100,63.130,14.160,1662.000,304.500,62.320,12.050,367.500,59.470,12.040,3.276,354.900,100.800,28.400,8.423,hard
1284.000,290.500,63.910,14.380,1672.000,307.400,62.660,12.190,363.400,59.820,12.090,3.269,358.600,101.900,28.860,8.568,hard
1308.000,295.100,65.410,14.680,1685.000,311.200,63.450,12.280,362.600,60.450,12.200,3.300,364.200,103.500,29.390,8.695,hard
1336.000,302.500,66.920,15.030,1707.000,313.200,64.070,12.320,370.400,60.980,12.330,3.342,369.800,105.100,29.540,8.771,hard
1324.000,296.300,64.390,14.290,1645.000,302.900,61.540,11.810,374.700,60.640,12.160,3.279,355.100,100.300,28.310,8.303,hard
1251.000,282.600,61.870,13.890,1646.000,302.400,61.640,11.880,362.000,59.340,11.930,3.257,350.100,99.680,28.130,8.261,hard
1258.000,283.600,62.030,13.910,1645.000,304.400,62.010,11.980,362.900,58.990,11.970,3.255,352.300,100.100,28.270,8.381,hard
1276.000,288.600,63.610,14.250,1656.000,305.100,62.420,12.020,364.700,59.370,12.060,3.260,354.900,101.100,28.560,8.382,hard
1280.000,288.000,63.630,14.270,1661.000,307.000,62.570,12.070,364.500,59.800,12.120,3.271,356.400,101.500,28.700,8.454,hard
1296.000,291.800,65.030,14.480,1684.000,309.700,63.310,12.260,365.300,60.420,12.140,3.287,362.500,103.300,29.150,8.614,hard
1323.000,298.700,66.440,14.880,1698.000,312.600,64.020,12.370,375.000,60.910,12.280,3.320,368.500,104.200,29.570,8.811,hard
1351.000,304.700,68.170,15.260,1706.000,314.000,63.700,12.140,375.300,61.080,12.300,3.365,372.100,104.800,29.410,8.652,hard
1291.000,289.100,63.490,14.040,1645.000,302.000,61.580,11.880,369.200,60.320,12.090,3.272,352.800,99.890,28.220,8.343,hard
1258.000,284.200,62.550,13.960,1651.000,303.800,61.770,11.910,367.200,59.420,12.010,3.261,351.300,100.300,28.180,8.349,hard
1270.000,286.200,63.330,14.210,1664.000,304.800,62.290,12.030,362.800,59.900,12.060,3.279,356.200,101.900,28.480,8.456,hard
1289.000,290.200,64.230,14.350,1666.000,305.600,62.210,12.020,366.100,59.870,12.060,3.254,357.900,101.600,28.550,8.470,hard
1290.000,291.400,64.170,14.330,1677.000,307.800,63.180,12.190,367.400,60.130,12.150,3.283,360.800,102.100,28.870,8.612,hard
1311.000,296.600,65.600,14.770,1684.000,309.800,63.600,12.250,370.600,60.000,12.190,3.326,365.000,103.700,29.510,8.736,hard
1339.000,302.000,67.470,15.120,1712.000,314.200,64.180,12.430,370.900,61.070,12.370,3.340,371.100,105.800,30.000,8.881,hard
1361.000,304.200,67.090,14.700,1667.000,305.900,61.830,11.970,373.100,61.530,12.410,3.334,362.100,102.600,28.850,8.417,hard
1267.000,285.900,62.960,14.020,1645.000,302.900,61.850,11.900,363.600,59.740,11.990,3.266,353.400,100.800,28.490,8.374,hard
1272.000,285.600,63.560,14.210,1665.000,305.000,62.070,12.070,365.800,59.740,12.030,3.254,357.300,101.900,28.700,8.476,hard
1292.000,291.800,64.610,14.450,1672.000,308.400,62.650,12.100,367.000,60.190,12.160,3.297,360.200,102.500,28.960,8.557,hard
1299.000,291.500,64.760,14.470,1672.000,307.500,62.550,12.150,370.000,60.180,12.200,3.289,360.600,102.700,28.970,8.607,hard
1310.000,297.000,65.730,14.720,1689.000,309.800,63.340,12.240,366.300,60.820,12.200,3.314,363.800,103.800,29.420,8.713,hard
1335.000,302.000,67.020,15.050,1698.000,315.100,63.820,12.380,369.700,60.750,12.340,3.298,370.100,105.300,29.830,8.816,hard
1362.000,307.700,68.340,15.330,1709.000,313.100,63.310,12.210,372.100,60.840,12.400,3.355,373.300,105.900,29.670,8.699,hard
1298.000,291.000,63.700,14.210,1647.000,301.400,61.500,11.930,372.500,60.040,12.140,3.265,355.200,100.800,28.310,8.400,hard
1267.000,285.500,63.370,14.220,1654.000,302.700,61.970,11.950,368.700,59.560,12.030,3.252,355.600,100.900,28.470,8.422,hard
1281.000,289.100,64.160,14.370,1669.000,306.700,62.600,12.100,368.800,59.570,12.100,3.270,358.400,101.900,28.840,8.541,hard
1300.000,293.100,64.420,14.420,1675.000,306.900,62.350,12.050,368.000,59.910,12.130,3.268,360.200,102.800,28.970,8.562,hard
1305.000,295.600,65.540,14.690,1686.000,310.400,62.920,12.210,365.400,59.990,12.180,3.288,363.000,103.100,29.300,8.656,hard
1332.000,302.000,66.610,15.060,1702.000,314.900,64.340,12.430,372.300,60.650,12.250,3.326,367.400,105.100,29.740,8.831,hard
1367.000,310.100,68.750,15.470,1729.000,317.800,65.260,12.570,372.500,61.290,12.360,3.347,375.000,106.400,30.160,8.946,hard
1388.000,309.000,67.840,14.970,1677.000,306.400,62.290,11.920,373.600,61.160,12.380,3.344,363.100,102.400,28.850,8.484,hard
1276.000,287.600,63.400,14.190,1648.000,303.200,61.850,11.970,365.500,59.400,12.100,3.245,354.700,100.800,28.400,8.387,hard
1276.000,288.000,63.320,14.220,1659.000,304.500,62.380,11.960,360.400,59.900,12.090,3.247,356.200,101.400,28.480,8.458,hard
1292.000,293.500,64.640,14.470,1668.000,308.400,62.530,12.040,365.600,60.340,12.090,3.262,359.000,102.000,28.660,8.497,hard
1299.000,293.800,64.550,14.460,1676.000,307.300,62.580,12.080,367.600,60.020,12.080,3.258,358.400,102.200,28.800,8.580,hard
1311.000,296.400,65.650,14.730,1688.000,310.400,63.440,12.240,369.500,60.320,12.140,3.275,363.300,103.400,29.230,8.694,hard
1343.000,304.300,67.270,15.120,1709.000,315.900,64.520,12.440,367.000,60.430,12.210,3.323,369.200,105.000,29.740,8.824,hard
1375.000,313.800,69.390,15.480,1730.000,317.500,64.780,12.380,367.900,60.660,12.440,3.343,374.600,106.200,29.920,8.842,hard
1331.000,295.100,64.430,14.390,1659.000,303.900,61.260,11.930,371.200,60.750,12.140,3.284,356.300,101.500,28.360,8.340,hard
1265.000,285.800,63.100,14.050,1651.000,303.900,61.500,11.890,363.900,59.850,12.010,3.244,353.300,100.600,28.350,8.339,hard
1274.000,287.100,63.720,14.180,1663.000,304.800,61.950,11.970,362.100,59.990,12.020,3.242,355.200,101.000,28.380,8.468,hard
1293.000,291.100,64.410,14.410,1665.000,306.600,62.190,11.980,367.300,59.680,12.010,3.261,358.100,101.800,28.620,8.459,hard
1293.000,291.000,64.390,14.410,1669.000,307.500,62.260,12.110,364.800,59.850,12.140,3.262,360.000,102.200,28.930,8.528,hard
1311.000,297.000,65.450,14.720,1687.000,310.000,63.280,12.200,365.100,60.090,12.110,3.284,364.400,103.300,29.350,8.713,hard
1343.000,302.200,67.570,15.190,1708.000,314.500,64.330,12.390,370.600,60.670,12.290,3.300,370.700,105.100,29.800,8.828,hard
1375.000,311.300,68.720,15.320,1708.000,311.200,63.240,12.090,376.600,61.420,12.360,3.330,371.900,105.100,29.450,8.595,hard
1293.000,289.400,63.020,14.110,1647.000,301.700,61.330,11.890,367.600,59.590,12.010,3.250,353.700,100.400,28.250,8.387,hard
1270.000,285.800,62.700,14.130,1657.000,304.600,61.630,11.920,364.600,59.720,12.010,3.246,355.600,101.100,28.360,8.411,hard
1283.000,290.700,63.820,14.380,1665.000,306.000,62.380,12.020,363.600,59.360,12.090,3.250,358.300,101.700,28.670,8.465,hard
1300.000,291.900,64.410,14.380,1667.000,305.300,62.260,11.970,366.100,59.600,12.110,3.282,358.600,101.900,28.770,8.498,hard
1301.000,293.300,64.880,14.450,1676.000,308.700,62.720,12.120,364.000,60.420,12.110,3.264,362.400,102.900,29.030,8.586,hard
1326.000,299.600,66.620,14.930,1698.000,311.300,63.360,12.300,371.200,60.280,12.170,3.301,366.500,104.000,29.520,8.723,hard
1353.000,307.400,67.700,15.200,1723.000,316.000,64.070,12.430,379.900,61.180,12.210,3.326,372.200,105.700,29.870,8.900,hard
1360.000,304.000,66.130,14.670,1658.000,303.900,61.370,11.800,375.700,60.800,12.240,3.303,360.500,101.900,28.590,8.410,hard
1269.000,284.700,62.770,14.080,1646.000,302.900,61.840,11.840,368.200,59.690,12.030,3.226,353.900,100.900,28.430,8.409,hard
1279.000,288.500,63.870,14.220,1658.000,305.700,62.180,12.020,363.200,59.660,12.020,3.261,357.700,101.800,28.580,8.509,hard
1298.000,294.800,64.620,14.450,1670.000,306.900,62.210,11.980,363.400,60.050,12.100,3.249,360.100,101.900,28.730,8.498,hard
1298.000,292.300,64.510,14.410,1667.000,307.900,62.290,12.090,368.200,59.950,12.090,3.257,360.600,102.400,28.830,8.555,hard
1314.000,297.000,65.630,14.760,1689.000,310.400,63.100,12.210,371.800,59.910,12.090,3.306,365.100,103.700,29.350,8.695,hard
1340.000,302.900,67.010,15.000,1704.000,313.100,63.770,12.360,373.100,60.510,12.260,3.326,370.000,105.000,29.820,8.847,hard
1367.000,310.500,68.490,15.250,1702.000,310.500,62.620,11.990,371.800,60.780,12.360,3.331,370.900,104.600,29.440,8.589,hard
1288.000,289.900,63.290,14.080,1638.000,301.100,61.160,11.760,366.800,59.540,12.020,3.247,353.600,100.100,28.210,8.316,hard
1267.000,285.900,63.300,14.070,1655.000,303.000,61.460,11.860,366.300,59.470,11.860,3.236,353.500,100.500,28.260,8.363,hard
1278.000,288.200,63.600,14.300,1663.000,306.500,61.700,11.980,365.500,59.820,11.970,3.249,357.300,101.300,28.540,8.466,hard
1293.000,290.700,64.110,14.390,1663.000,305.200,61.920,12.000,369.800,59.560,12.050,3.257,358.400,101.900,28.700,8.488,hard
1296.000,290.900,64.640,14.480,1673.000,306.400,62.620,12.090,361.400,59.750,12.060,3.259,359.900,102.500,29.030,8.581,hard
1321.000,297.600,66.340,14.880,1695.000,311.100,63.440,12.220,373.200,60.210,12.110,3.289,366.300,104.100,29.450,8.739,hard
1350.000,306.100,67.800,15.200,1703.000,313.700,64.070,12.390,368.100,60.920,12.300,3.307,371.200,105.400,29.880,8.940,hard
1368.000,306.700,67.080,14.780,1659.000,303.200,61.510,11.820,374.600,61.110,12.270,3.303,362.600,102.300,28.540,8.429,hard
1264.000,283.900,62.680,14.000,1638.000,300.800,61.330,11.800,369.100,59.340,12.000,3.226,352.700,100.600,28.220,8.319,hard
1265.000,284.200,62.530,14.030,1652.000,302.500,61.720,11.830,365.800,59.510,12.000,3.244,353.100,100.500,28.410,8.397,hard
1280.000,289.400,63.880,14.240,1665.000,305.700,61.730,11.990,366.600,59.650,11.950,3.228,356.200,101.400,28.540,8.409,hard
1288.000,290.500,64.000,14.350,1658.000,305.400,62.230,11.970,362.400,60.010,11.980,3.258,357.300,101.500,28.700,8.442,hard
1299.000,294.100,65.220,14.580,1674.000,307.500,62.520,12.110,367.900,59.690,12.070,3.267,361.000,102.500,28.960,8.586,hard
1325.000,299.900,66.260,14.940,1698.000,311.100,63.370,12.280,368.300,60.110,12.120,3.302,367.200,105.100,29.450,8.803,hard
1354.000,306.000,68.280,15.280,1717.000,313.600,63.920,12.320,371.400,61.120,12.180,3.335,373.100,105.700,29.870,8.799,hard
1331.000,295.200,64.330,14.330,1643.000,301.800,61.250,11.790,373.200,60.160,12.090,3.259,356.700,100.900,28.400,8.360,hard
1258.000,283.400,62.450,14.010,1644.000,301.400,61.050,11.790,363.000,59.360,11.960,3.225,352.500,100.300,28.100,8.352,hard
1268.000,284.600,63.330,14.230,1649.000,302.400,61.700,11.910,363.400,59.310,11.970,3.220,354.900,101.100,28.500,8.423,hard
1288.000,290.900,63.920,14.350,1669.000,303.500,61.830,11.910,363.200,59.760,12.060,3.256,359.000,101.400,28.540,8.472,hard
1291.000,291.400,64.030,14.420,1669.000,306.100,62.280,12.010,364.500,59.710,12.020,3.248,360.100,102.100,28.830,8.593,hard
1310.000,296.100,65.130,14.770,1684.000,308.200,63.090,12.150,370.300,59.930,12.090,3.281,365.300,103.500,29.380,8.725,hard
1338.000,302.800,67.490,15.130,1703.000,312.300,63.710,12.310,371.300,60.570,12.240,3.327,370.700,105.300,29.860,8.835,hard
1369.000,309.700,68.710,15.410,1721.000,315.000,63.750,12.270,374.600,60.630,12.350,3.333,375.400,106.600,29.900,8.806,hard
1323.000,295.300,64.510,14.330,1647.000,302.000,60.920,11.820,369.000,61.040,12.140,3.262,357.600,101.100,28.380,8.393,hard
1266.000,285.600,63.170,14.090,1650.000,302.500,61.360,11.820,368.200,59.540,11.970,3.232,356.100,100.900,28.560,8.368,hard
1280.000,290.800,63.910,14.390,1660.000,303.900,62.150,11.990,363.700,59.420,11.930,3.257,357.700,101.700,28.740,8.531,hard
1302.000,295.500,65.120,14.550,1667.000,304.700,62.130,11.990,366.300,60.080,12.060,3.299,360.300,102.500,28.850,8.523,hard
1301.000,293.900,65.200,14.600,1675.000,306.700,62.490,12.110,366.100,59.620,12.100,3.283,362.100,103.000,29.070,8.580,hard
1321.000,298.600,66.800,14.920,1691.000,310.400,62.920,12.210,368.300,60.010,12.140,3.299,367.300,104.500,29.560,8.762,hard
1350.000,306.300,67.820,15.270,1708.000,313.300,64.060,12.380,369.900,60.990,12.220,3.319,373.700,105.800,29.920,8.911,hard
1380.000,313.700,69.100,15.450,1697.000,309.500,62.400,11.950,375.900,60.970,12.320,3.332,372.400,105.100,29.400,8.642,hard
1291.000,291.700,63.770,14.170,1644.000,301.300,61.170,11.840,370.400,59.780,11.980,3.258,356.200,101.200,28.510,8.410,hard
1276.000,288.700,63.810,14.310,1653.000,302.300,61.680,11.890,367.200,59.290,12.050,3.247,356.200,101.700,28.670,8.491,hard
1296.000,293.900,65.320,14.560,1667.000,306.200,62.330,12.040,366.100,59.700,12.120,3.281,362.400,102.900,29.040,8.567,hard
1310.000,295.400,65.320,14.580,1671.000,304.900,62.100,12.030,366.100,59.930,12.160,3.281,361.900,102.800,28.910,8.584,hard
1314.000,295.700,65.770,14.810,1683.000,308.900,63.000,12.140,368.800,60.130,12.070,3.261,365.300,103.800,29.290,8.691,hard
1339.000,302.900,67.350,15.140,1699.000,311.200,63.660,12.280,371.200,60.680,12.160,3.323,371.800,105.300,29.830,8.917,hard
1370.000,309.500,68.940,15.510,1719.000,315.600,64.340,12.390,376.100,61.150,12.290,3.355,377.200,107.300,30.290,8.945,hard
1363.000,303.500,66.060,14.630,1652.000,302.900,61.590,11.810,377.700,60.870,12.280,3.298,360.300,102.100,28.650,8.439,hard
1271.000,286.400,63.390,14.130,1643.000,301.700,61.380,11.830,364.200,59.890,11.960,3.234,356.200,101.600,28.510,8.381,hard
1282.000,289.900,63.560,14.390,1662.000,304.200,62.040,11.920,365.700,59.710,12.070,3.240,359.600,102.300,28.850,8.530,hard
1305.000,294.600,65.270,14.610,1670.000,305.900,62.200,11.950,370.600,59.590,12.070,3.274,362.100,102.700,28.990,8.537,hard
1310.000,295.700,65.290,14.620,1674.000,307.200,62.670,12.100,367.500,59.900,11.990,3.272,363.300,103.200,29.130,8.644,hard
1326.000,300.000,66.610,14.930,1690.000,309.700,63.260,12.190,366.200,60.060,12.220,3.304,367.800,104.600,29.540,8.784,hard
1358.000,307.500,68.040,15.340,1715.000,315.000,64.080,12.400,371.900,60.910,12.270,3.324,375.200,106.200,30.280,8.962,hard
1391.000,315.400,70.300,15.720,1728.000,315.100,63.640,12.140,374.400,61.310,12.390,3.350,378.400,107.200,30.040,8.834,hard
1321.000,295.900,64.710,14.340,1651.000,302.100,61.140,11.820,368.400,60.400,12.130,3.252,358.200,101.400,28.400,8.406,hard
1275.000,288.100,63.660,14.310,1655.000,303.600,61.310,11.940,370.800,59.550,11.960,3.227,357.900,101.600,28.460,8.427,hard
1288.000,290.000,64.360,14.450,1662.000,305.200,61.880,11.960,367.600,59.830,11.980,3.266,361.200,102.400,28.890,8.584,hard
1308.000,294.400,64.790,14.580,1670.000,305.600,62.170,11.950,369.000,59.370,12.110,3.268,360.800,102.800,28.920,8.546,hard
1309.000,293.500,65.610,14.690,1682.000,307.600,62.540,12.020,368.100,59.700,12.090,3.265,364.300,103.500,29.310,8.662,hard
1332.000,301.500,66.620,15.050,1689.000,310.600,63.460,12.210,365.500,60.410,12.190,3.295,368.200,104.900,29.620,8.774,hard
1362.000,308.600,68.130,15.420,1713.000,315.000,64.160,12.380,368.000,61.170,12.270,3.313,375.000,106.500,30.060,8.974,hard
1391.000,314.900,68.700,15.320,1684.000,306.600,61.930,11.880,374.800,61.240,12.310,3.326,370.100,104.400,29.160,8.559,hard
1286.000,288.500,62.940,14.090,1645.000,301.300,61.160,11.740,367.000,59.780,12.050,3.232,356.000,101.300,28.440,8.379,hard
1276.000,287.600,63.480,14.210,1652.000,301.700,61.310,11.850,360.200,59.140,11.950,3.235,356.800,101.300,28.610,8.433,hard
1293.000,293.700,64.380,14.520,1666.000,304.000,61.960,11.940,363.100,59.520,12.060,3.249,360.500,102.500,28.870,8.519,hard
1305.000,294.500,65.230,14.450,1664.000,304.900,61.960,12.010,367.700,60.080,12.080,3.235,361.400,102.800,28.930,8.550,hard
1313.000,293.900,65.890,14.680,1686.000,307.400,62.450,12.100,369.500,59.840,12.110,3.257,366.300,103.900,29.150,8.696,hard
1337.000,303.000,66.760,15.100,1692.000,311.500,63.340,12.230,373.600,60.340,12.170,3.297,370.700,105.500,29.770,8.840,hard
1368.000,308.400,68.530,15.500,1717.000,315.000,64.340,12.370,373.100,60.700,12.290,3.333,377.000,106.800,30.220,8.943,hard
1373.000,306.700,67.250,14.750,1660.000,302.900,61.230,11.770,373.400,60.920,12.310,3.276,363.300,102.600,28.690,8.450,hard
1274.000,284.900,62.900,14.220,1644.000,301.700,60.990,11.870,362.900,59.540,12.000,3.233,356.500,101.500,28.550,8.384,hard
1284.000,289.400,64.020,14.370,1659.000,304.200,61.800,11.930,366.100,59.680,11.980,3.223,358.800,102.000,28.700,8.486,hard
1311.000,296.500,65.320,14.670,1670.000,306.600,62.560,12.030,370.000,59.770,12.070,3.271,361.300,102.800,28.950,8.549,hard
1315.000,297.600,65.300,14.720,1679.000,306.800,62.620,12.100,365.600,59.020,12.020,3.271,362.800,102.800,29.110,8.601,hard
1329.000,299.500,66.730,15.010,1694.000,310.200,63.030,12.220,366.800,59.620,12.170,3.267,367.100,104.500,29.510,8.750,hard
1354.000,306.600,68.330,15.310,1707.000,312.700,63.860,12.320,371.400,59.980,12.260,3.327,372.000,105.600,29.880,8.886,hard
1382.000,313.200,69.100,15.560,1705.000,308.800,62.500,11.980,370.200,61.260,12.270,3.331,373.300,105.300,29.340,8.638,hard
1295.000,289.200,63.780,14.210,1644.000,301.100,61.020,11.780,368.600,59.740,11.980,3.230,357.400,100.900,28.350,8.359,hard
1275.000,286.800,63.460,14.330,1656.000,302.600,61.460,11.860,367.200,59.110,11.940,3.240,357.200,101.200,28.410,8.444,hard
1294.000,292.100,64.640,14.590,1666.000,305.300,62.030,12.000,369.500,59.590,11.960,3.262,361.100,102.400,28.790,8.519,hard
1308.000,294.500,65.030,14.540,1660.000,304.900,61.910,11.940,370.700,59.480,12.060,3.256,360.800,102.200,28.880,8.507,hard
1310.000,296.000,65.580,14.730,1680.000,306.400,62.650,12.010,364.700,59.940,12.050,3.262,362.100,103.300,29.030,8.630,hard
1335.000,303.200,66.820,14.980,1697.000,309.800,63.360,12.200,367.400,60.590,12.100,3.280,369.000,105.000,29.590,8.763,hard
1363.000,309.300,68.900,15.390,1708.000,313.600,63.700,12.200,373.400,60.560,12.200,3.300,375.400,105.700,29.990,8.893,hard
1351.000,300.600,65.710,14.560,1645.000,300.500,60.930,11.710,374.300,60.390,12.150,3.286,358.600,101.500,28.480,8.381,hard
1264.000,284.900,62.870,14.140,1642.000,301.200,60.990,11.750,366.100,59.360,11.950,3.219,353.600,100.600,28.390,8.342,hard
1274.000,287.600,63.210,14.230,1646.000,302.200,61.110,11.840,363.500,59.330,11.940,3.222,355.900,101.500,28.410,8.404,hard
1291.000,292.000,64.970,14.430,1654.000,303.600,61.550,11.820,363.500,59.600,12.010,3.240,359.500,102.100,28.850,8.436,hard
1294.000,291.600,64.450,14.420,1661.000,304.600,61.850,11.880,365.800,59.940,11.940,3.236,359.500,102.400,28.880,8.501,hard
1309.000,294.700,65.390,14.750,1670.000,307.300,62.450,12.040,367.400,59.560,12.050,3.271,364.400,103.800,29.050,8.626,hard
1336.000,301.100,67.480,15.060,1697.000,310.900,63.410,12.250,368.000,60.220,12.120,3.297,370.000,105.000,29.780,8.834,hard
1366.000,308.500,69.250,15.370,1692.000,308.700,62.450,11.940,371.100,59.870,12.270,3.324,372.000,104.700,29.330,8.614,hard
1292.000,288.600,63.470,14.090,1632.000,298.700,60.840,11.700,363.300,59.890,12.030,3.225,353.800,100.500,28.260,8.349,hard
1262.000,285.400,62.360,14.000,1634.000,300.600,60.610,11.760,364.700,59.440,11.870,3.205,354.300,100.700,28.240,8.297,hard
1270.000,287.200,63.400,14.200,1649.000,302.400,61.360,11.840,361.700,59.420,11.910,3.209,356.300,101.400,28.600,8.412,hard
1287.000,290.800,64.270,14.330,1651.000,301.600,61.400,11.850,366.600,59.390,11.950,3.254,358.800,101.700,28.410,8.425,hard
1288.000,291.900,63.930,14.470,1657.000,304.700,61.960,12.020,366.400,59.540,11.980,3.245,361.300,101.700,28.870,8.549,hard
1310.000,296.500,65.570,14.730,1679.000,307.600,62.720,12.090,370.100,59.930,12.120,3.250,364.000,104.000,29.210,8.672,hard
1337.000,304.300,67.170,15.050,1692.000,310.100,63.190,12.210,368.000,60.950,12.150,3.295,370.000,105.200,29.630,8.792,hard
1361.000,305.400,67.080,14.800,1655.000,301.600,61.030,11.770,371.000,60.970,12.170,3.299,363.000,102.300,28.660,8.417,hard
1262.000,281.900,62.700,13.970,1629.000,299.400,60.820,11.710,363.500,59.340,11.880,3.209,352.800,100.100,28.180,8.309,hard
1262.000,283.400,62.620,14.060,1644.000,300.300,60.900,11.760,363.200,58.860,11.920,3.242,355.000,100.500,28.250,8.316,hard
1276.000,288.500,63.530,14.300,1647.000,302.200,61.390,11.860,367.000,59.290,11.920,3.234,356.800,101.300,28.450,8.403,hard
1282.000,289.200,63.950,14.260,1653.000,303.600,61.490,11.870,359.700,59.600,12.010,3.242,356.400,101.300,28.600,8.417,hard
1291.000,292.700,64.340,14.550,1660.000,306.000,61.980,12.000,360.600,59.950,12.010,3.242,360.900,102.500,28.930,8.557,hard
1316.000,297.300,65.770,14.790,1678.000,308.100,62.990,12.120,370.700,60.110,12.120,3.280,365.500,103.900,29.380,8.649,hard
1342.000,303.100,67.490,15.170,1690.000,308.400,62.760,12.080,372.000,60.180,12.190,3.293,371.100,105.000,29.440,8.645,hard
1299.000,289.700,63.820,14.110,1632.000,298.000,60.650,11.700,369.500,59.740,11.960,3.245,354.400,100.600,28.150,8.300,hard
1254.000,283.900,62.330,13.940,1634.000,300.500,60.840,11.760,360.900,58.960,11.820,3.242,352.300,100.800,28.170,8.327,hard
1267.000,287.100,63.500,14.200,1642.000,301.600,61.150,11.810,362.900,59.290,11.930,3.206,356.600,101.000,28.470,8.384,hard
1285.000,290.300,64.190,14.340,1654.000,302.400,61.380,11.780,367.000,59.810,12.010,3.238,357.400,101.200,28.440,8.399,hard
1285.000,290.900,64.170,14.310,1655.000,303.500,61.580,11.900,368.000,59.300,12.000,3.251,358.500,102.300,28.820,8.494,hard
1304.000,295.100,65.350,14.660,1662.000,305.300,62.050,12.040,368.900,59.720,12.040,3.273,362.800,103.200,29.070,8.640,hard
1329.000,301.800,66.710,14.970,1685.000,309.400,62.910,12.160,367.600,59.960,12.100,3.278,368.700,104.700,29.610,8.769,hard
1346.000,303.000,66.690,14.660,1642.000,300.300,60.560,11.660,368.200,60.090,12.180,3.285,360.200,101.800,28.460,8.333,hard
1252.000,281.700,62.620,13.870,1621.000,297.900,60.380,11.650,362.600,59.540,11.860,3.209,351.000,99.440,28.170,8.234,hard
1256.000,281.200,62.350,13.980,1626.000,299.200,60.770,11.750,359.000,58.720,11.850,3.210,352.600,100.100,28.130,8.316,hard
1271.000,287.800,63.120,14.190,1640.000,301.200,60.980,11.760,366.200,59.440,11.890,3.229,356.100,101.100,28.400,8.385,hard
1274.000,288.700,63.400,14.240,1640.000,302.000,61.300,11.840,364.600,58.590,11.920,3.222,356.300,101.000,28.370,8.412,hard
1285.000,290.200,64.370,14.430,1657.000,302.900,62.060,11.930,364.100,59.230,11.990,3.238,360.800,102.500,28.970,8.568,hard
1310.000,297.900,65.500,14.680,1667.000,306.200,62.400,12.100,362.300,59.580,12.100,3.285,366.800,103.900,29.300,8.731,hard
1337.000,302.100,67.020,15.030,1685.000,307.900,62.520,11.950,364.200,60.530,12.140,3.297,370.700,105.200,29.480,8.645,hard
1286.000,287.500,63.000,13.960,1620.000,296.400,60.330,11.660,363.800,59.320,11.970,3.238,352.700,99.930,28.030,8.275,hard
1245.000,279.600,62.520,13.780,1625.000,298.200,60.230,11.650,363.800,58.750,11.830,3.225,352.100,99.830,28.170,8.293,hard
1257.000,283.400,62.270,14.030,1635.000,299.600,60.930,11.770,363.900,58.620,11.760,3.209,353.800,100.900,28.370,8.376,hard
1271.000,286.500,63.330,14.150,1638.000,300.000,60.850,11.800,366.200,59.000,11.940,3.206,355.700,100.900,28.420,8.382,hard
1272.000,285.800,63.690,14.230,1646.000,301.600,61.310,11.760,361.700,59.140,11.930,3.244,358.000,101.600,28.680,8.412,hard
1291.000,292.600,64.640,14.470,1661.000,305.100,62.110,11.990,364.000,60.120,11.980,3.269,362.300,103.100,29.090,8.589,hard
1319.000,299.000,66.340,14.920,1679.000,308.000,63.040,12.200,368.500,60.450,12.080,3.274,369.100,104.800,29.450,8.781,hard
1349.000,304.600,67.260,14.880,1654.000,302.000,61.210,11.760,373.400,60.400,12.190,3.310,365.000,102.500,28.730,8.394,hard
1255.000,282.500,62.130,13.840,1626.000,297.100,60.650,11.700,362.400,59.300,11.920,3.234,351.400,100.000,27.990,8.269,hard
1251.000,284.800,62.690,13.980,1628.000,299.400,60.760,11.790,356.000,58.380,11.880,3.200,352.600,100.100,28.070,8.305,hard
1266.000,286.100,63.410,14.180,1642.000,301.100,61.300,11.870,362.500,59.880,11.900,3.221,355.000,101.200,28.380,8.383,hard
1280.000,289.100,64.390,14.260,1641.000,302.200,60.960,11.840,363.100,59.640,11.930,3.239,356.800,101.000,28.470,8.389,hard
1286.000,291.800,64.530,14.480,1662.000,304.900,61.880,11.980,364.500,59.610,11.950,3.261,358.800,102.200,28.960,8.518,hard
1314.000,298.100,66.000,14.780,1679.000,308.000,62.650,12.160,367.000,59.650,12.100,3.280,365.900,103.400,29.240,8.708,hard
1343.000,302.900,67.870,15.230,1698.000,311.500,63.280,12.200,371.100,59.590,12.180,3.314,370.300,105.400,29.740,8.808,hard
1342.000,299.900,65.410,14.400,1632.000,298.100,60.670,11.700,368.100,60.140,12.110,3.271,357.600,101.400,28.270,8.331,hard
1250.000,282.500,62.620,13.900,1624.000,298.500,60.750,11.660,361.400,59.510,11.850,3.214,351.300,99.670,28.030,8.270,hard
1258.000,285.300,62.700,14.080,1630.000,299.500,60.900,11.780,362.300,59.210,11.890,3.198,354.800,100.800,28.370,8.334,hard
1274.000,288.700,63.520,14.340,1642.000,300.700,61.080,11.780,360.400,59.220,11.920,3.243,356.800,101.100,28.430,8.401,hard
1275.000,289.500,63.050,14.300,1640.000,301.600,61.120,11.840,364.700,58.780,11.940,3.238,357.400,101.600,28.770,8.454,hard
1292.000,292.900,64.670,14.570,1661.000,304.400,61.890,11.990,364.300,59.490,12.030,3.250,362.700,103.100,29.090,8.597,hard
1322.000,300.200,66.780,15.000,1689.000,308.400,62.960,12.230,368.300,60.150,12.100,3.288,367.000,104.900,29.720,8.737,hard
1358.000,308.100,68.770,15.470,1700.000,311.700,62.960,12.050,370.900,60.690,12.250,3.307,372.900,105.600,29.660,8.706,hard
1302.000,291.400,63.970,14.250,1631.000,298.300,60.500,11.740,368.500,59.680,11.970,3.248,353.800,100.400,28.230,8.330,hard
1260.000,284.300,63.530,14.160,1635.000,301.100,61.010,11.780,365.000,59.220,11.870,3.220,353.800,100.900,28.380,8.398,hard
1276.000,287.500,64.040,14.350,1649.000,302.600,61.550,11.920,363.500,59.310,11.910,3.237,357.700,102.100,28.900,8.467,hard
1295.000,292.400,64.570,14.470,1652.000,302.100,61.410,11.870,365.000,59.560,12.060,3.244,360.300,102.400,28.890,8.504,hard
1293.000,292.500,65.160,14.560,1663.000,303.500,61.890,11.950,364.900,60.200,12.040,3.235,361.500,103.300,29.110,8.613,hard
1312.000,298.000,65.850,14.840,1664.000,305.900,62.270,12.000,365.500,60.650,12.070,3.282,367.000,104.800,29.520,8.721,hard
1331.000,301.900,67.230,15.060,1686.000,308.700,62.860,12.160,371.200,60.710,12.150,3.317,373.100,105.800,29.940,8.876,hard
1347.000,303.500,66.030,14.720,1648.000,299.400,60.900,11.730,373.700,60.460,12.170,3.299,361.600,102.300,28.530,8.418,hard
1258.000,284.700,62.910,14.020,1629.000,298.800,61.010,11.750,361.100,58.860,12.020,3.223,353.700,100.500,28.270,8.368,hard
1269.000,286.900,63.550,14.220,1647.000,301.900,61.270,11.790,363.000,59.340,11.940,3.235,354.900,101.100,28.570,8.432,hard
1288.000,292.000,64.920,14.490,1655.000,302.600,61.470,11.870,367.900,59.500,11.990,3.229,358.600,102.100,28.770,8.512,hard
1292.000,291.800,64.500,14.480,1659.000,302.600,61.590,11.930,364.800,59.470,11.990,3.252,360.300,102.400,28.820,8.554,hard
1305.000,296.900,65.430,14.780,1666.000,306.400,62.350,12.070,367.800,59.450,12.020,3.256,364.600,103.700,29.230,8.680,hard
1332.000,302.400,66.900,15.160,1686.000,310.000,62.870,12.200,368.200,59.920,12.070,3.298,369.200,105.400,29.660,8.852,hard
1363.000,307.700,68.650,15.390,1684.000,307.900,62.200,11.900,373.400,60.500,12.240,3.332,371.200,105.200,29.500,8.640,hard
