A-DC1,A-DC2,A-DC3,A-DC4,A-DC5,A-DC6,A-DC7,A-DC8,B-DC1,B-DC2,B-DC3,B-DC4,B-DC5,B-DC6,B-DC7,B-DC8,condition
1391.000,374.800,114.500,31.340,1373.000,307.100,96.980,22.340,225.500,63.440,19.650,6.297,400.300,112.600,38.670,12.910,baseline
1419.000,378.100,116.500,31.700,1394.000,309.900,97.770,22.550,225.900,63.440,19.770,6.320,402.000,113.500,38.940,13.030,baseline
1430.000,379.300,116.100,31.460,1384.000,307.900,97.290,22.410,227.200,63.830,19.730,6.312,399.400,112.800,38.490,12.800,baseline
1395.000,374.000,114.500,31.160,1377.000,306.700,97.110,22.370,225.100,63.840,19.710,6.288,398.800,112.600,38.360,12.690,baseline
1385.000,370.800,114.700,30.920,1371.000,306.100,96.770,22.310,225.800,63.280,19.760,6.278,398.200,112.200,38.430,12.640,baseline
1380.000,368.000,114.700,30.870,1372.000,305.600,96.810,22.380,225.400,63.280,19.720,6.276,397.500,112.400,38.400,12.700,baseline
1380.000,368.600,114.100,30.980,1368.000,305.000,96.720,22.360,223.700,63.520,19.680,6.298,397.600,112.100,38.360,12.690,baseline
1379.000,368.900,114.300,31.070,1369.000,305.500,96.910,22.420,224.100,63.450,19.760,6.277,398.800,112.100,38.440,12.750,baseline
1384.000,371.400,114.800,31.290,1370.000,305.500,97.130,22.460,223.500,63.490,19.790,6.297,399.100,112.900,38.580,12.780,baseline
1394.000,373.900,115.500,31.560,1374.000,307.100,97.570,22.570,224.600,63.440,19.780,6.313,400.500,113.200,38.730,12.880,baseline
1403.000,376.500,116.700,31.640,1375.000,307.500,97.830,22.620,223.600,63.560,19.780,6.329,400.600,113.400,38.990,12.940,baseline
1412.000,378.200,117.100,31.910,1379.000,308.200,97.950,22.650,225.400,63.560,19.850,6.335,402.500,114.000,39.060,13.020,baseline
1419.000,378.600,116.500,31.510,1366.000,305.900,97.150,22.440,224.000,63.650,19.850,6.304,399.700,113.000,38.570,12.790,baseline
1384.000,369.900,114.700,31.140,1365.000,304.600,96.800,22.360,223.700,63.510,19.690,6.264,397.800,112.700,38.300,12.660,baseline
1375.000,370.600,114.300,30.960,1357.000,304.500,96.310,22.320,225.500,63.380,19.720,6.267,398.300,112.600,38.310,12.640,baseline
1370.000,367.600,114.600,30.940,1355.000,303.200,96.520,22.300,223.700,63.330,19.740,6.257,398.300,112.600,38.390,12.680,baseline
1371.000,367.000,113.800,31.000,1352.000,302.800,96.570,22.360,222.900,63.710,19.720,6.261,397.600,112.400,38.340,12.680,baseline
1369.000,368.800,114.500,31.040,1357.000,303.800,96.650,22.390,225.200,63.390,19.700,6.279,397.600,112.600,38.470,12.750,baseline
1376.000,370.000,114.800,31.260,1357.000,304.500,96.940,22.410,224.600,63.620,19.710,6.292,399.400,113.000,38.520,12.800,baseline
1383.000,371.400,115.300,31.420,1363.000,304.600,96.990,22.510,225.800,63.520,19.730,6.305,399.600,112.900,38.620,12.870,baseline
1393.000,374.000,116.100,31.550,1366.000,305.600,97.360,22.560,225.100,63.810,19.780,6.307,400.700,113.400,38.860,12.930,baseline
1401.000,375.700,116.700,31.510,1363.000,304.200,96.860,22.380,224.900,63.780,19.770,6.311,399.300,112.600,38.610,12.710,baseline
1374.000,368.900,114.400,31.080,1356.000,302.400,96.510,22.360,224.600,63.570,19.730,6.261,397.300,112.500,38.340,12.660,baseline
1369.000,367.600,114.300,30.990,1355.000,302.100,96.320,22.330,224.400,63.370,19.720,6.263,396.400,112.300,38.130,12.610,baseline
1366.000,367.700,114.300,31.030,1353.000,303.300,96.490,22.380,223.700,63.470,19.650,6.259,397.400,112.400,38.330,12.660,baseline
1369.000,368.000,114.500,31.030,1352.000,303.200,96.570,22.360,223.600,63.440,19.700,6.271,397.300,112.200,38.330,12.620,baseline
1369.000,368.200,114.200,31.060,1354.000,303.100,96.610,22.420,222.200,63.470,19.700,6.263,397.200,112.500,38.280,12.660,baseline
1378.000,370.600,115.100,31.300,1357.000,303.700,97.020,22.480,223.900,63.560,19.750,6.282,398.900,112.900,38.510,12.750,baseline
1387.000,372.900,115.800,31.510,1360.000,304.500,97.200,22.520,225.400,63.380,19.750,6.309,399.300,113.200,38.530,12.840,baseline
1396.000,375.000,116.700,31.790,1368.000,305.600,97.540,22.580,225.900,63.590,19.790,6.303,400.800,113.600,38.750,12.890,baseline
1402.000,376.500,116.300,31.510,1357.000,304.000,96.690,22.390,225.000,63.790,19.730,6.281,398.900,112.700,38.290,12.650,baseline
1374.000,369.300,114.800,31.080,1351.000,302.900,96.370,22.350,225.100,63.260,19.680,6.252,397.100,112.100,38.130,12.580,baseline
1368.000,367.600,113.700,30.990,1350.000,302.100,96.250,22.280,224.800,63.240,19.650,6.242,397.000,112.000,38.130,12.570,baseline
1363.000,367.800,114.100,31.050,1350.000,302.300,96.490,22.350,223.400,63.520,19.720,6.259,396.900,112.400,38.140,12.550,baseline
1366.000,367.900,113.900,30.930,1349.000,302.800,96.440,22.390,224.700,63.360,19.680,6.272,396.800,112.200,38.140,12.570,baseline
1367.000,367.100,114.400,31.020,1351.000,302.500,96.490,22.440,225.400,63.660,19.700,6.279,397.500,112.400,38.170,12.620,baseline
1373.000,370.400,115.100,31.140,1358.000,302.600,96.710,22.490,223.700,63.300,19.760,6.290,398.800,112.800,38.460,12.700,baseline
1382.000,372.200,115.600,31.340,1358.000,303.500,96.810,22.540,224.600,63.670,19.790,6.303,400.900,113.100,38.570,12.770,baseline
1390.000,373.800,116.000,31.610,1361.000,304.300,96.900,22.590,225.500,63.740,19.790,6.325,401.200,113.100,38.730,12.810,baseline
1398.000,376.100,116.800,31.820,1373.000,306.000,97.270,22.590,224.800,63.670,19.870,6.347,402.100,114.000,38.850,12.880,baseline
1408.000,377.100,117.000,31.710,1363.000,304.800,96.660,22.410,226.500,63.980,19.890,6.335,401.400,113.300,38.590,12.710,baseline
1381.000,371.100,114.900,31.210,1354.000,303.100,96.330,22.370,224.800,63.720,19.760,6.292,399.300,113.000,38.350,12.600,baseline
1372.000,368.900,114.100,30.960,1349.000,302.500,96.220,22.310,224.900,63.460,19.730,6.288,399.200,112.600,38.280,12.530,baseline
1363.000,366.900,114.000,30.880,1349.000,302.100,96.350,22.280,225.100,63.430,19.750,6.291,399.200,112.800,38.290,12.560,baseline
1366.000,367.600,113.900,30.960,1348.000,302.300,96.150,22.400,223.700,63.700,19.790,6.314,399.600,112.600,38.180,12.540,baseline
1365.000,367.100,114.000,30.970,1351.000,301.700,96.290,22.430,226.800,63.690,19.760,6.315,399.800,112.900,38.270,12.600,baseline
1369.000,369.500,114.700,31.150,1348.000,302.400,96.360,22.470,224.600,63.970,19.830,6.330,400.500,113.200,38.470,12.660,baseline
1378.000,371.000,115.100,31.250,1357.000,303.200,96.640,22.510,224.400,63.840,19.820,6.348,402.000,113.600,38.600,12.740,baseline
1385.000,372.200,115.400,31.490,1361.000,304.200,96.750,22.560,224.300,63.910,19.890,6.368,403.200,113.600,38.670,12.780,baseline
1394.000,374.200,116.200,31.540,1366.000,304.900,97.010,22.570,226.700,63.820,19.970,6.383,403.400,114.300,38.830,12.860,baseline
1405.000,376.600,117.300,31.770,1366.000,305.000,97.050,22.560,226.900,64.340,20.050,6.402,405.400,114.400,38.840,12.860,baseline
1391.000,373.100,114.900,31.200,1358.000,303.400,96.570,22.370,226.900,64.200,19.940,6.352,402.300,113.500,38.530,12.650,baseline
1376.000,369.800,114.200,30.950,1352.000,302.100,96.180,22.370,225.200,63.630,19.930,6.338,401.600,113.300,38.470,12.560,baseline
1368.000,367.600,113.700,30.860,1351.000,302.400,96.090,22.350,224.900,63.400,19.880,6.351,400.500,113.200,38.290,12.570,baseline
1368.000,368.000,114.300,30.880,1353.000,301.900,96.090,22.400,227.400,64.110,19.950,6.351,401.300,113.100,38.430,12.560,baseline
1365.000,367.000,113.700,30.780,1351.000,302.300,96.220,22.390,226.300,64.010,19.880,6.385,401.600,113.200,38.430,12.560,baseline
1368.000,368.800,114.100,30.980,1354.000,302.000,96.360,22.420,225.900,63.990,19.930,6.386,401.900,113.500,38.560,12.650,baseline
1372.000,368.700,114.800,31.090,1354.000,302.600,96.460,22.460,226.500,64.030,19.980,6.422,403.000,113.900,38.670,12.710,baseline
1380.000,371.500,115.000,31.280,1360.000,303.400,96.570,22.480,226.200,63.920,20.010,6.415,403.600,113.900,38.780,12.770,baseline
1388.000,373.000,115.800,31.430,1364.000,303.800,96.840,22.580,227.400,63.920,20.030,6.419,404.100,114.300,38.840,12.830,baseline
1397.000,374.500,116.400,31.570,1365.000,304.500,97.000,22.520,226.900,64.290,20.020,6.437,405.100,114.200,38.790,12.760,baseline
1383.000,371.000,114.400,30.960,1355.000,302.000,96.180,22.370,226.800,64.290,19.950,6.384,402.900,113.500,38.480,12.590,baseline
1368.000,367.800,114.400,30.750,1351.000,301.500,96.020,22.250,225.700,63.900,19.900,6.382,402.100,113.000,38.320,12.570,baseline
1361.000,365.300,113.400,30.770,1348.000,301.700,95.960,22.350,226.000,64.340,19.960,6.393,401.000,113.000,38.360,12.590,baseline
1363.000,366.200,113.300,30.760,1348.000,301.500,95.910,22.340,226.600,64.020,19.990,6.399,401.700,113.200,38.420,12.560,baseline
1360.000,366.100,112.900,30.690,1348.000,301.700,96.080,22.370,225.400,63.910,19.980,6.409,401.400,113.100,38.450,12.610,baseline
1364.000,366.900,113.300,30.910,1348.000,301.200,96.190,22.370,225.200,64.380,19.980,6.409,402.200,113.300,38.460,12.640,baseline
1369.000,368.200,114.200,30.980,1353.000,302.600,96.220,22.440,225.900,64.240,20.000,6.421,403.700,113.500,38.530,12.720,baseline
1379.000,370.100,115.200,31.240,1355.000,302.800,96.500,22.480,225.900,63.980,20.050,6.440,403.300,113.900,38.630,12.750,baseline
1386.000,372.000,114.900,31.260,1359.000,302.500,96.770,22.480,226.300,64.080,20.060,6.462,405.300,114.200,38.790,12.830,baseline
1396.000,373.100,115.800,31.350,1358.000,302.600,96.230,22.330,228.200,64.420,20.070,6.450,403.600,113.900,38.640,12.660,baseline
1372.000,368.100,113.400,30.710,1349.000,300.200,95.750,22.270,226.100,64.040,20.010,6.405,402.400,112.800,38.250,12.540,baseline
1359.000,365.800,113.100,30.560,1343.000,299.300,95.600,22.210,224.200,63.960,19.920,6.401,400.600,112.500,38.110,12.450,baseline
1350.000,362.300,112.300,30.410,1343.000,300.000,95.550,22.260,226.300,63.760,19.950,6.406,399.300,112.600,38.130,12.470,baseline
1351.000,363.200,112.400,30.400,1338.000,299.500,95.430,22.210,224.800,63.680,19.940,6.398,400.300,112.200,38.170,12.490,baseline
1349.000,363.300,112.200,30.470,1336.000,299.300,95.270,22.240,224.800,63.860,19.920,6.412,399.300,112.300,38.050,12.490,baseline
1352.000,364.000,112.200,30.540,1344.000,300.200,95.760,22.280,226.200,63.850,19.970,6.408,400.300,112.600,38.180,12.560,baseline
1359.000,366.600,113.300,30.730,1345.000,299.700,95.930,22.300,225.100,63.780,19.960,6.407,400.500,112.900,38.350,12.600,baseline
1368.000,368.600,113.700,30.850,1352.000,301.200,96.190,22.380,225.700,64.010,20.020,6.441,400.900,112.900,38.370,12.680,baseline
1376.000,370.000,114.700,31.010,1350.000,301.800,96.140,22.420,225.400,63.650,20.060,6.437,402.000,113.300,38.500,12.740,baseline
1384.000,371.000,115.200,31.180,1361.000,302.400,96.550,22.460,226.200,63.900,20.030,6.453,402.900,113.500,38.690,12.760,baseline
1398.000,375.000,116.300,31.380,1359.000,302.800,96.140,22.400,226.600,64.020,20.040,6.469,402.600,113.600,38.620,12.680,baseline
1376.000,368.200,113.300,30.580,1346.000,300.200,95.550,22.230,224.800,63.810,19.970,6.407,399.200,112.200,38.070,12.490,baseline
1358.000,363.900,112.800,30.310,1339.000,298.900,95.010,22.130,223.400,63.630,19.900,6.383,397.900,111.600,37.800,12.380,baseline
1346.000,361.600,111.900,30.160,1335.000,298.500,94.940,22.110,224.000,63.720,19.850,6.357,396.400,111.200,37.820,12.380,baseline
1344.000,362.700,111.500,30.200,1333.000,297.700,94.790,22.060,223.300,63.370,19.870,6.378,396.200,111.300,37.740,12.350,baseline
1338.000,360.000,111.200,30.110,1331.000,297.800,94.580,22.020,223.200,63.250,19.890,6.356,395.300,111.100,37.730,12.400,baseline
1341.000,360.300,111.700,30.250,1332.000,297.200,94.540,22.070,226.000,63.100,19.830,6.364,395.300,111.400,37.720,12.440,baseline
1347.000,362.700,112.200,30.340,1338.000,298.400,94.520,22.130,223.700,63.340,19.850,6.386,396.700,111.700,37.930,12.510,baseline
1356.000,365.800,112.600,30.560,1341.000,298.500,95.110,22.170,221.800,63.460,19.860,6.390,396.300,111.700,38.060,12.570,baseline
1365.000,366.200,113.400,30.700,1343.000,299.200,95.230,22.150,224.100,63.520,19.860,6.400,397.900,111.800,38.130,12.620,baseline
1372.000,367.600,113.800,30.910,1349.000,300.500,95.290,22.190,224.100,63.590,19.850,6.416,399.100,112.400,38.350,12.700,baseline
1384.000,370.500,114.800,31.040,1352.000,300.400,95.230,22.100,224.200,63.660,19.950,6.426,399.100,112.500,38.300,12.620,baseline
1367.000,365.700,112.900,30.400,1336.000,296.800,94.280,21.980,224.800,63.280,19.830,6.374,395.600,111.400,37.870,12.410,baseline
1348.000,360.500,111.500,30.110,1331.000,296.200,94.030,21.890,225.400,63.090,19.740,6.346,393.900,111.000,37.580,12.340,baseline
1338.000,359.400,110.900,30.020,1328.000,295.300,93.390,21.920,223.000,63.200,19.730,6.337,393.300,110.600,37.540,12.320,baseline
1339.000,359.500,111.200,30.100,1329.000,295.900,93.530,21.820,224.600,63.250,19.680,6.348,392.500,110.700,37.490,12.360,baseline
1336.000,359.000,111.200,30.040,1324.000,295.200,93.580,21.890,222.700,63.280,19.670,6.348,392.500,110.400,37.660,12.370,baseline
1338.000,358.800,111.500,30.120,1327.000,295.800,93.530,21.890,223.500,62.930,19.730,6.342,392.900,110.500,37.600,12.420,baseline
1345.000,359.600,111.900,30.270,1332.000,295.700,93.810,21.980,223.100,63.060,19.730,6.342,393.700,110.800,37.790,12.450,baseline
1355.000,362.500,112.400,30.460,1339.000,297.600,94.010,22.020,223.800,63.010,19.750,6.358,394.200,110.900,37.940,12.530,baseline
1363.000,364.200,113.000,30.710,1342.000,298.100,94.550,22.030,223.500,63.270,19.770,6.359,394.600,111.600,38.150,12.600,baseline
1374.000,367.700,113.700,30.850,1342.000,298.500,94.280,22.060,224.000,63.250,19.850,6.378,395.900,111.800,37.960,12.540,baseline
1364.000,363.000,112.100,30.320,1331.000,295.600,93.620,21.870,224.100,62.900,19.720,6.339,392.800,110.500,37.570,12.370,baseline
1343.000,360.200,111.400,30.040,1330.000,295.000,93.440,21.800,222.600,63.180,19.710,6.308,391.500,110.000,37.430,12.270,baseline
1337.000,359.800,110.900,29.890,1327.000,295.200,93.380,21.850,223.100,62.850,19.640,6.298,390.600,109.900,37.440,12.320,baseline
1339.000,359.500,111.100,30.040,1325.000,294.800,93.300,21.860,222.000,62.810,19.690,6.307,391.500,109.900,37.340,12.260,baseline
1335.000,358.000,110.800,29.980,1326.000,294.300,93.360,21.810,222.500,62.840,19.690,6.313,389.300,109.700,37.440,12.290,baseline
1337.000,358.800,111.000,30.140,1324.000,295.600,93.690,21.870,222.100,62.820,19.650,6.313,390.400,110.000,37.400,12.330,baseline
1345.000,359.800,111.600,30.310,1329.000,296.600,93.880,21.910,222.400,63.020,19.670,6.328,392.000,110.200,37.570,12.430,baseline
1354.000,362.400,112.100,30.500,1336.000,297.000,93.970,21.980,222.300,63.030,19.700,6.328,392.900,110.500,37.760,12.500,baseline
1365.000,365.500,112.900,30.670,1341.000,297.300,94.090,22.010,224.600,62.920,19.770,6.347,393.700,111.100,37.900,12.560,baseline
1372.000,364.900,112.900,30.570,1333.000,295.700,93.560,21.790,222.600,62.870,19.750,6.329,392.000,110.100,37.450,12.300,baseline
1341.000,358.400,111.100,29.970,1325.000,294.500,93.240,21.690,222.100,62.840,19.640,6.276,389.200,109.400,37.160,12.200,baseline
1332.000,356.300,110.000,29.760,1321.000,293.800,93.040,21.700,220.600,63.060,19.590,6.278,388.700,108.800,37.060,12.140,baseline
1325.000,355.200,109.600,29.700,1320.000,293.200,93.260,21.700,221.600,62.630,19.580,6.286,387.700,109.100,37.090,12.170,baseline
1327.000,356.400,109.900,29.600,1318.000,292.900,93.240,21.680,221.700,62.620,19.570,6.275,387.600,109.000,37.010,12.130,baseline
1326.000,355.100,109.800,29.680,1322.000,293.700,93.140,21.750,220.600,62.600,19.630,6.266,387.800,109.100,37.100,12.210,baseline
1331.000,356.000,110.700,29.850,1323.000,294.100,93.310,21.810,221.100,62.550,19.610,6.287,388.200,109.100,37.210,12.280,baseline
1340.000,359.100,111.100,30.090,1327.000,295.400,93.660,21.840,223.000,62.980,19.660,6.318,388.800,109.600,37.350,12.380,baseline
1348.000,361.600,111.800,30.280,1331.000,295.400,93.870,21.880,220.800,63.070,19.700,6.337,390.300,109.900,37.490,12.410,baseline
1358.000,362.300,112.500,30.460,1338.000,296.700,94.200,21.910,222.600,62.970,19.720,6.320,391.500,110.400,37.550,12.490,baseline
1364.000,361.500,111.800,30.190,1331.000,294.600,93.610,21.770,223.000,62.990,19.710,6.306,388.300,109.300,37.160,12.200,baseline
1333.000,356.900,110.400,29.680,1323.000,293.000,93.130,21.620,221.400,62.660,19.630,6.276,387.100,108.800,36.840,12.100,baseline
1324.000,354.500,108.800,29.500,1320.000,292.700,92.840,21.600,222.100,62.440,19.610,6.257,385.800,108.200,36.660,12.060,baseline
1318.000,354.700,109.000,29.430,1318.000,293.500,92.740,21.630,220.500,62.770,19.630,6.270,386.000,108.500,36.780,12.090,baseline
1318.000,352.400,108.900,29.400,1316.000,292.600,92.680,21.640,220.600,62.780,19.600,6.286,385.800,108.200,36.740,12.060,baseline
1318.000,352.900,108.800,29.480,1319.000,292.500,93.150,21.700,221.900,62.570,19.610,6.290,386.300,108.400,36.870,12.110,baseline
1323.000,353.400,109.800,29.590,1325.000,293.300,93.180,21.800,220.900,62.590,19.650,6.307,387.000,108.700,36.880,12.160,baseline
1331.000,356.000,110.300,29.790,1327.000,293.700,93.360,21.870,223.300,62.610,19.670,6.301,387.600,108.900,37.150,12.250,baseline
1339.000,357.800,111.100,29.980,1330.000,295.000,93.740,21.870,223.200,62.730,19.670,6.324,389.000,109.400,37.220,12.300,baseline
1347.000,359.800,111.400,30.140,1338.000,295.900,93.840,21.970,222.000,62.930,19.700,6.332,389.900,110.000,37.440,12.360,baseline
1357.000,361.500,111.600,30.210,1329.000,294.300,93.460,21.790,222.900,63.010,19.730,6.321,389.700,109.200,37.160,12.190,baseline
1333.000,354.900,110.000,29.520,1324.000,293.400,92.850,21.720,222.400,62.780,19.680,6.293,387.200,108.300,36.900,12.050,baseline
1321.000,352.000,109.100,29.340,1317.000,292.500,92.900,21.690,224.900,62.630,19.640,6.270,386.200,108.200,36.770,12.000,baseline
1313.000,351.300,108.300,29.270,1318.000,294.100,93.250,21.650,222.100,62.810,19.630,6.283,386.400,108.300,36.780,12.050,baseline
1315.000,353.700,108.600,29.290,1323.000,294.600,93.260,21.710,221.600,62.620,19.610,6.293,386.100,108.200,36.690,12.010,baseline
1315.000,351.400,108.500,29.270,1322.000,293.000,93.050,21.740,223.300,62.820,19.650,6.283,387.000,108.000,36.700,12.050,baseline
1320.000,353.600,108.900,29.420,1323.000,294.600,93.350,21.810,223.600,62.780,19.630,6.316,388.000,108.600,36.800,12.110,baseline
1327.000,356.300,109.300,29.720,1330.000,295.500,93.740,21.870,223.800,62.960,19.680,6.325,388.100,108.600,36.950,12.180,baseline
1337.000,356.700,110.300,29.890,1332.000,296.800,94.180,22.050,223.700,63.180,19.740,6.328,389.500,108.900,37.220,12.230,baseline
1348.000,361.600,111.700,30.120,1340.000,298.200,94.800,22.120,222.800,63.070,19.760,6.350,390.700,109.700,37.390,12.330,baseline
1359.000,362.100,111.400,30.040,1336.000,297.300,94.160,21.990,224.000,63.360,19.800,6.346,390.100,109.000,37.040,12.130,baseline
1337.000,356.600,110.200,29.700,1329.000,296.100,93.860,21.890,224.900,63.030,19.740,6.306,389.200,108.700,36.930,12.050,baseline
1331.000,353.800,109.500,29.640,1330.000,296.500,93.920,21.850,222.800,63.110,19.740,6.313,388.700,108.600,36.770,12.040,baseline
1327.000,354.600,109.400,29.640,1328.000,295.700,94.310,21.920,223.200,63.280,19.750,6.310,388.900,108.800,36.880,12.080,baseline
1331.000,354.500,109.300,29.550,1329.000,295.800,94.100,21.930,223.600,63.150,19.780,6.322,388.300,108.700,36.870,12.060,baseline
1330.000,355.200,109.300,29.600,1331.000,295.900,94.230,21.950,223.400,63.040,19.770,6.331,388.500,109.000,36.920,12.080,baseline
1335.000,356.700,110.200,29.900,1333.000,297.900,94.460,22.090,223.400,63.260,19.800,6.344,390.100,109.200,37.090,12.180,baseline
1345.000,359.000,111.100,30.040,1341.000,297.900,94.600,22.150,223.900,63.370,19.900,6.373,391.600,109.700,37.230,12.240,baseline
1353.000,360.400,111.800,30.270,1345.000,299.300,94.950,22.130,223.700,63.470,19.950,6.380,392.400,109.900,37.460,12.300,baseline
1363.000,362.700,112.300,30.480,1351.000,300.400,95.320,22.210,225.400,63.540,19.980,6.422,394.100,110.600,37.630,12.350,baseline
1365.000,362.200,111.700,30.120,1345.000,299.300,94.700,22.150,225.700,63.660,19.950,6.389,392.200,109.700,37.290,12.180,baseline
1348.000,358.100,110.700,29.880,1345.000,298.900,94.630,22.080,225.700,63.540,19.930,6.346,391.600,109.500,37.010,12.100,baseline
1341.000,357.100,110.500,29.740,1339.000,298.900,94.720,22.130,224.000,63.630,19.940,6.361,390.300,109.300,37.080,12.120,baseline
1341.000,359.600,110.700,29.930,1341.000,299.100,95.140,22.170,225.000,63.500,19.930,6.360,391.400,109.400,37.270,12.150,baseline
1342.000,358.000,111.000,29.900,1343.000,298.900,95.170,22.180,225.400,63.880,19.990,6.390,390.900,109.600,37.220,12.170,baseline
1344.000,358.500,111.400,30.040,1344.000,299.000,95.060,22.170,225.000,63.700,19.980,6.383,392.500,110.000,37.270,12.240,baseline
1350.000,361.300,111.600,30.200,1345.000,299.700,94.870,22.140,228.600,63.860,20.150,6.407,393.400,110.900,37.720,12.350,baseline
1358.000,362.800,112.100,30.340,1347.000,299.700,95.160,22.220,227.900,64.600,20.310,6.476,395.100,111.500,38.020,12.460,baseline
1367.000,365.000,112.400,30.440,1350.000,301.500,95.430,22.290,229.300,64.680,20.360,6.498,396.200,112.100,38.310,12.550,baseline
1377.000,367.300,113.500,30.640,1352.000,302.100,95.380,22.200,228.100,64.860,20.440,6.527,397.500,112.200,38.110,12.480,baseline
1364.000,363.500,111.700,30.150,1347.000,299.600,94.850,22.140,228.200,64.890,20.360,6.454,395.900,111.300,37.930,12.310,baseline
1352.000,360.800,111.100,30.010,1337.000,298.700,94.500,22.060,227.400,64.480,20.240,6.435,393.600,110.900,37.700,12.260,baseline
1342.000,358.100,110.800,29.930,1341.000,299.000,95.060,22.160,228.500,64.360,20.220,6.426,393.000,110.900,37.710,12.250,baseline
1343.000,358.600,111.400,29.910,1339.000,298.800,94.870,22.160,226.100,64.340,20.250,6.430,393.500,110.800,37.640,12.300,baseline
1343.000,359.200,111.400,29.980,1339.000,299.400,95.080,22.230,226.300,64.460,20.180,6.408,393.300,111.100,37.670,12.300,baseline
1345.000,359.600,111.600,30.100,1343.000,299.600,95.360,22.270,225.700,64.590,20.190,6.414,394.100,111.000,37.770,12.350,baseline
1352.000,362.200,112.100,30.300,1346.000,300.500,95.560,22.320,227.000,64.170,20.180,6.425,394.500,111.600,37.980,12.440,baseline
1360.000,362.900,112.500,30.410,1350.000,300.700,95.760,22.390,228.900,64.460,20.200,6.422,396.400,111.900,38.090,12.480,baseline
1368.000,364.600,113.300,30.670,1353.000,302.000,95.970,22.430,228.200,64.430,20.230,6.429,398.000,112.000,38.140,12.570,baseline
1376.000,368.500,114.100,30.880,1356.000,303.200,96.310,22.520,227.000,64.710,20.200,6.441,398.300,112.600,38.350,12.600,baseline
1387.000,370.800,114.700,31.050,1362.000,303.000,96.500,22.610,227.600,64.400,20.310,6.440,399.700,112.900,38.570,12.700,baseline
1398.000,373.200,115.600,31.390,1367.000,304.300,96.700,22.590,227.300,64.340,20.250,6.454,400.600,113.200,38.520,12.730,baseline
1389.000,370.000,113.800,30.770,1354.000,301.200,95.870,22.440,228.700,64.600,20.200,6.399,397.700,112.000,38.160,12.450,baseline
1366.000,365.700,113.200,30.500,1350.000,300.600,95.570,22.360,224.800,64.270,20.060,6.388,396.500,111.700,37.930,12.410,baseline
1356.000,363.200,112.700,30.330,1344.000,300.400,95.520,22.300,226.200,64.300,20.040,6.363,396.600,111.400,37.920,12.360,baseline
1353.000,361.900,112.800,30.420,1340.000,300.100,95.390,22.340,228.200,64.080,20.090,6.374,396.800,111.700,37.970,12.430,baseline
1351.000,362.300,112.700,30.440,1342.000,299.900,95.420,22.280,227.300,64.460,20.020,6.349,395.800,111.500,37.880,12.420,baseline
1352.000,362.400,112.800,30.490,1339.000,301.000,95.470,22.360,225.700,64.360,20.070,6.363,396.200,111.700,38.030,12.460,baseline
1358.000,364.300,113.300,30.610,1346.000,300.500,95.640,22.400,227.900,64.350,20.090,6.368,397.200,112.100,38.130,12.530,baseline
1366.000,366.600,113.700,30.860,1350.000,302.000,96.070,22.420,226.800,64.200,20.060,6.368,397.900,112.400,38.240,12.580,baseline
1372.000,369.700,114.400,31.020,1353.000,302.300,96.020,22.420,225.700,64.210,20.040,6.372,398.900,112.500,38.400,12.640,baseline
1381.000,371.400,114.900,31.270,1356.000,302.800,96.390,22.530,227.600,64.620,20.080,6.384,399.500,112.800,38.530,12.700,baseline
1391.000,371.800,115.900,31.340,1359.000,301.600,96.000,22.440,227.400,64.470,20.090,6.382,399.200,112.600,38.300,12.570,baseline
1370.000,366.700,113.700,30.720,1345.000,300.100,95.670,22.330,227.200,64.000,20.020,6.343,397.300,112.000,38.140,12.480,baseline
1359.000,365.300,113.200,30.590,1344.000,299.000,95.460,22.290,224.700,64.210,19.960,6.319,396.200,111.800,38.040,12.420,baseline
1353.000,363.200,113.100,30.600,1342.000,299.500,95.410,22.330,224.900,63.960,19.960,6.334,395.500,111.700,38.030,12.450,baseline
1356.000,363.000,113.400,30.680,1343.000,299.800,95.360,22.280,226.100,64.190,19.920,6.311,395.700,111.700,37.890,12.410,baseline
1354.000,363.400,113.400,30.670,1341.000,300.900,95.290,22.250,225.900,63.860,19.870,6.312,395.600,111.700,38.070,12.490,baseline
1359.000,365.700,113.900,30.770,1346.000,300.400,95.830,22.390,225.400,64.130,19.990,6.317,395.700,112.100,38.170,12.490,baseline
1367.000,368.000,114.700,30.960,1345.000,301.400,95.830,22.360,227.100,63.960,19.980,6.332,397.000,112.300,38.290,12.590,baseline
1375.000,370.300,114.800,31.130,1355.000,301.900,96.090,22.440,226.700,64.100,19.920,6.354,398.300,112.600,38.380,12.660,baseline
1385.000,373.100,115.800,31.350,1362.000,302.100,96.140,22.400,225.700,63.970,19.970,6.350,397.800,112.800,38.420,12.690,baseline
1379.000,369.800,114.100,30.900,1343.000,300.300,95.140,22.140,225.000,63.890,19.910,6.300,396.000,111.700,38.010,12.450,baseline
1357.000,364.000,113.100,30.650,1342.000,299.100,94.810,22.170,225.000,63.790,19.810,6.278,394.600,111.500,37.890,12.390,baseline
1349.000,363.000,112.800,30.460,1338.000,298.200,95.150,22.080,225.500,64.120,19.780,6.267,394.000,111.300,37.860,12.420,baseline
1350.000,363.300,113.200,30.640,1336.000,298.600,95.430,22.210,225.000,63.720,19.810,6.284,394.500,111.300,37.970,12.450,baseline
1350.000,363.700,113.200,30.600,1342.000,298.700,95.310,22.170,225.600,63.460,19.820,6.277,394.000,111.500,37.960,12.490,baseline
1352.000,364.600,113.700,30.790,1342.000,299.000,95.630,22.250,224.400,64.200,19.870,6.294,394.900,111.900,38.230,12.550,baseline
1359.000,364.700,114.400,30.990,1341.000,299.800,95.780,22.390,225.400,63.910,19.900,6.335,396.700,112.100,38.270,12.650,baseline
1369.000,366.900,114.900,31.320,1347.000,301.300,96.170,22.490,225.100,63.810,19.940,6.345,396.900,112.300,38.460,12.710,baseline
1377.000,370.000,115.600,31.430,1353.000,301.900,96.460,22.480,224.100,64.050,20.010,6.370,397.700,112.800,38.620,12.760,baseline
1387.000,372.000,116.000,31.560,1349.000,301.000,96.040,22.340,226.000,64.280,19.980,6.369,397.500,112.500,38.350,12.660,baseline
1363.000,365.600,114.000,30.940,1344.000,299.000,95.770,22.230,226.000,63.870,19.900,6.327,395.100,111.800,37.970,12.520,baseline
1351.000,363.200,113.200,30.730,1335.000,298.400,95.520,22.140,224.600,63.700,19.840,6.314,393.800,111.100,37.910,12.490,baseline
1343.000,362.800,112.400,30.630,1335.000,297.400,95.320,22.200,223.600,63.770,19.800,6.320,393.100,111.100,37.930,12.480,baseline
1344.000,362.800,112.500,30.620,1337.000,297.400,95.290,22.160,223.100,63.570,19.800,6.328,392.700,111.100,37.910,12.500,baseline
1342.000,362.300,112.500,30.610,1333.000,297.700,95.170,22.170,223.800,63.410,19.790,6.314,393.500,111.100,37.940,12.520,baseline
1345.000,361.500,112.800,30.730,1336.000,297.800,95.220,22.140,225.000,63.860,19.850,6.315,392.900,111.300,37.980,12.580,baseline
1353.000,363.900,113.500,30.820,1339.000,298.800,95.420,22.230,223.500,63.790,19.800,6.341,394.200,111.600,38.090,12.610,baseline
1362.000,367.000,114.200,31.020,1344.000,299.400,95.650,22.300,225.900,63.780,19.880,6.362,394.400,111.800,38.310,12.670,baseline
1370.000,366.500,114.000,30.860,1341.000,298.200,94.940,22.080,224.100,63.810,19.880,6.319,393.900,111.100,37.840,12.470,baseline
1344.000,361.200,112.000,30.470,1334.000,297.400,94.830,22.020,222.900,63.460,19.810,6.297,391.300,110.500,37.710,12.370,baseline
1334.000,358.500,111.600,30.260,1326.000,296.000,94.520,21.990,224.500,63.310,19.780,6.305,390.200,110.000,37.620,12.340,baseline
1329.000,358.000,110.800,30.270,1332.000,295.700,94.650,22.000,223.100,63.480,19.810,6.307,390.100,110.200,37.630,12.370,baseline
1332.000,358.400,110.800,30.140,1331.000,296.300,94.590,21.960,224.200,63.130,19.740,6.310,390.100,110.000,37.580,12.360,baseline
1332.000,358.900,110.800,30.220,1326.000,296.400,94.700,22.030,225.500,63.250,19.800,6.318,389.500,110.400,37.610,12.410,baseline
1338.000,358.800,111.600,30.360,1333.000,296.700,95.010,22.100,223.900,63.470,19.840,6.323,390.200,110.700,37.680,12.460,baseline
1346.000,362.000,112.100,30.550,1337.000,297.000,95.140,22.130,224.400,63.570,19.840,6.344,391.900,110.800,37.880,12.530,baseline
1354.000,364.000,113.100,30.800,1339.000,298.200,95.360,22.170,224.900,63.750,19.870,6.355,392.700,111.100,38.040,12.580,baseline
1364.000,365.600,113.700,30.960,1341.000,298.700,95.330,22.210,223.600,63.830,19.880,6.355,392.900,111.300,38.000,12.540,baseline
1355.000,362.400,112.300,30.380,1334.000,297.000,94.700,22.010,223.400,63.760,19.800,6.328,390.200,110.200,37.650,12.390,baseline
1337.000,359.900,111.200,30.120,1325.000,295.500,94.270,21.970,225.500,63.340,19.760,6.316,389.300,110.000,37.430,12.320,baseline
1327.000,356.700,110.500,29.990,1324.000,295.300,94.220,21.980,224.100,63.150,19.740,6.295,388.700,109.700,37.320,12.310,baseline
1327.000,356.000,110.200,30.000,1324.000,295.700,93.980,21.920,223.700,63.460,19.800,6.315,388.100,109.900,37.430,12.340,baseline
1326.000,355.700,110.400,30.000,1324.000,295.200,94.380,21.980,222.400,63.260,19.760,6.300,388.800,109.800,37.420,12.350,baseline
1330.000,357.700,111.000,30.120,1330.000,296.100,94.420,22.000,223.400,63.410,19.760,6.305,389.400,109.800,37.490,12.390,baseline
1339.000,360.400,111.600,30.290,1336.000,296.500,94.770,22.090,224.600,63.700,19.800,6.327,390.200,110.200,37.730,12.470,baseline
1348.000,361.700,112.200,30.470,1338.000,297.700,95.030,22.090,223.600,63.570,19.840,6.341,391.000,110.700,37.860,12.540,baseline
1356.000,364.800,113.000,30.690,1341.000,298.900,94.980,22.210,224.100,63.620,19.850,6.350,391.700,111.000,37.990,12.590,baseline
1365.000,364.500,114.000,30.890,1345.000,299.700,95.350,22.270,224.500,63.550,19.850,6.368,392.600,111.600,38.170,12.640,baseline
1376.000,368.400,114.200,31.180,1351.000,300.500,95.700,22.350,224.400,63.870,19.910,6.378,394.500,111.800,38.290,12.770,baseline
1390.000,370.000,114.900,31.150,1350.000,299.500,95.040,22.180,224.300,63.930,19.970,6.372,394.300,111.500,38.060,12.580,baseline
1359.000,362.700,112.900,30.520,1336.000,298.400,94.740,22.080,225.200,63.430,19.820,6.329,391.100,110.700,37.790,12.470,baseline
1350.000,359.900,112.200,30.350,1336.000,296.700,94.410,22.010,224.700,63.400,19.750,6.316,390.600,110.400,37.620,12.430,baseline
1343.000,358.300,111.600,30.270,1331.000,296.800,94.640,22.000,223.200,63.330,19.810,6.318,391.200,110.600,37.760,12.440,baseline
1344.000,360.900,111.900,30.310,1332.000,297.500,94.300,21.990,223.900,63.490,19.760,6.300,391.000,110.500,37.710,12.460,baseline
1343.000,358.400,111.800,30.290,1329.000,297.000,94.600,21.970,223.300,63.610,19.750,6.316,390.800,110.600,37.690,12.470,baseline
1347.000,361.000,112.600,30.440,1334.000,297.400,94.740,22.040,222.700,63.660,19.800,6.315,391.300,110.700,37.900,12.550,baseline
1354.000,364.200,112.800,30.650,1339.000,299.100,94.690,22.060,223.300,63.400,19.800,6.347,392.400,111.200,38.090,12.630,baseline
1364.000,366.400,113.100,30.910,1345.000,301.800,94.890,22.080,225.200,63.570,19.840,6.363,393.500,111.700,38.350,12.720,baseline
1375.000,368.700,113.800,31.050,1349.000,302.500,94.740,22.080,225.400,63.770,19.920,6.368,394.700,112.000,38.330,12.750,baseline
1374.000,368.200,112.700,30.610,1339.000,300.600,94.180,21.880,223.800,63.980,19.840,6.310,392.500,111.100,38.010,12.530,baseline
1355.000,364.300,111.400,30.310,1335.000,300.000,93.890,21.790,223.500,63.580,19.760,6.292,391.800,110.600,37.780,12.510,baseline
1349.000,362.200,111.100,30.180,1336.000,300.600,93.690,21.810,224.500,63.540,19.720,6.310,391.100,110.500,37.750,12.530,baseline
1352.000,365.000,111.100,30.280,1335.000,300.700,93.860,21.770,225.100,63.770,19.740,6.309,392.500,110.700,37.800,12.510,baseline
1353.000,362.700,110.900,30.150,1339.000,300.500,93.980,21.780,225.300,63.510,19.680,6.293,392.300,110.500,37.770,12.500,baseline
1358.000,364.100,111.100,30.250,1342.000,300.500,94.000,21.790,223.900,63.380,19.690,6.299,392.700,110.900,37.880,12.550,baseline
1365.000,366.800,111.800,30.500,1343.000,301.300,94.430,21.800,225.800,63.540,19.680,6.309,393.200,111.100,37.900,12.590,baseline
1375.000,368.000,112.400,30.740,1346.000,302.600,94.630,21.870,224.100,63.250,19.680,6.313,394.000,111.400,38.030,12.690,baseline
1385.000,370.800,113.700,30.890,1353.000,303.800,94.830,21.870,224.100,63.500,19.700,6.307,395.000,111.700,38.180,12.710,baseline
1394.000,371.300,113.000,30.720,1350.000,303.000,94.180,21.740,226.000,63.240,19.710,6.294,392.900,110.800,37.830,12.540,baseline
1365.000,365.000,111.100,30.130,1342.000,301.100,93.780,21.700,225.000,63.290,19.570,6.260,392.100,110.300,37.660,12.440,baseline
1358.000,362.300,110.700,29.980,1336.000,300.500,93.710,21.680,225.600,63.110,19.550,6.244,392.200,110.200,37.490,12.430,baseline
1355.000,363.400,110.600,29.990,1343.000,301.600,93.820,21.730,223.100,63.240,19.610,6.265,392.200,110.500,37.610,12.440,baseline
1358.000,364.200,110.500,30.060,1345.000,301.400,93.870,21.730,226.300,62.950,19.560,6.254,392.200,110.300,37.580,12.460,baseline
1359.000,364.200,110.900,30.060,1346.000,301.000,94.550,21.880,223.400,63.350,19.540,6.247,392.400,110.500,37.720,12.440,baseline
1367.000,365.700,111.800,30.250,1353.000,302.900,95.190,21.960,222.200,63.200,19.560,6.272,394.100,110.600,37.910,12.530,baseline
1378.000,367.400,112.900,30.490,1364.000,303.500,95.670,22.050,224.700,62.990,19.600,6.282,395.300,111.200,38.000,12.650,baseline
1387.000,369.200,113.600,30.710,1361.000,303.800,96.120,22.160,225.100,63.340,19.640,6.305,396.800,111.400,38.060,12.670,baseline
1395.000,371.300,114.300,30.960,1368.000,305.200,96.700,22.270,226.600,63.250,19.700,6.301,397.300,111.700,38.330,12.750,baseline
1407.000,374.000,115.100,31.130,1368.000,305.800,96.340,22.230,226.400,63.530,19.740,6.324,397.200,111.700,38.150,12.620,baseline
1383.000,368.800,113.000,30.450,1356.000,303.000,95.650,22.080,224.700,63.330,19.630,6.250,394.900,110.700,37.730,12.540,baseline
1369.000,364.800,112.200,30.290,1354.000,302.700,95.520,22.050,224.600,63.140,19.610,6.245,394.700,110.700,37.630,12.450,baseline
1359.000,364.300,111.800,30.140,1353.000,301.500,95.740,22.110,224.000,63.180,19.560,6.263,394.500,110.500,37.730,12.500,baseline
1359.000,363.500,112.300,30.280,1350.000,301.600,95.660,22.130,223.300,63.140,19.590,6.265,393.700,110.600,37.680,12.480,baseline
1356.000,363.300,111.900,30.210,1350.000,301.400,95.560,22.150,224.100,63.280,19.570,6.253,394.000,110.800,37.800,12.510,baseline
1359.000,364.200,112.200,30.350,1352.000,302.400,95.860,22.220,225.500,63.160,19.610,6.256,395.200,111.100,37.840,12.570,baseline
1365.000,365.200,112.800,30.620,1350.000,303.400,96.010,22.240,224.400,63.520,19.620,6.281,396.300,111.400,38.000,12.620,baseline
1372.000,366.500,113.600,30.810,1357.000,303.200,96.490,22.280,226.200,63.270,19.700,6.284,397.000,111.500,38.230,12.700,baseline
1378.000,368.900,114.400,30.970,1359.000,304.000,96.630,22.360,224.700,63.200,19.690,6.270,397.700,111.800,38.360,12.770,baseline
1389.000,370.800,115.000,31.190,1364.000,304.100,96.680,22.350,225.900,63.610,19.680,6.307,398.900,112.200,38.380,12.720,baseline
1378.000,367.000,113.600,30.660,1349.000,302.300,96.000,22.200,224.300,63.280,19.620,6.256,395.500,111.400,37.910,12.540,baseline
1361.000,365.900,112.800,30.410,1345.000,301.600,95.690,22.170,225.300,63.310,19.630,6.248,395.500,110.900,37.860,12.480,baseline
1353.000,362.900,111.900,30.270,1342.000,300.900,95.820,22.180,224.400,63.170,19.530,6.246,394.400,111.100,37.780,12.490,baseline
1353.000,363.500,112.000,30.370,1345.000,301.200,95.880,22.190,223.900,63.310,19.590,6.243,395.300,110.800,37.830,12.500,baseline
1351.000,364.200,112.700,30.360,1346.000,301.300,95.650,22.200,223.700,63.170,19.630,6.254,395.500,111.300,37.820,12.500,baseline
1353.000,362.900,112.500,30.450,1344.000,301.800,96.240,22.270,224.900,63.110,19.610,6.244,395.300,111.100,37.950,12.550,baseline
1360.000,365.800,113.400,30.660,1348.000,301.900,96.140,22.280,226.800,63.220,19.690,6.260,396.500,111.800,38.030,12.650,baseline
1368.000,367.800,113.800,30.940,1350.000,302.900,96.340,22.340,226.200,63.670,19.700,6.274,397.500,111.700,38.310,12.670,baseline
1375.000,369.600,114.700,31.020,1352.000,302.900,96.790,22.400,224.400,63.630,19.700,6.286,398.600,112.200,38.370,12.740,baseline
1384.000,371.500,115.100,31.170,1358.000,304.300,96.740,22.400,225.100,63.390,19.750,6.306,399.200,112.500,38.530,12.780,baseline
1379.000,368.300,114.100,30.810,1345.000,302.000,96.010,22.230,225.400,63.310,19.700,6.277,397.000,111.900,38.090,12.570,baseline
1361.000,365.400,113.400,30.640,1346.000,300.800,96.000,22.250,223.100,63.380,19.660,6.256,396.100,111.300,37.970,12.530,baseline
1355.000,365.400,112.700,30.570,1343.000,300.700,96.040,22.180,225.000,63.560,19.590,6.253,396.700,111.300,37.930,12.560,baseline
1356.000,364.900,112.800,30.600,1345.000,301.200,96.010,22.210,224.700,63.230,19.630,6.273,396.300,111.300,38.080,12.580,baseline
1354.000,364.800,112.600,30.620,1342.000,301.100,96.140,22.280,226.200,63.160,19.680,6.266,396.600,111.400,38.050,12.570,baseline
1356.000,365.500,113.000,30.610,1345.000,301.700,96.110,22.260,225.700,63.390,19.650,6.262,396.600,111.900,38.180,12.620,baseline
1362.000,367.400,114.000,30.850,1345.000,302.000,96.330,22.360,225.200,63.770,19.760,6.284,397.900,112.200,38.350,12.700,baseline
1371.000,368.800,114.300,31.030,1346.000,302.300,96.470,22.410,225.500,63.360,19.690,6.286,398.600,112.600,38.440,12.750,baseline
1378.000,370.800,115.600,31.180,1356.000,303.100,96.520,22.430,224.600,63.840,19.810,6.308,399.100,112.700,38.550,12.790,baseline
1384.000,369.500,114.600,31.030,1346.000,301.800,96.080,22.220,227.000,63.820,19.810,6.279,398.500,112.200,38.180,12.610,baseline
1361.000,367.300,113.500,30.760,1341.000,300.800,96.040,22.230,224.400,63.510,19.720,6.257,396.700,111.700,37.910,12.550,baseline
1355.000,362.700,113.400,30.550,1338.000,300.800,95.750,22.250,223.800,63.470,19.620,6.248,395.800,111.500,37.950,12.530,baseline
1351.000,364.000,112.600,30.590,1342.000,301.000,95.970,22.200,225.200,63.590,19.670,6.256,395.800,111.700,38.000,12.550,baseline
1352.000,364.100,112.800,30.670,1338.000,300.900,95.970,22.210,224.200,63.500,19.730,6.275,395.700,111.700,38.040,12.550,baseline
1352.000,365.600,113.000,30.650,1342.000,300.600,95.960,22.280,224.800,63.450,19.700,6.272,396.400,111.600,38.090,12.580,baseline
1358.000,365.300,113.500,30.770,1342.000,301.200,96.110,22.320,225.100,63.480,19.680,6.276,397.100,112.000,38.210,12.630,baseline
1366.000,368.900,114.000,30.930,1344.000,301.200,96.400,22.290,224.600,63.550,19.660,6.278,398.200,112.300,38.290,12.700,baseline
1371.000,368.000,114.400,30.920,1346.000,301.500,96.070,22.250,226.000,63.570,19.730,6.278,398.900,112.700,38.400,12.720,baseline
1378.000,370.600,114.900,31.100,1350.000,302.200,96.320,22.330,224.200,63.490,19.720,6.312,399.600,112.800,38.540,12.820,baseline
1386.000,370.700,115.100,31.280,1352.000,302.100,96.090,22.270,225.500,63.710,19.780,6.307,400.000,113.100,38.590,12.780,baseline
1374.000,366.600,114.100,30.720,1338.000,299.600,95.260,22.180,224.800,63.410,19.720,6.274,397.800,112.300,38.130,12.620,baseline
1356.000,364.400,113.100,30.490,1338.000,298.600,95.070,22.030,224.100,63.370,19.640,6.249,396.200,111.600,37.980,12.550,baseline
1345.000,360.900,112.200,30.400,1333.000,298.400,95.040,22.020,223.600,63.180,19.620,6.246,395.800,111.500,37.940,12.520,baseline
1344.000,361.900,112.200,30.470,1330.000,298.700,94.990,22.000,225.700,63.400,19.570,6.244,395.600,111.600,38.010,12.520,baseline
1342.000,360.600,112.800,30.290,1333.000,298.200,94.980,21.980,223.800,63.500,19.580,6.249,395.000,111.600,38.040,12.530,baseline
1344.000,363.200,112.500,30.490,1334.000,298.400,95.160,21.970,224.300,63.330,19.600,6.250,396.200,111.400,38.030,12.560,baseline
1349.000,364.100,112.800,30.550,1332.000,298.100,95.280,22.010,222.000,63.240,19.640,6.271,396.500,111.800,38.220,12.640,baseline
1356.000,364.900,113.200,30.770,1339.000,299.300,95.020,22.090,223.300,63.480,19.600,6.286,397.600,112.300,38.370,12.710,baseline
1365.000,367.600,113.800,30.990,1342.000,299.300,95.500,22.090,225.500,63.410,19.660,6.291,398.300,112.300,38.380,12.740,baseline
1371.000,369.500,114.700,31.140,1344.000,300.900,95.260,22.160,224.700,63.470,19.690,6.299,399.800,112.800,38.570,12.850,baseline
1382.000,371.500,115.400,31.220,1342.000,300.000,95.340,22.050,223.900,63.500,19.700,6.318,398.100,112.600,38.330,12.710,baseline
1361.000,365.200,113.100,30.630,1336.000,298.000,94.890,21.910,221.900,63.020,19.680,6.273,397.300,111.600,38.110,12.570,baseline
1349.000,363.100,112.700,30.450,1328.000,297.400,94.440,21.840,223.600,63.270,19.600,6.251,395.500,111.400,37.920,12.490,baseline
1340.000,361.400,112.300,30.280,1326.000,296.700,94.550,21.880,223.500,62.910,19.590,6.249,394.900,111.300,37.970,12.530,baseline
1342.000,361.700,112.100,30.380,1330.000,297.600,94.530,21.870,224.300,62.910,19.520,6.254,394.800,111.400,37.940,12.540,baseline
1341.000,361.900,112.100,30.440,1329.000,297.300,94.410,21.900,224.400,62.930,19.590,6.242,394.900,111.300,37.900,12.570,baseline
1345.000,362.700,112.600,30.550,1332.000,297.300,94.790,21.980,223.600,63.090,19.610,6.265,395.300,111.500,38.070,12.570,baseline
1352.000,365.000,113.000,30.680,1333.000,298.000,94.790,21.990,223.500,63.150,19.590,6.270,395.300,111.900,38.140,12.670,baseline
1362.000,367.500,113.800,30.900,1338.000,298.700,95.210,21.990,223.700,63.010,19.600,6.282,396.900,112.100,38.360,12.710,baseline
1370.000,369.700,114.100,31.000,1343.000,298.600,95.290,22.140,223.200,63.270,19.650,6.276,397.900,112.500,38.480,12.790,baseline
1379.000,371.100,115.000,31.290,1346.000,300.700,95.580,22.180,224.300,63.370,19.690,6.296,399.200,112.700,38.640,12.840,baseline
1391.000,374.600,115.300,31.170,1345.000,298.900,94.840,21.970,224.200,63.440,19.700,6.301,397.800,112.300,38.330,12.670,baseline
1363.000,365.200,113.500,30.690,1335.000,297.000,94.720,21.900,223.100,62.950,19.610,6.245,394.200,111.600,38.010,12.600,baseline
1353.000,364.100,112.800,30.530,1328.000,297.000,94.290,21.860,224.100,62.740,19.550,6.232,394.600,111.400,37.920,12.550,baseline
1347.000,363.000,112.300,30.450,1332.000,296.600,94.700,21.910,221.700,62.960,19.570,6.240,394.600,111.400,38.010,12.550,baseline
1350.000,364.900,112.200,30.490,1331.000,296.500,94.450,21.880,221.800,62.960,19.580,6.239,394.300,111.100,37.920,12.560,baseline
1348.000,363.200,112.200,30.520,1332.000,296.200,94.430,21.850,222.200,62.590,19.540,6.259,394.500,111.200,37.930,12.580,baseline
1352.000,363.500,112.800,30.700,1333.000,297.500,94.640,21.970,222.000,63.020,19.580,6.271,394.500,111.400,38.140,12.650,baseline
1361.000,366.700,113.400,30.860,1338.000,297.600,95.080,21.970,223.200,62.950,19.590,6.264,395.300,111.500,38.210,12.710,baseline
1371.000,368.400,114.000,31.070,1341.000,298.300,95.120,22.020,223.000,62.920,19.620,6.274,396.000,111.900,38.320,12.770,baseline
1378.000,370.200,114.900,31.250,1348.000,299.300,95.240,22.070,222.400,63.140,19.660,6.279,396.900,112.300,38.490,12.830,baseline
1384.000,370.700,114.300,30.890,1336.000,297.400,94.660,21.910,223.200,63.030,19.570,6.265,394.700,111.400,38.040,12.630,baseline
1357.000,364.200,112.800,30.550,1332.000,296.500,94.360,21.820,222.500,63.020,19.560,6.237,393.800,111.000,37.760,12.560,baseline
1349.000,362.300,112.400,30.380,1332.000,296.200,93.940,21.810,221.900,62.930,19.520,6.232,392.700,110.900,37.750,12.520,baseline
1348.000,361.900,112.500,30.520,1332.000,295.600,94.190,21.820,223.600,62.690,19.490,6.243,393.400,110.800,37.870,12.540,baseline
1348.000,363.500,112.500,30.460,1330.000,296.100,94.190,21.850,222.200,62.820,19.540,6.249,392.900,110.400,37.850,12.550,baseline
1348.000,362.000,112.600,30.550,1328.000,296.400,94.270,21.830,222.900,62.750,19.590,6.244,392.600,111.100,37.940,12.600,baseline
1353.000,363.800,112.800,30.740,1330.000,296.100,94.610,21.880,220.600,62.590,19.510,6.270,393.700,111.400,38.010,12.670,baseline
1362.000,366.100,113.700,30.900,1338.000,297.100,94.690,21.880,222.100,62.840,19.560,6.262,394.300,111.300,38.300,12.740,baseline
1371.000,368.500,114.200,31.060,1339.000,298.400,94.790,21.940,222.600,62.730,19.570,6.257,395.600,111.800,38.300,12.780,baseline
1383.000,369.300,115.000,31.290,1341.000,298.100,94.820,21.820,222.400,62.930,19.580,6.276,395.700,111.700,38.240,12.670,baseline
1362.000,364.600,112.400,30.550,1330.000,295.700,93.990,21.700,221.600,62.650,19.550,6.233,392.500,110.700,37.770,12.540,baseline
1348.000,362.300,111.300,30.300,1324.000,294.600,93.800,21.700,222.900,62.600,19.460,6.197,391.600,110.100,37.570,12.430,baseline
1338.000,360.000,111.300,30.260,1322.000,294.300,93.680,21.630,221.500,62.410,19.430,6.205,390.900,110.100,37.650,12.490,baseline
1339.000,360.400,111.200,30.210,1326.000,294.000,93.650,21.620,221.000,62.690,19.460,6.225,390.400,109.900,37.580,12.480,baseline
1336.000,359.400,111.400,30.210,1324.000,294.500,93.510,21.680,223.300,62.590,19.490,6.212,391.300,110.100,37.620,12.470,baseline
1339.000,360.900,111.600,30.300,1324.000,294.600,93.960,21.720,221.400,62.430,19.490,6.216,390.500,110.300,37.770,12.570,baseline
1346.000,361.700,112.300,30.510,1329.000,294.900,93.940,21.750,221.600,62.780,19.510,6.233,392.200,110.500,37.950,12.620,baseline
1356.000,364.600,113.000,30.770,1331.000,296.500,94.310,21.770,222.600,62.750,19.530,6.244,393.100,110.700,38.110,12.680,baseline
1364.000,365.800,113.500,30.860,1336.000,296.500,94.330,21.920,222.500,62.700,19.550,6.252,394.200,111.000,38.170,12.700,baseline
1329.000,358.000,110.900,30.050,1318.000,292.300,93.230,21.590,220.900,62.410,19.460,6.195,390.100,109.800,37.510,12.420,hard
1328.000,357.100,110.200,29.920,1318.000,292.900,93.040,21.550,222.600,62.230,19.410,6.212,389.400,109.700,37.490,12.430,hard
1330.000,357.100,110.800,29.950,1323.000,293.200,93.300,21.610,221.200,62.450,19.450,6.203,389.700,109.800,37.530,12.490,hard
1336.000,358.900,111.400,30.190,1323.000,294.100,93.630,21.650,223.500,62.630,19.510,6.222,391.000,110.200,37.680,12.560,hard
1345.000,360.500,111.800,30.450,1325.000,294.500,93.910,21.740,221.700,62.410,19.560,6.245,391.700,110.400,37.900,12.640,hard
1354.000,363.300,113.000,30.600,1331.000,295.100,94.090,21.770,220.500,62.550,19.490,6.241,393.100,110.700,38.000,12.680,hard
1363.000,366.300,113.300,30.770,1337.000,297.200,94.490,21.830,224.000,62.650,19.540,6.256,393.900,111.100,38.170,12.740,hard
1371.000,365.800,112.900,30.600,1326.000,294.400,93.410,21.620,221.100,62.530,19.550,6.230,391.800,110.400,37.730,12.510,hard
1340.000,358.500,111.100,30.060,1320.000,293.300,93.320,21.530,222.200,62.430,19.450,6.203,390.600,109.800,37.640,12.410,hard
1332.000,356.900,110.600,29.920,1321.000,292.700,92.970,21.510,220.600,62.510,19.410,6.199,389.700,109.800,37.390,12.380,hard
1327.000,356.700,110.700,29.930,1320.000,292.200,93.030,21.530,221.300,62.400,19.490,6.222,389.700,109.600,37.450,12.420,hard
1327.000,356.100,110.400,29.900,1317.000,292.000,92.930,21.590,221.400,62.550,19.480,6.201,390.600,109.600,37.480,12.380,hard
1326.000,355.800,110.300,29.950,1316.000,291.900,92.870,21.550,220.900,62.470,19.460,6.212,390.800,109.900,37.510,12.450,hard
1332.000,357.400,111.100,30.140,1321.000,292.700,93.000,21.600,221.200,62.690,19.500,6.226,391.300,110.100,37.700,12.570,hard
1340.000,358.600,111.200,30.310,1322.000,294.400,93.180,21.660,220.400,62.700,19.570,6.241,392.600,110.300,37.840,12.580,hard
1349.000,361.500,112.600,30.470,1330.000,295.700,93.560,21.730,223.900,62.950,19.580,6.240,393.100,110.900,37.970,12.630,hard
1359.000,363.600,112.900,30.730,1333.000,295.500,93.330,21.690,222.000,62.860,19.600,6.260,393.600,110.900,37.890,12.570,hard
1348.000,360.900,111.400,30.130,1322.000,293.900,92.920,21.540,223.700,62.910,19.520,6.232,391.400,109.700,37.490,12.400,hard
1333.000,358.700,110.700,29.970,1320.000,293.600,93.080,21.480,221.000,62.640,19.510,6.214,391.300,110.000,37.500,12.370,hard
1326.000,355.400,110.000,29.830,1316.000,292.800,93.050,21.500,222.700,62.660,19.490,6.216,390.600,109.700,37.470,12.420,hard
1329.000,357.300,110.500,29.900,1320.000,293.800,93.030,21.530,221.900,62.700,19.510,6.226,391.000,110.100,37.440,12.380,hard
1328.000,357.100,109.900,29.860,1319.000,292.700,93.000,21.590,222.500,62.440,19.520,6.230,391.200,109.600,37.490,12.430,hard
1331.000,357.300,111.000,30.050,1325.000,293.900,93.360,21.650,222.300,62.870,19.560,6.246,391.100,110.000,37.630,12.490,hard
1338.000,360.400,111.200,30.160,1323.000,294.800,93.470,21.680,224.500,62.880,19.570,6.261,392.100,110.300,37.760,12.550,hard
1348.000,361.100,112.000,30.360,1330.000,296.000,93.800,21.740,223.500,62.630,19.580,6.263,394.300,110.700,37.850,12.620,hard
1355.000,362.800,112.500,30.540,1335.000,296.600,94.080,21.860,223.200,62.990,19.650,6.286,394.100,111.100,38.070,12.690,hard
1364.000,364.900,112.700,30.510,1332.000,296.100,93.410,21.660,223.100,62.970,19.630,6.279,393.100,110.400,37.710,12.470,hard
1337.000,357.800,111.000,29.910,1322.000,294.100,93.130,21.600,222.500,62.700,19.540,6.226,392.000,110.000,37.490,12.350,hard
1328.000,356.200,110.000,29.800,1320.000,294.100,93.110,21.560,224.800,62.590,19.520,6.208,390.900,109.600,37.310,12.350,hard
1322.000,353.100,109.800,29.800,1320.000,293.600,93.070,21.560,225.000,62.770,19.580,6.220,391.200,109.500,37.280,12.320,hard
1324.000,355.000,109.800,29.670,1315.000,294.200,93.200,21.610,223.100,62.770,19.510,6.227,390.300,109.500,37.320,12.320,hard
1322.000,354.500,109.500,29.770,1318.000,294.100,93.300,21.640,222.300,62.420,19.570,6.225,390.600,109.400,37.310,12.350,hard
1326.000,357.200,110.500,29.880,1319.000,294.500,93.480,21.680,222.500,62.520,19.570,6.240,391.000,109.600,37.450,12.410,hard
1333.000,357.900,110.800,30.020,1328.000,296.000,93.880,21.770,224.200,62.650,19.610,6.257,392.300,110.100,37.660,12.500,hard
1341.000,359.000,111.400,30.170,1331.000,296.300,93.970,21.800,222.000,63.110,19.630,6.276,393.200,110.400,37.730,12.570,hard
1349.000,361.900,112.200,30.380,1336.000,297.800,94.390,21.900,223.400,62.660,19.650,6.291,394.700,110.800,37.950,12.620,hard
1358.000,362.700,112.000,30.220,1331.000,295.800,93.720,21.740,223.900,62.950,19.630,6.267,392.700,110.200,37.620,12.390,hard
1331.000,356.100,110.500,29.790,1322.000,295.900,93.550,21.650,223.300,62.600,19.490,6.236,391.300,109.500,37.220,12.320,hard
1322.000,355.500,109.600,29.540,1322.000,294.500,93.160,21.660,221.800,62.820,19.500,6.199,390.500,109.100,37.070,12.230,hard
1317.000,355.400,109.500,29.560,1320.000,294.600,93.410,21.660,222.300,62.730,19.490,6.216,390.600,109.200,37.160,12.240,hard
1318.000,354.300,109.400,29.590,1320.000,294.900,93.520,21.700,222.300,62.660,19.510,6.232,389.900,109.200,37.050,12.250,hard
1319.000,354.500,109.500,29.570,1327.000,295.700,93.800,21.710,222.800,62.810,19.500,6.244,390.000,109.200,37.210,12.280,hard
1324.000,355.300,109.900,29.700,1326.000,296.000,94.060,21.820,222.300,62.720,19.560,6.260,390.700,109.500,37.350,12.340,hard
1332.000,357.800,110.700,29.980,1330.000,297.100,94.290,21.860,223.300,62.840,19.630,6.271,391.600,110.000,37.410,12.400,hard
1339.000,359.800,111.300,30.080,1333.000,297.600,94.630,21.920,223.300,63.150,19.620,6.293,392.700,110.000,37.600,12.450,hard
1346.000,361.200,112.100,30.230,1338.000,297.900,94.850,21.920,223.500,63.160,19.720,6.305,393.700,110.400,37.680,12.440,hard
1342.000,359.700,110.900,29.880,1332.000,297.600,94.040,21.830,223.300,63.130,19.630,6.276,391.100,109.600,37.240,12.270,hard
1328.000,355.400,109.800,29.670,1325.000,296.800,94.130,21.870,224.200,62.810,19.610,6.272,389.900,109.100,37.150,12.230,hard
1322.000,356.000,109.800,29.600,1328.000,297.100,94.150,21.850,222.400,62.660,19.620,6.251,389.600,109.100,37.060,12.230,hard
1324.000,356.300,109.700,29.660,1328.000,296.600,94.360,21.870,222.000,62.790,19.620,6.267,390.300,109.400,37.150,12.220,hard
1323.000,355.200,110.000,29.630,1330.000,298.100,94.300,21.940,221.600,62.870,19.620,6.273,390.400,109.100,37.190,12.280,hard
1328.000,355.700,110.800,29.800,1328.000,298.100,94.780,21.980,222.800,62.930,19.640,6.279,390.500,109.500,37.300,12.310,hard
1333.000,359.100,111.200,29.940,1336.000,299.000,94.820,22.070,223.200,62.680,19.690,6.310,391.700,109.700,37.500,12.390,hard
1342.000,361.700,111.500,30.250,1339.000,300.400,95.150,22.170,222.900,62.990,19.680,6.329,392.900,110.100,37.530,12.420,hard
1350.000,362.500,112.500,30.340,1339.000,300.300,95.210,22.080,223.000,62.970,19.780,6.339,394.200,110.300,37.530,12.390,hard
1344.000,361.100,111.000,29.920,1335.000,299.200,94.810,22.000,221.200,63.110,19.760,6.313,392.400,109.600,37.220,12.240,hard
1332.000,358.500,110.100,29.770,1331.000,298.300,94.620,22.000,223.000,63.200,19.680,6.306,391.100,109.200,37.120,12.200,hard
1326.000,356.100,109.800,29.680,1330.000,298.300,94.640,22.060,222.300,63.010,19.680,6.301,390.500,109.300,37.130,12.210,hard
1329.000,357.100,110.100,29.770,1334.000,298.400,94.920,22.080,225.400,62.780,19.760,6.313,390.400,109.400,37.130,12.230,hard
1328.000,356.600,110.500,29.710,1331.000,299.300,94.780,22.120,222.900,62.920,19.690,6.332,391.800,109.500,37.070,12.260,hard
1332.000,357.900,111.000,29.980,1336.000,299.500,95.210,22.180,222.700,63.270,19.750,6.335,391.700,109.700,37.290,12.300,hard
1338.000,360.800,111.600,30.180,1339.000,301.100,95.610,22.240,222.400,62.980,19.830,6.361,393.300,110.000,37.460,12.380,hard
1346.000,362.400,112.400,30.370,1346.000,301.200,95.830,22.270,224.500,63.390,19.840,6.378,393.900,110.400,37.650,12.460,hard
1354.000,363.600,112.900,30.520,1347.000,302.500,95.830,22.280,223.900,63.510,19.870,6.372,394.600,110.400,37.640,12.410,hard
1347.000,361.300,111.500,30.020,1338.000,300.400,95.220,22.190,225.500,63.260,19.810,6.336,391.700,109.500,37.230,12.240,hard
1335.000,358.900,111.100,29.840,1335.000,299.600,95.030,22.130,224.000,63.080,19.740,6.322,390.800,109.400,37.170,12.200,hard
1327.000,357.100,110.400,29.780,1332.000,299.200,95.220,22.160,223.200,63.150,19.770,6.326,390.200,109.200,37.190,12.210,hard
1327.000,358.000,110.700,29.920,1335.000,298.900,95.400,22.200,223.700,63.070,19.790,6.337,390.600,109.300,37.170,12.190,hard
1328.000,357.400,110.700,29.880,1333.000,299.900,95.660,22.170,224.000,63.280,19.800,6.352,390.000,109.500,37.270,12.220,hard
1331.000,358.900,111.200,29.970,1336.000,300.300,95.360,22.240,223.300,62.980,19.830,6.361,390.900,109.600,37.460,12.300,hard
1338.000,360.800,111.600,30.150,1341.000,300.600,95.630,22.280,225.100,63.370,19.900,6.376,392.300,110.100,37.580,12.370,hard
1346.000,362.900,112.300,30.380,1344.000,301.700,95.790,22.340,224.100,63.540,19.890,6.392,393.200,110.300,37.660,12.430,hard
1353.000,363.600,112.700,30.530,1349.000,302.600,96.240,22.450,224.900,63.760,19.910,6.401,394.800,110.800,37.820,12.530,hard
1362.000,366.700,113.500,30.720,1348.000,303.100,96.150,22.380,225.100,63.700,20.010,6.424,395.000,111.100,37.820,12.460,hard
1353.000,363.600,111.900,30.240,1341.000,301.100,95.630,22.280,225.300,63.210,19.920,6.383,392.800,110.100,37.440,12.320,hard
1341.000,360.700,111.400,30.090,1336.000,301.600,95.350,22.220,223.100,63.540,19.820,6.368,392.700,109.900,37.360,12.280,hard
1334.000,360.600,111.300,29.990,1334.000,300.100,95.470,22.270,224.400,63.310,19.860,6.364,392.300,109.700,37.300,12.320,hard
1335.000,360.100,110.900,30.150,1337.000,300.900,95.510,22.240,222.500,63.560,19.850,6.365,391.800,109.900,37.450,12.310,hard
1335.000,359.500,111.100,30.030,1336.000,301.300,95.640,22.290,225.400,63.310,19.870,6.379,392.500,110.100,37.540,12.320,hard
1339.000,362.200,112.000,30.190,1337.000,300.800,95.850,22.330,224.100,63.480,19.940,6.380,392.400,110.400,37.600,12.420,hard
1345.000,363.700,112.100,30.380,1344.000,301.600,95.830,22.400,224.600,63.430,19.910,6.403,393.900,110.500,37.710,12.490,hard
1352.000,364.200,113.200,30.510,1346.000,301.500,96.240,22.450,222.900,63.840,19.940,6.415,394.200,110.900,37.880,12.540,hard
1360.000,367.300,113.500,30.820,1349.000,303.000,96.330,22.460,225.200,63.710,19.970,6.429,394.900,111.200,38.010,12.570,hard
1368.000,369.000,114.100,30.900,1350.000,303.700,96.380,22.340,223.600,63.730,20.030,6.402,395.700,111.200,38.040,12.530,hard
1356.000,364.000,112.600,30.480,1345.000,302.100,95.940,22.310,225.500,63.600,19.950,6.374,393.700,110.600,37.650,12.420,hard
1348.000,362.700,111.900,30.360,1339.000,300.800,95.650,22.300,222.100,63.490,19.860,6.378,392.800,110.300,37.570,12.370,hard
1341.000,361.900,112.300,30.380,1338.000,301.300,95.720,22.360,222.900,63.500,19.860,6.378,392.800,110.500,37.650,12.410,hard
1343.000,362.900,112.200,30.450,1341.000,301.400,95.640,22.260,225.400,63.780,19.860,6.377,391.800,110.400,37.630,12.420,hard
1342.000,362.700,112.100,30.420,1339.000,301.100,95.520,22.300,225.500,63.480,19.840,6.373,392.100,110.400,37.700,12.470,hard
1347.000,364.100,112.600,30.540,1341.000,301.800,95.880,22.380,223.500,63.600,19.910,6.384,393.200,110.600,37.830,12.520,hard
1353.000,366.200,112.900,30.690,1345.000,301.700,95.980,22.430,224.400,63.530,19.950,6.388,394.200,111.000,37.900,12.580,hard
1361.000,367.100,113.700,30.900,1348.000,302.900,96.330,22.360,223.200,63.730,19.940,6.403,394.700,111.400,38.100,12.640,hard
1367.000,368.900,114.100,30.880,1345.000,302.700,95.790,22.320,226.600,63.790,19.980,6.391,394.000,110.900,37.820,12.510,hard
1350.000,363.700,112.500,30.510,1338.000,300.800,95.560,22.180,222.100,63.240,19.780,6.360,392.800,110.400,37.560,12.440,hard
1341.000,362.400,111.700,30.340,1337.000,300.100,95.320,22.190,223.600,63.500,19.800,6.348,391.900,110.100,37.540,12.390,hard
1336.000,360.400,112.200,30.320,1335.000,300.900,95.300,22.220,222.500,63.440,19.830,6.351,391.200,110.300,37.650,12.390,hard
1338.000,362.300,111.600,30.350,1338.000,300.500,95.370,22.180,223.600,63.280,19.760,6.347,392.200,110.200,37.560,12.400,hard
1338.000,361.900,112.300,30.370,1335.000,300.700,95.380,22.200,223.800,63.380,19.800,6.349,391.200,110.200,37.540,12.470,hard
1343.000,363.100,112.500,30.580,1341.000,301.100,95.570,22.290,222.100,63.230,19.870,6.369,391.800,110.200,37.710,12.500,hard
1350.000,364.500,113.100,30.820,1344.000,301.600,95.800,22.310,225.500,63.600,19.860,6.370,393.100,110.700,37.820,12.570,hard
1357.000,365.700,113.700,30.940,1346.000,301.800,96.140,22.300,224.400,63.590,19.870,6.395,394.000,111.200,38.060,12.660,hard
1365.000,368.400,113.900,30.950,1348.000,301.500,95.800,22.230,225.800,63.540,19.830,6.384,393.500,110.700,37.760,12.510,hard
1346.000,362.700,112.000,30.480,1337.000,300.200,95.280,22.160,223.600,63.390,19.690,6.346,390.900,110.000,37.550,12.360,hard
1337.000,361.500,111.600,30.230,1327.000,299.800,94.930,22.110,222.500,63.580,19.680,6.322,390.200,109.600,37.240,12.310,hard
1329.000,359.500,111.100,30.220,1333.000,299.200,95.030,22.080,221.600,62.940,19.690,6.350,389.700,109.500,37.410,12.350,hard
1330.000,359.700,112.000,30.200,1330.000,299.200,95.160,22.140,222.200,63.310,19.740,6.332,389.300,109.400,37.290,12.320,hard
1329.000,359.300,111.500,30.230,1333.000,299.600,94.950,22.120,222.200,63.310,19.680,6.331,388.800,109.500,37.310,12.360,hard
1334.000,360.800,111.500,30.390,1334.000,299.700,95.260,22.140,224.100,62.960,19.740,6.338,389.500,109.700,37.470,12.430,hard
1341.000,360.600,112.300,30.550,1336.000,299.700,95.520,22.240,221.900,63.090,19.780,6.351,390.600,110.200,37.590,12.480,hard
1349.000,364.600,113.100,30.720,1339.000,301.100,95.640,22.270,223.300,63.600,19.800,6.362,391.900,110.500,37.760,12.560,hard
1357.000,365.900,113.400,30.650,1337.000,300.100,95.080,22.110,223.600,63.370,19.750,6.353,390.800,109.800,37.480,12.360,hard
1337.000,360.700,111.100,30.230,1333.000,299.500,95.040,22.020,224.500,62.760,19.740,6.322,388.700,109.300,37.180,12.280,hard
1329.000,359.500,111.000,30.100,1329.000,298.100,94.840,21.960,223.400,63.050,19.700,6.320,387.600,108.800,37.000,12.230,hard
1323.000,359.500,110.600,30.120,1333.000,298.200,94.970,22.050,222.700,62.920,19.680,6.332,387.500,108.800,37.100,12.280,hard
1325.000,357.600,110.600,30.060,1324.000,298.400,94.680,21.960,222.800,62.910,19.640,6.334,387.500,108.700,36.960,12.240,hard
1325.000,359.600,110.800,30.060,1331.000,298.400,94.870,22.080,223.600,63.170,19.650,6.313,387.400,108.800,37.090,12.310,hard
1329.000,358.700,111.000,30.150,1333.000,298.500,95.170,22.140,221.400,62.580,19.730,6.325,388.100,109.300,37.180,12.370,hard
1335.000,360.900,111.900,30.350,1335.000,300.300,95.390,22.160,222.000,63.360,19.720,6.360,390.100,109.400,37.420,12.420,hard
1345.000,363.900,112.500,30.640,1338.000,300.200,95.650,22.160,224.700,63.300,19.790,6.371,390.200,109.600,37.470,12.440,hard
1343.000,362.100,111.600,30.320,1337.000,298.300,94.850,21.990,223.800,62.990,19.730,6.332,387.700,108.700,37.120,12.290,hard
1327.000,358.700,110.400,30.050,1330.000,297.800,94.650,21.990,220.800,63.040,19.700,6.329,386.800,108.500,36.980,12.220,hard
1321.000,357.500,110.300,29.940,1330.000,298.200,94.750,22.010,222.100,63.200,19.650,6.329,386.600,108.200,37.000,12.240,hard
1324.000,358.900,110.500,30.100,1329.000,298.100,94.780,21.990,222.500,62.830,19.660,6.329,386.300,108.500,36.990,12.220,hard
1323.000,357.600,110.500,29.950,1331.000,297.400,94.870,22.020,222.900,62.870,19.670,6.330,386.700,108.400,36.940,12.250,hard
1327.000,358.700,110.900,30.100,1329.000,298.000,95.070,22.020,222.800,62.810,19.660,6.341,386.900,108.600,37.070,12.290,hard
1332.000,360.800,111.500,30.350,1333.000,299.600,95.390,22.090,221.900,62.810,19.730,6.336,387.600,109.000,37.250,12.380,hard
1341.000,361.400,112.000,30.560,1338.000,300.200,95.490,22.180,222.200,62.860,19.760,6.359,388.300,109.400,37.340,12.440,hard
1348.000,363.400,111.900,30.320,1334.000,298.900,95.020,22.040,223.700,63.040,19.680,6.344,387.800,108.700,37.060,12.260,hard
1328.000,358.100,111.100,30.010,1332.000,298.300,94.710,21.940,222.300,62.760,19.650,6.308,385.700,108.100,36.860,12.160,hard
1320.000,355.700,110.000,29.780,1326.000,297.900,94.570,21.930,224.000,62.540,19.660,6.317,384.700,107.800,36.630,12.180,hard
1317.000,357.100,110.300,29.940,1327.000,298.500,94.730,21.960,221.700,62.600,19.580,6.310,385.600,108.300,36.810,12.230,hard
1319.000,356.500,110.200,29.820,1328.000,297.800,94.550,21.910,222.300,62.740,19.630,6.332,384.800,107.700,36.740,12.160,hard
1321.000,358.000,109.900,29.910,1330.000,298.200,94.930,21.960,223.300,62.720,19.650,6.314,385.500,107.900,36.850,12.230,hard
1327.000,358.300,110.800,30.170,1334.000,299.000,94.870,22.020,223.400,62.750,19.630,6.337,386.200,108.300,36.990,12.280,hard
1334.000,360.300,111.500,30.310,1334.000,300.200,95.070,22.040,222.900,62.730,19.650,6.346,387.300,108.700,37.160,12.360,hard
1342.000,363.400,111.700,30.300,1334.000,299.800,95.180,21.940,223.000,62.700,19.680,6.346,387.000,108.300,36.990,12.240,hard
1327.000,358.400,110.400,29.850,1329.000,298.100,94.540,21.910,222.400,62.510,19.580,6.291,383.900,107.600,36.750,12.110,hard
1318.000,355.900,109.400,29.680,1330.000,297.300,94.380,21.880,223.200,62.590,19.600,6.282,383.700,107.300,36.520,12.060,hard
1312.000,354.600,109.500,29.550,1331.000,297.400,94.530,21.910,222.600,62.380,19.550,6.285,383.500,107.300,36.520,12.080,hard
1315.000,355.800,109.700,29.650,1331.000,297.500,94.480,21.910,222.200,62.570,19.590,6.288,383.000,107.500,36.480,12.120,hard
1315.000,355.400,109.500,29.640,1327.000,298.100,94.410,21.890,220.000,62.660,19.610,6.308,383.700,107.300,36.540,12.150,hard
1321.000,357.300,110.100,29.800,1333.000,298.600,94.730,22.000,223.100,62.400,19.630,6.313,384.400,107.800,36.700,12.200,hard
1327.000,357.900,110.600,29.980,1334.000,298.900,94.910,22.040,221.700,62.640,19.630,6.331,385.200,108.100,36.900,12.260,hard
1335.000,359.900,111.200,30.180,1337.000,299.800,95.190,22.070,222.100,62.710,19.720,6.346,386.900,108.400,37.030,12.270,hard
1339.000,361.200,110.800,29.930,1334.000,298.300,94.770,21.910,223.800,62.750,19.640,6.318,384.800,107.800,36.540,12.110,hard
1322.000,355.700,109.700,29.700,1327.000,298.000,94.480,21.890,221.400,62.800,19.620,6.302,384.000,107.200,36.500,12.050,hard
1316.000,355.400,109.100,29.420,1326.000,297.700,94.490,21.880,224.000,62.510,19.560,6.278,382.600,106.900,36.420,12.040,hard
1315.000,354.800,109.400,29.530,1329.000,298.400,94.730,21.850,221.400,62.820,19.560,6.288,382.800,107.200,36.360,12.000,hard
1315.000,355.800,109.200,29.590,1329.000,297.700,94.710,21.860,223.000,62.730,19.570,6.296,382.000,106.700,36.440,12.030,hard
1318.000,355.800,109.800,29.600,1329.000,298.100,94.740,21.890,223.500,62.360,19.560,6.312,383.100,107.200,36.500,12.110,hard
1324.000,357.400,110.300,29.720,1335.000,299.100,94.820,22.010,221.200,62.620,19.580,6.314,384.400,107.500,36.600,12.170,hard
1331.000,359.200,110.900,29.950,1336.000,299.100,95.240,22.000,221.400,62.850,19.690,6.344,385.400,107.800,36.840,12.250,hard
1339.000,360.200,111.400,30.180,1342.000,300.300,94.980,22.020,222.500,62.840,19.680,6.365,386.700,108.200,36.920,12.240,hard
1336.000,358.400,110.400,29.770,1334.000,298.700,94.560,21.870,222.800,62.790,19.630,6.301,384.900,107.500,36.560,12.060,hard
1324.000,356.200,109.500,29.630,1330.000,298.000,94.620,21.840,221.800,62.550,19.660,6.276,383.700,107.500,36.350,11.980,hard
1316.000,355.400,109.200,29.450,1333.000,298.300,94.420,21.850,222.000,62.540,19.610,6.289,382.600,107.100,36.440,12.020,hard
1316.000,355.600,109.500,29.560,1333.000,297.700,94.350,21.850,222.000,62.710,19.580,6.309,383.000,107.200,36.400,12.010,hard
1317.000,356.200,109.700,29.580,1332.000,298.200,94.620,21.860,222.400,62.780,19.640,6.295,384.300,107.300,36.460,12.060,hard
1321.000,357.500,109.900,29.710,1333.000,297.300,94.720,21.950,223.600,62.890,19.650,6.316,383.700,107.500,36.640,12.140,hard
1328.000,358.400,110.600,29.830,1337.000,298.900,94.960,21.930,224.000,62.800,19.690,6.337,385.900,108.200,36.700,12.210,hard
1336.000,361.900,111.100,30.040,1338.000,299.500,95.140,22.030,222.700,62.900,19.750,6.344,386.600,108.500,36.870,12.280,hard
1345.000,362.300,112.000,30.230,1341.000,299.700,95.190,21.990,222.900,62.850,19.740,6.360,387.400,108.700,37.050,12.210,hard
1339.000,360.200,110.500,29.840,1335.000,298.900,94.480,21.860,222.800,62.700,19.690,6.326,385.000,108.000,36.680,12.080,hard
1325.000,356.700,110.100,29.610,1328.000,297.200,94.330,21.840,223.700,63.120,19.660,6.289,384.400,107.500,36.510,12.000,hard
1319.000,355.500,109.700,29.500,1330.000,297.600,94.260,21.830,224.400,62.790,19.610,6.278,384.500,107.600,36.620,12.070,hard
1320.000,355.500,110.200,29.590,1332.000,297.400,94.200,21.750,222.600,62.820,19.640,6.303,385.300,107.800,36.520,12.080,hard
1320.000,356.200,110.000,29.620,1336.000,298.600,94.280,21.850,223.700,62.820,19.680,6.302,384.900,107.800,36.730,12.090,hard
1324.000,355.700,110.500,29.730,1332.000,297.900,94.540,21.840,222.600,63.090,19.650,6.321,385.900,108.200,36.800,12.150,hard
1331.000,358.800,110.900,29.920,1331.000,298.200,94.800,21.950,223.100,63.120,19.750,6.334,387.900,108.500,36.890,12.220,hard
1339.000,361.500,111.400,30.080,1337.000,299.400,95.170,21.990,223.700,63.280,19.710,6.357,388.600,108.900,37.180,12.310,hard
1347.000,363.400,112.100,30.320,1344.000,301.100,94.890,21.950,225.500,63.470,19.840,6.352,389.300,109.500,37.330,12.320,hard
1343.000,359.400,111.200,29.920,1335.000,298.200,94.440,21.830,224.600,63.220,19.830,6.339,387.300,108.400,36.830,12.170,hard
1328.000,358.500,110.200,29.660,1331.000,297.100,94.430,21.820,225.800,63.390,19.740,6.300,387.200,108.200,36.730,12.140,hard
1322.000,356.100,109.700,29.540,1329.000,296.900,94.320,21.830,224.100,63.250,19.730,6.326,387.200,108.300,36.830,12.170,hard
1322.000,356.400,110.300,29.690,1334.000,297.600,94.230,21.840,222.800,63.070,19.740,6.320,386.800,108.500,36.810,12.140,hard
1320.000,356.700,109.900,29.700,1332.000,297.600,94.260,21.880,223.200,63.010,19.730,6.322,387.100,108.400,36.890,12.150,hard
1324.000,356.600,110.300,29.870,1330.000,296.900,94.280,21.940,225.200,63.020,19.820,6.342,387.800,108.700,37.090,12.270,hard
1329.000,359.100,110.900,30.070,1333.000,298.500,94.560,21.960,224.200,63.570,19.770,6.356,390.000,109.200,37.180,12.280,hard
1338.000,360.000,111.700,30.230,1337.000,299.200,94.790,22.040,226.900,63.460,19.860,6.356,390.600,109.500,37.300,12.400,hard
1346.000,363.200,111.900,30.280,1339.000,298.700,94.770,21.900,224.300,63.490,19.890,6.384,389.300,109.300,37.120,12.310,hard
1330.000,359.100,110.700,29.860,1330.000,297.500,94.620,21.850,224.000,63.400,19.810,6.333,387.600,108.500,37.030,12.210,hard
1322.000,357.900,109.800,29.680,1328.000,297.000,94.150,21.750,223.900,63.450,19.770,6.317,387.300,108.500,36.830,12.150,hard
1315.000,355.600,109.700,29.780,1326.000,297.000,94.360,21.840,224.300,63.400,19.790,6.318,387.900,108.700,36.980,12.230,hard
1317.000,357.200,110.100,29.670,1328.000,297.300,94.310,21.810,224.900,63.510,19.800,6.334,387.200,108.600,37.000,12.190,hard
1317.000,357.000,109.900,29.750,1329.000,297.400,94.040,21.820,224.800,63.320,19.760,6.335,388.000,108.900,37.080,12.270,hard
1323.000,358.200,110.900,29.950,1331.000,297.800,94.330,21.890,222.500,63.210,19.850,6.345,388.400,109.100,37.240,12.360,hard
1330.000,359.800,111.100,30.110,1334.000,298.700,94.510,21.950,224.600,63.470,19.840,6.365,390.200,109.700,37.350,12.430,hard
1340.000,360.300,112.100,30.330,1337.000,299.200,94.900,21.920,224.400,63.890,19.830,6.375,391.400,109.800,37.550,12.470,hard
1340.000,361.000,111.100,29.960,1331.000,297.900,94.340,21.740,223.900,63.580,19.780,6.359,389.100,109.300,37.160,12.270,hard
1320.000,357.700,110.300,29.740,1325.000,296.600,93.870,21.680,225.100,63.380,19.790,6.316,388.000,108.700,37.040,12.200,hard
1312.000,355.000,109.400,29.600,1322.000,296.600,93.980,21.690,223.400,63.210,19.720,6.303,387.600,108.400,36.930,12.200,hard
1310.000,354.600,109.700,29.770,1323.000,296.400,93.970,21.770,223.200,63.450,19.750,6.322,387.600,108.700,37.080,12.230,hard
1312.000,355.300,109.600,29.730,1325.000,296.800,94.140,21.710,224.600,63.480,19.740,6.340,388.100,108.800,37.170,12.250,hard
1314.000,356.800,110.300,29.840,1326.000,296.700,94.080,21.740,224.000,63.140,19.790,6.337,388.200,108.900,37.140,12.310,hard
1321.000,358.400,110.500,30.090,1330.000,298.000,94.510,21.800,224.100,63.080,19.780,6.359,388.800,109.200,37.490,12.380,hard
1330.000,361.800,111.400,30.250,1334.000,298.400,94.610,21.880,223.400,63.520,19.830,6.362,389.800,109.700,37.470,12.460,hard
1339.000,362.000,112.200,30.450,1339.000,299.500,94.890,21.920,225.000,63.330,19.810,6.374,390.900,110.000,37.790,12.530,hard
1350.000,366.100,113.000,30.580,1334.000,298.700,94.680,21.870,224.100,63.940,19.850,6.353,390.100,109.700,37.480,12.360,hard
1328.000,358.800,110.800,30.000,1329.000,297.600,94.010,21.670,224.500,63.430,19.770,6.328,387.600,108.900,37.170,12.290,hard
1317.000,356.900,110.100,29.770,1321.000,297.300,93.860,21.650,224.800,63.330,19.770,6.307,387.600,108.900,37.110,12.240,hard
1310.000,354.400,109.900,29.810,1324.000,297.100,93.860,21.670,225.100,63.220,19.710,6.301,387.000,108.700,37.090,12.260,hard
1312.000,356.300,110.200,29.880,1323.000,297.000,94.000,21.650,224.300,63.250,19.740,6.321,387.100,108.500,37.140,12.270,hard
1313.000,356.500,110.000,29.890,1324.000,296.700,93.980,21.700,225.700,63.210,19.730,6.317,387.300,108.800,37.240,12.310,hard
1317.000,357.500,110.200,30.070,1325.000,297.500,94.330,21.710,222.600,63.440,19.720,6.312,387.500,109.000,37.300,12.360,hard
1326.000,360.300,111.100,30.250,1331.000,297.700,94.530,21.790,223.800,63.500,19.790,6.341,388.300,109.700,37.440,12.430,hard
1335.000,361.900,111.600,30.460,1335.000,298.700,94.810,21.830,225.200,63.470,19.810,6.338,389.500,109.900,37.620,12.510,hard
1346.000,365.300,112.300,30.570,1341.000,298.800,94.620,21.720,223.600,63.600,19.790,6.344,388.900,109.600,37.450,12.370,hard
1326.000,359.600,110.400,30.080,1328.000,297.500,94.020,21.650,222.000,63.120,19.690,6.301,386.600,108.800,37.150,12.270,hard
1316.000,358.100,109.900,29.860,1322.000,296.500,93.710,21.660,223.300,63.400,19.720,6.295,386.100,108.500,37.090,12.280,hard
1310.000,355.700,110.100,29.840,1325.000,296.100,93.970,21.680,223.000,63.110,19.630,6.287,385.400,108.600,37.100,12.270,hard
1315.000,356.800,110.000,29.870,1322.000,296.200,93.820,21.610,223.600,63.060,19.710,6.298,385.100,108.500,37.050,12.260,hard
1314.000,357.700,110.600,30.000,1326.000,297.100,94.150,21.620,222.500,62.840,19.680,6.288,386.000,108.500,37.140,12.280,hard
1319.000,357.700,110.500,30.040,1328.000,297.900,94.300,21.760,222.300,63.150,19.680,6.304,386.700,108.900,37.320,12.360,hard
1327.000,360.300,111.600,30.340,1329.000,298.400,94.430,21.800,223.200,63.170,19.680,6.333,387.300,109.200,37.430,12.450,hard
1337.000,362.400,112.300,30.580,1336.000,298.500,94.370,21.790,224.300,63.300,19.740,6.311,388.400,109.300,37.540,12.430,hard
1332.000,359.300,110.900,30.080,1331.000,297.300,93.940,21.620,222.400,63.060,19.700,6.291,385.200,108.100,37.120,12.230,hard
1315.000,356.700,110.300,29.910,1327.000,296.100,93.830,21.630,221.900,62.780,19.630,6.271,384.200,107.900,36.900,12.200,hard
1309.000,355.300,109.800,29.830,1324.000,296.100,93.940,21.620,222.100,62.880,19.610,6.288,383.300,108.000,36.850,12.260,hard
1313.000,356.600,110.200,29.810,1330.000,296.600,93.890,21.630,222.800,63.030,19.600,6.273,383.500,108.000,36.890,12.270,hard
1312.000,356.000,109.900,29.780,1325.000,296.000,93.680,21.630,222.600,62.630,19.570,6.272,383.400,107.900,36.960,12.270,hard
1315.000,355.700,110.500,30.020,1330.000,296.600,94.160,21.680,221.400,62.830,19.640,6.305,384.500,108.100,37.030,12.320,hard
1322.000,357.700,110.700,30.100,1330.000,298.000,94.140,21.730,221.500,62.830,19.600,6.301,384.700,108.500,37.260,12.400,hard
1333.000,360.600,112.100,30.300,1337.000,298.600,94.340,21.670,224.300,62.920,19.690,6.308,386.100,108.600,37.240,12.360,hard
1324.000,357.800,110.300,29.840,1324.000,296.900,93.700,21.560,223.500,62.790,19.650,6.284,382.600,107.500,36.730,12.170,hard
1308.000,354.000,109.600,29.610,1323.000,295.300,93.140,21.500,220.600,62.600,19.530,6.253,380.500,107.000,36.430,12.060,hard
1300.000,352.500,108.600,29.510,1318.000,295.100,93.320,21.460,220.900,62.340,19.490,6.262,379.600,106.900,36.580,12.150,hard
1301.000,353.500,108.800,29.530,1318.000,295.100,93.250,21.430,221.700,62.320,19.500,6.252,379.800,106.800,36.470,12.110,hard
1301.000,353.500,108.800,29.580,1317.000,294.800,93.180,21.490,219.800,62.330,19.530,6.253,378.900,106.600,36.530,12.110,hard
1304.000,354.300,109.000,29.520,1322.000,294.800,93.280,21.470,219.100,62.540,19.450,6.255,379.400,106.800,36.650,12.170,hard
1307.000,354.100,109.200,29.630,1325.000,295.900,93.280,21.530,221.100,62.450,19.510,6.279,380.600,107.000,36.730,12.230,hard
1316.000,357.000,109.800,29.790,1323.000,295.000,93.070,21.450,221.400,62.600,19.590,6.293,380.600,107.000,36.660,12.170,hard
1301.000,352.100,107.800,29.050,1313.000,292.600,92.310,21.250,220.600,62.480,19.470,6.243,377.600,106.000,36.200,11.990,hard
1285.000,345.300,106.500,28.800,1308.000,291.900,92.100,21.190,219.700,62.200,19.450,6.217,374.900,105.100,36.020,11.890,hard
1274.000,345.000,105.800,28.580,1302.000,290.900,92.070,21.190,219.500,61.860,19.360,6.200,374.300,105.000,35.850,11.900,hard
1274.000,344.200,106.200,28.660,1306.000,290.700,91.840,21.130,219.300,61.960,19.370,6.213,374.000,104.800,35.800,11.870,hard
1273.000,344.800,105.800,28.680,1300.000,291.200,91.900,21.130,220.100,62.180,19.450,6.227,373.800,104.800,35.910,11.910,hard
1275.000,346.000,105.900,28.720,1303.000,291.700,92.000,21.210,218.400,61.970,19.440,6.241,373.900,105.200,35.960,11.960,hard
1280.000,346.700,106.200,28.790,1308.000,291.900,92.210,21.210,220.300,61.900,19.440,6.235,375.700,105.400,36.110,12.010,hard
1288.000,348.500,106.900,29.060,1309.000,291.500,92.470,21.260,222.200,62.110,19.450,6.246,376.400,105.900,36.240,12.070,hard
1289.000,348.300,106.300,28.650,1305.000,290.500,91.500,21.100,219.900,62.120,19.420,6.221,374.000,104.800,35.850,11.840,hard
1268.000,340.800,104.700,28.300,1297.000,289.500,91.400,21.040,220.100,62.180,19.340,6.203,372.200,104.300,35.640,11.710,hard
1257.000,339.800,104.100,28.030,1293.000,288.800,91.210,21.040,218.600,61.710,19.320,6.189,370.500,103.500,35.340,11.690,hard
1254.000,339.200,104.000,28.090,1294.000,288.400,91.110,21.020,219.100,61.790,19.260,6.208,370.800,103.700,35.390,11.680,hard
1254.000,339.100,104.200,28.020,1297.000,289.000,91.150,21.090,219.100,61.820,19.320,6.203,371.000,103.600,35.350,11.710,hard
1255.000,339.200,104.200,28.110,1296.000,288.900,91.290,21.070,219.700,61.780,19.350,6.218,371.200,103.800,35.510,11.730,hard
1263.000,340.500,104.600,28.280,1300.000,290.100,91.490,21.130,220.100,62.370,19.370,6.244,372.300,104.000,35.620,11.830,hard
1269.000,342.200,105.300,28.430,1303.000,290.300,91.630,21.220,221.300,62.090,19.420,6.266,373.800,104.600,35.770,11.900,hard
1276.000,343.100,106.200,28.650,1305.000,291.500,92.040,21.290,220.700,62.140,19.490,6.286,374.300,105.000,35.970,11.980,hard
1286.000,346.400,106.600,28.740,1308.000,291.500,91.930,21.190,221.600,62.260,19.560,6.309,375.100,105.000,35.770,11.850,hard
1271.000,342.000,104.800,28.280,1301.000,289.200,91.360,21.100,220.200,62.140,19.440,6.266,372.800,104.100,35.450,11.710,hard
1261.000,339.300,104.500,28.000,1297.000,288.100,91.250,21.090,220.800,61.810,19.420,6.242,371.600,103.500,35.380,11.630,hard
1255.000,338.500,104.100,27.920,1295.000,289.400,91.620,21.150,220.700,62.140,19.390,6.245,371.700,103.900,35.370,11.680,hard
1258.000,338.300,104.300,28.120,1297.000,289.600,91.670,21.310,221.300,62.250,19.430,6.255,371.200,104.000,35.320,11.690,hard
1263.000,340.500,105.100,28.270,1300.000,290.800,91.990,21.300,220.600,62.030,19.500,6.275,371.200,104.000,35.490,11.700,hard
1271.000,342.900,105.500,28.400,1308.000,292.200,92.350,21.410,220.500,62.220,19.510,6.287,374.000,104.400,35.640,11.810,hard
1283.000,345.900,106.400,28.710,1315.000,294.200,92.920,21.510,222.300,62.300,19.610,6.308,374.700,105.100,35.840,11.890,hard
1294.000,348.800,107.300,29.010,1320.000,294.900,93.320,21.690,221.000,62.580,19.650,6.349,376.900,105.400,36.070,11.940,hard
1303.000,351.200,108.100,29.280,1329.000,296.100,93.690,21.750,223.100,62.830,19.710,6.350,378.000,106.200,36.170,12.070,hard
1316.000,353.800,109.300,29.430,1326.000,296.900,93.630,21.660,222.600,63.250,19.750,6.366,379.100,106.300,36.160,11.960,hard
1305.000,350.300,107.700,28.990,1317.000,294.900,93.340,21.650,222.800,63.010,19.720,6.314,377.400,105.500,35.920,11.850,hard
1298.000,349.300,107.200,28.860,1323.000,294.800,93.340,21.600,222.400,62.750,19.680,6.300,375.600,105.200,35.840,11.780,hard
1293.000,347.500,106.900,28.890,1323.000,294.900,93.370,21.590,221.700,62.930,19.660,6.314,376.600,105.300,35.810,11.810,hard
1297.000,351.400,107.500,28.870,1321.000,295.600,93.390,21.660,223.500,63.000,19.670,6.321,376.800,105.400,35.860,11.790,hard
1296.000,349.500,107.400,29.000,1328.000,295.400,93.680,21.710,222.900,62.880,19.730,6.335,377.200,105.500,35.960,11.870,hard
1302.000,352.700,108.200,29.130,1327.000,297.200,94.130,21.810,222.200,63.010,19.750,6.353,378.400,105.800,36.070,11.930,hard
1310.000,353.300,108.800,29.290,1327.000,297.200,94.130,21.800,224.500,63.190,19.790,6.370,380.600,106.200,36.300,12.010,hard
1318.000,354.000,109.500,29.460,1333.000,297.600,94.450,21.860,223.600,63.050,19.830,6.384,382.100,106.700,36.580,12.080,hard
1326.000,356.200,110.200,29.700,1335.000,298.300,94.210,21.820,225.500,63.380,19.860,6.390,382.800,106.700,36.460,12.030,hard
1318.000,354.000,109.000,29.300,1329.000,296.800,94.080,21.710,224.400,63.200,19.790,6.350,380.700,106.400,36.230,11.920,hard
1309.000,353.600,108.700,29.140,1329.000,297.300,94.000,21.670,223.500,63.060,19.810,6.335,380.500,106.400,36.080,11.860,hard
1304.000,352.300,108.100,29.150,1325.000,297.300,93.860,21.720,225.800,62.970,19.760,6.347,380.900,106.100,36.250,11.910,hard
1308.000,353.200,108.900,29.210,1330.000,296.900,94.020,21.740,222.200,63.470,19.860,6.360,380.500,106.300,36.290,11.930,hard
1308.000,351.900,108.600,29.360,1329.000,296.700,93.970,21.690,224.500,63.260,19.800,6.361,381.800,106.600,36.320,11.950,hard
1313.000,355.200,109.100,29.430,1331.000,297.800,94.480,21.770,224.700,63.250,19.890,6.371,382.400,107.100,36.440,12.020,hard
1319.000,356.600,109.700,29.660,1337.000,298.500,94.690,21.830,224.300,63.360,19.870,6.387,383.800,107.800,36.610,12.100,hard
1328.000,358.000,110.400,29.850,1337.000,299.800,94.800,21.880,225.200,63.770,19.890,6.393,384.500,107.900,36.830,12.170,hard
1338.000,361.600,111.400,30.080,1341.000,300.000,94.930,21.940,225.800,63.610,19.920,6.426,386.300,108.200,36.780,12.180,hard
1330.000,357.400,110.200,29.580,1335.000,299.100,94.310,21.740,227.100,63.450,19.830,6.351,383.300,107.200,36.510,12.030,hard
1316.000,354.500,109.800,29.410,1329.000,298.000,94.440,21.700,226.500,63.620,19.780,6.334,382.500,107.100,36.350,11.950,hard
1308.000,353.700,109.200,29.260,1321.000,297.800,93.970,21.720,223.300,63.490,19.790,6.331,383.700,107.000,36.400,11.980,hard
1308.000,355.600,109.500,29.380,1329.000,297.600,94.020,21.710,225.100,63.480,19.810,6.345,383.100,107.200,36.390,11.980,hard
1307.000,354.100,109.000,29.440,1325.000,297.700,93.950,21.720,224.500,63.560,19.840,6.352,382.800,107.300,36.460,12.020,hard
1309.000,354.200,109.300,29.490,1327.000,297.600,94.340,21.730,224.700,63.480,19.800,6.376,384.200,107.500,36.570,12.080,hard
1314.000,356.800,109.800,29.710,1328.000,298.900,94.680,21.820,224.700,63.720,19.870,6.379,385.300,107.900,36.730,12.160,hard
1321.000,358.300,110.400,29.890,1333.000,298.300,94.600,21.810,225.800,63.530,19.850,6.400,386.100,108.400,36.930,12.210,hard
1329.000,360.200,110.900,29.930,1337.000,299.100,94.370,21.720,226.200,63.620,19.860,6.375,385.800,108.100,36.630,12.100,hard
1312.000,354.600,109.800,29.430,1327.000,297.000,94.140,21.690,226.400,63.450,19.810,6.356,383.500,107.400,36.470,11.980,hard
1302.000,354.400,108.500,29.280,1322.000,296.500,93.840,21.610,223.500,63.520,19.760,6.335,382.400,107.100,36.310,11.940,hard
1295.000,351.400,108.700,29.210,1322.000,296.600,93.850,21.630,223.000,63.200,19.770,6.326,383.200,107.400,36.510,11.990,hard
1296.000,352.200,108.800,29.260,1320.000,295.800,93.700,21.640,224.800,63.500,19.790,6.340,381.700,107.100,36.430,12.000,hard
1294.000,352.400,108.600,29.270,1318.000,296.500,93.800,21.600,223.800,63.240,19.790,6.338,383.100,107.300,36.400,12.010,hard
1298.000,351.500,109.100,29.400,1319.000,297.400,93.950,21.650,226.000,63.390,19.800,6.362,383.400,107.300,36.590,12.100,hard
1304.000,354.100,109.400,29.590,1327.000,297.400,94.330,21.710,224.300,63.570,19.820,6.375,384.800,108.000,36.690,12.140,hard
1312.000,356.100,110.200,29.790,1326.000,297.500,94.020,21.700,224.400,63.680,19.840,6.364,386.400,107.800,36.730,12.110,hard
1304.000,354.000,108.700,29.300,1318.000,296.100,93.660,21.560,224.400,63.660,19.800,6.341,382.800,106.900,36.390,11.980,hard
1289.000,351.000,107.500,29.000,1312.000,295.200,93.430,21.490,224.500,63.380,19.750,6.316,381.400,106.700,36.250,11.880,hard
1280.000,350.900,107.500,28.970,1312.000,294.900,93.490,21.510,224.500,63.290,19.700,6.311,380.900,106.700,36.280,11.920,hard
1282.000,348.500,107.600,29.010,1307.000,295.000,93.520,21.500,225.400,63.260,19.750,6.304,381.000,106.700,36.250,11.890,hard
1279.000,348.500,107.300,28.980,1310.000,294.500,93.260,21.530,224.400,63.280,19.670,6.323,380.600,106.600,36.160,11.930,hard
1282.000,349.500,107.400,29.020,1314.000,295.200,93.470,21.560,223.000,63.280,19.710,6.333,381.000,107.000,36.220,11.990,hard
1287.000,351.500,108.500,29.270,1316.000,295.100,93.550,21.560,224.300,63.220,19.760,6.334,382.100,107.100,36.400,12.030,hard
1295.000,351.800,108.600,29.450,1322.000,296.400,93.680,21.660,223.500,63.390,19.780,6.340,383.400,107.800,36.670,12.120,hard
1301.000,352.400,108.700,29.260,1315.000,295.400,93.160,21.500,223.800,63.140,19.780,6.322,381.900,106.600,36.320,11.910,hard
1281.000,348.600,107.000,28.950,1311.000,294.300,92.970,21.410,224.100,62.990,19.680,6.299,379.300,105.900,35.960,11.820,hard
1272.000,345.900,106.300,28.680,1307.000,293.100,92.670,21.350,221.800,63.030,19.650,6.270,377.300,105.700,35.860,11.740,hard
1265.000,346.200,106.000,28.760,1304.000,293.400,92.880,21.400,221.700,63.180,19.620,6.272,378.100,105.700,35.800,11.750,hard
1267.000,345.400,105.800,28.630,1307.000,293.200,92.700,21.400,222.700,62.670,19.630,6.282,377.100,105.600,35.810,11.760,hard
1266.000,344.900,106.200,28.660,1311.000,293.600,92.990,21.370,220.900,62.840,19.590,6.279,377.200,105.700,35.870,11.800,hard
1271.000,346.500,106.600,28.830,1312.000,293.900,93.340,21.450,222.700,62.800,19.630,6.287,378.400,106.000,36.000,11.870,hard
1279.000,349.100,107.500,28.950,1314.000,294.600,93.510,21.540,222.300,62.840,19.680,6.309,378.600,106.400,36.090,11.900,hard
1285.000,349.200,107.600,29.070,1319.000,296.600,93.640,21.610,222.200,63.020,19.690,6.313,379.300,106.500,36.260,11.980,hard
1294.000,351.900,108.300,29.310,1320.000,296.200,93.920,21.590,223.500,62.900,19.700,6.335,380.600,106.800,36.400,11.950,hard
1290.000,351.000,107.300,28.810,1318.000,294.200,93.240,21.480,223.200,63.120,19.610,6.284,378.500,105.900,35.840,11.780,hard
1276.000,346.100,106.400,28.630,1313.000,294.000,92.710,21.380,221.900,62.600,19.570,6.257,376.200,105.200,35.690,11.700,hard
1267.000,343.900,105.600,28.480,1310.000,294.200,92.900,21.390,220.900,62.560,19.550,6.241,374.600,105.000,35.590,11.690,hard
1267.000,343.600,105.800,28.520,1308.000,294.400,93.070,21.440,220.900,62.400,19.550,6.265,375.000,104.800,35.550,11.670,hard
1267.000,345.200,105.700,28.490,1315.000,293.400,93.030,21.420,221.200,62.230,19.530,6.255,375.800,104.600,35.650,11.690,hard
1270.000,345.900,106.000,28.580,1314.000,294.000,93.280,21.440,221.600,62.450,19.560,6.249,375.500,105.000,35.730,11.740,hard
1277.000,348.000,106.400,28.790,1317.000,294.900,93.480,21.530,220.000,62.580,19.560,6.273,375.700,105.400,35.820,11.800,hard
1283.000,348.300,107.100,28.920,1322.000,296.000,93.640,21.510,223.500,62.500,19.550,6.274,376.600,105.700,35.930,11.840,hard
1292.000,349.600,107.600,29.060,1324.000,296.300,93.650,21.590,223.000,62.940,19.630,6.302,378.200,105.800,36.040,11.860,hard
1289.000,350.100,107.000,28.800,1318.000,295.100,93.430,21.510,222.200,62.480,19.530,6.272,375.800,105.100,35.720,11.690,hard
1279.000,346.200,106.000,28.490,1314.000,295.400,93.030,21.420,220.500,62.320,19.530,6.257,374.300,104.500,35.390,11.630,hard
1272.000,346.200,105.400,28.460,1315.000,294.700,92.970,21.410,220.400,62.510,19.510,6.235,373.900,104.300,35.420,11.620,hard
1274.000,345.500,106.000,28.480,1314.000,295.300,93.060,21.440,219.800,62.630,19.490,6.216,373.300,104.200,35.440,11.630,hard
1273.000,345.400,106.200,28.470,1317.000,295.000,93.150,21.490,219.800,62.310,19.460,6.248,373.400,104.500,35.430,11.640,hard
1278.000,347.200,106.400,28.590,1319.000,295.600,93.310,21.520,220.700,62.350,19.510,6.246,374.400,104.800,35.580,11.710,hard
1284.000,348.400,106.700,28.780,1322.000,296.700,93.470,21.580,221.300,62.380,19.510,6.280,374.300,105.000,35.740,11.770,hard
1292.000,350.200,107.600,28.880,1329.000,297.400,93.840,21.610,220.200,62.550,19.560,6.272,375.900,105.400,35.830,11.830,hard
1300.000,352.200,107.800,29.060,1331.000,296.700,93.680,21.600,221.800,62.450,19.600,6.283,376.500,105.100,35.650,11.720,hard
1291.000,349.300,106.500,28.620,1324.000,296.200,93.420,21.490,219.500,62.350,19.450,6.226,373.700,104.300,35.320,11.600,hard
1283.000,346.100,105.700,28.390,1319.000,295.800,93.480,21.510,220.400,62.160,19.450,6.235,373.100,103.900,35.260,11.540,hard
1276.000,345.800,105.600,28.360,1321.000,295.300,93.460,21.510,220.700,62.080,19.440,6.232,373.300,104.000,35.270,11.570,hard
1279.000,346.300,106.000,28.330,1324.000,296.100,93.160,21.500,220.400,62.460,19.460,6.237,372.600,104.100,35.270,11.540,hard
1279.000,347.200,106.000,28.330,1325.000,296.000,93.440,21.550,220.900,62.310,19.480,6.233,373.300,104.300,35.280,11.580,hard
1280.000,346.700,105.200,28.190,1320.000,295.800,93.240,21.470,221.600,62.610,19.460,6.234,373.100,103.600,35.160,11.510,bogus
1277.000,345.300,105.400,28.190,1317.000,295.700,93.390,21.510,220.000,62.520,19.500,6.250,373.000,103.900,35.180,11.490,bogus
1277.000,345.200,105.500,28.270,1320.000,295.200,93.380,21.520,221.600,62.240,19.510,6.251,373.700,104.200,35.270,11.550,bogus
1278.000,345.300,105.400,28.280,1320.000,295.400,93.560,21.570,221.400,62.490,19.540,6.261,374.500,104.300,35.290,11.630,bogus
1284.000,346.100,105.800,28.420,1322.000,296.400,93.770,21.660,221.500,62.480,19.530,6.276,375.400,104.500,35.490,11.650,bogus
1338.000,359.600,111.400,30.080,1335.000,295.700,93.110,21.590,219.900,61.850,19.200,6.134,382.100,106.900,36.550,12.170,easy
1345.000,362.900,111.800,30.280,1337.000,297.200,93.600,21.640,221.500,61.630,19.190,6.140,383.700,107.400,36.780,12.250,easy
1354.000,363.500,112.600,30.560,1341.000,297.600,93.720,21.680,220.500,62.140,19.260,6.165,384.600,107.600,36.940,12.330,easy
1364.000,366.500,113.100,30.710,1347.000,297.700,93.870,21.760,221.700,62.150,19.310,6.164,386.000,108.300,37.120,12.410,easy
1374.000,368.900,114.100,30.970,1351.000,298.600,93.910,21.700,221.400,62.380,19.310,6.177,387.500,108.500,37.130,12.350,easy
1364.000,366.000,112.400,30.340,1345.000,297.100,93.610,21.530,221.800,62.010,19.190,6.115,384.300,107.300,36.680,12.170,easy
1350.000,363.800,111.600,30.130,1342.000,296.400,93.040,21.440,222.100,61.960,19.240,6.096,383.400,107.200,36.620,12.120,easy
1343.000,362.500,111.400,30.010,1338.000,296.400,92.990,21.400,223.000,61.790,19.150,6.079,382.900,107.000,36.580,12.100,easy
1341.000,361.600,111.200,30.010,1339.000,295.600,93.020,21.400,218.800,61.920,19.220,6.064,383.300,107.200,36.580,12.080,easy
1339.000,360.300,110.800,30.010,1337.000,295.600,92.940,21.310,222.100,62.200,19.130,6.079,383.700,107.000,36.540,12.110,easy
1341.000,362.100,111.500,30.060,1338.000,296.500,93.090,21.360,221.500,61.760,19.140,6.065,383.000,107.100,36.710,12.150,easy
1344.000,361.700,111.800,30.210,1340.000,296.600,92.910,21.400,221.700,61.970,19.190,6.091,384.400,107.300,36.700,12.190,easy
1350.000,363.700,112.000,30.370,1342.000,297.400,93.390,21.490,222.000,62.180,19.170,6.097,385.200,107.700,36.930,12.240,easy
1354.000,364.600,112.700,30.470,1342.000,297.400,93.690,21.500,222.100,62.300,19.200,6.110,385.000,107.900,37.030,12.300,easy
1361.000,366.200,113.100,30.620,1348.000,297.800,93.680,21.560,222.200,62.190,19.260,6.123,386.200,108.600,37.090,12.360,easy
1366.000,369.100,113.600,30.760,1351.000,298.100,93.960,21.580,222.800,62.090,19.260,6.111,388.300,108.600,37.220,12.450,easy
1374.000,370.100,114.600,30.930,1354.000,299.200,94.060,21.720,222.700,62.620,19.340,6.147,388.100,109.000,37.410,12.460,easy
1381.000,372.700,115.100,31.200,1357.000,300.300,94.560,21.800,221.200,62.340,19.340,6.146,389.600,109.500,37.680,12.570,easy
1387.000,372.500,114.700,30.890,1349.000,299.100,93.870,21.600,222.700,62.580,19.340,6.117,388.300,108.800,37.210,12.300,easy
1361.000,365.800,113.100,30.420,1341.000,298.500,93.510,21.610,221.000,62.190,19.190,6.073,385.600,108.000,36.860,12.200,easy
1351.000,364.100,112.300,30.280,1339.000,297.800,93.620,21.640,221.600,62.190,19.200,6.063,385.000,107.700,36.750,12.190,easy
1344.000,362.300,112.200,30.290,1336.000,297.300,93.710,21.570,220.600,62.230,19.150,6.085,384.800,107.600,36.680,12.190,easy
1342.000,363.200,111.700,30.110,1336.000,296.000,93.530,21.580,221.100,61.830,19.180,6.071,383.500,107.200,36.730,12.140,easy
1337.000,361.500,111.700,30.230,1336.000,297.100,93.570,21.590,220.500,61.970,19.080,6.070,383.800,107.600,36.790,12.190,easy
1339.000,363.100,112.100,30.240,1337.000,297.200,93.550,21.590,221.900,61.880,19.130,6.074,383.300,107.700,36.740,12.220,easy
1342.000,365.400,112.400,30.420,1337.000,297.200,93.840,21.690,221.500,62.050,19.160,6.074,383.900,107.800,36.980,12.260,easy
1347.000,365.000,112.800,30.580,1336.000,297.400,93.910,21.750,222.100,62.350,19.190,6.089,384.800,108.100,37.050,12.300,easy
1350.000,365.800,112.800,30.670,1340.000,297.900,93.910,21.740,222.000,62.320,19.150,6.105,385.600,108.200,37.090,12.370,easy
1355.000,367.700,113.500,30.710,1340.000,297.700,94.230,21.720,222.100,62.360,19.220,6.101,386.000,108.600,37.240,12.420,easy
1361.000,369.300,113.900,30.980,1344.000,298.500,94.330,21.760,222.700,62.070,19.220,6.097,387.200,108.900,37.360,12.480,easy
1369.000,370.700,114.500,31.120,1344.000,299.500,94.390,21.830,221.300,62.500,19.230,6.119,388.100,109.200,37.540,12.480,easy
1368.000,370.100,113.900,30.760,1340.000,297.400,93.650,21.560,222.200,62.310,19.210,6.080,385.200,108.200,37.020,12.270,easy
1344.000,364.000,112.400,30.340,1335.000,296.900,93.520,21.570,220.700,61.870,19.140,6.053,382.800,107.700,36.820,12.210,easy
1333.000,363.100,111.700,30.260,1326.000,296.000,93.300,21.460,219.000,61.570,19.100,6.026,382.400,107.300,36.720,12.120,easy
1324.000,360.900,111.100,30.130,1325.000,295.900,93.320,21.500,218.600,62.070,19.080,6.038,381.000,107.200,36.640,12.110,easy
1320.000,358.100,110.900,30.030,1317.000,295.200,93.030,21.440,219.900,61.790,19.050,6.028,380.700,107.000,36.540,12.100,easy
1317.000,359.800,111.000,30.060,1321.000,295.400,93.110,21.480,219.500,61.640,19.070,6.041,379.800,106.900,36.530,12.120,easy
1319.000,359.500,110.700,30.100,1321.000,294.800,93.030,21.510,220.300,61.790,19.050,6.018,380.600,106.800,36.710,12.130,easy
1322.000,360.600,111.400,30.150,1323.000,295.000,92.990,21.470,219.500,61.640,19.050,6.056,381.100,107.100,36.770,12.190,easy
1325.000,361.600,111.100,30.270,1321.000,294.900,93.120,21.500,219.100,61.640,19.020,6.040,382.100,107.400,36.840,12.260,easy
1329.000,363.000,111.900,30.360,1326.000,295.200,93.370,21.500,218.800,61.640,19.080,6.055,382.100,107.600,36.920,12.260,easy
1333.000,362.600,112.600,30.530,1334.000,295.800,93.390,21.530,219.500,61.820,19.060,6.062,383.100,107.900,37.120,12.320,easy
1339.000,365.700,113.300,30.760,1332.000,296.900,93.710,21.600,220.200,62.050,19.120,6.059,384.300,108.300,37.210,12.350,easy
1344.000,364.700,112.400,30.370,1323.000,294.200,92.980,21.410,217.600,61.740,19.080,6.068,381.500,107.200,36.680,12.140,easy
1321.000,359.800,110.800,29.990,1317.000,294.400,92.740,21.360,217.200,61.730,19.040,6.017,380.100,106.800,36.390,12.050,easy
1311.000,357.800,110.300,29.760,1316.000,293.500,92.390,21.270,218.900,61.450,18.950,6.004,378.700,106.500,36.240,12.000,easy
1304.000,357.100,109.300,29.710,1317.000,293.300,92.220,21.270,218.100,61.320,18.970,6.008,378.800,106.400,36.250,11.980,easy
1301.000,356.000,109.400,29.510,1311.000,292.900,92.330,21.240,219.900,61.320,18.930,5.997,377.600,106.100,36.090,11.940,easy
1298.000,354.600,109.400,29.500,1311.000,292.600,92.250,21.270,219.700,61.080,18.980,5.994,377.700,105.900,36.260,11.950,easy
1299.000,355.000,109.000,29.520,1314.000,293.600,92.400,21.320,219.200,61.610,18.960,6.011,377.100,106.100,36.260,11.990,easy
1303.000,355.500,109.200,29.640,1316.000,293.000,92.480,21.340,218.300,61.490,18.920,6.024,378.300,106.200,36.340,12.030,easy
1308.000,356.700,109.700,29.720,1315.000,294.100,92.690,21.390,219.900,61.750,18.920,6.025,378.700,106.500,36.310,12.060,easy
1312.000,357.100,110.500,29.700,1320.000,294.100,93.010,21.470,218.800,61.560,19.030,6.038,379.400,106.600,36.580,12.120,easy
1318.000,358.400,110.800,29.940,1325.000,294.900,93.230,21.500,218.100,61.750,19.080,6.061,380.300,106.900,36.540,12.130,easy
1319.000,357.700,110.000,29.650,1317.000,294.100,92.810,21.440,218.100,61.710,19.050,6.046,378.500,106.400,36.100,11.930,easy
1303.000,354.100,108.800,29.340,1315.000,294.200,92.520,21.350,219.800,61.660,19.020,6.027,377.100,105.700,36.060,11.860,easy
1295.000,352.000,108.500,29.050,1313.000,293.000,92.520,21.390,217.900,61.320,18.950,6.027,375.500,105.200,35.820,11.810,easy
1291.000,352.900,107.800,29.140,1313.000,294.500,92.570,21.450,218.900,61.210,18.980,6.019,375.600,105.200,35.880,11.800,easy
1290.000,352.200,108.000,29.070,1313.000,293.300,92.690,21.490,217.900,61.440,19.010,6.049,376.300,105.100,35.840,11.790,easy
1291.000,351.900,107.600,29.090,1313.000,293.500,92.960,21.510,216.600,61.330,19.000,6.059,375.400,105.200,35.890,11.830,easy
1294.000,353.500,108.500,29.190,1316.000,294.000,93.100,21.560,218.900,61.400,19.010,6.056,376.700,105.700,36.000,11.850,easy
1300.000,354.300,108.800,29.310,1322.000,295.000,93.260,21.630,218.500,61.520,19.060,6.070,377.700,105.800,36.020,11.900,easy
1306.000,355.200,109.300,29.410,1326.000,296.200,93.600,21.710,218.100,61.540,19.080,6.114,378.300,106.100,36.170,11.960,easy
1313.000,357.500,109.700,29.590,1327.000,296.700,93.810,21.800,219.800,61.760,19.110,6.112,379.000,106.400,36.310,11.990,easy
1320.000,358.700,109.800,29.700,1331.000,297.500,93.840,21.840,219.500,61.750,19.170,6.114,380.300,106.700,36.520,12.070,easy
1329.000,360.900,111.400,30.000,1332.000,298.300,94.260,21.870,219.800,61.860,19.210,6.150,381.700,107.200,36.500,12.060,easy
1326.000,358.200,110.200,29.570,1330.000,297.000,93.850,21.770,218.200,61.840,19.140,6.114,379.100,106.200,36.070,11.860,easy
1316.000,355.900,109.600,29.510,1327.000,296.300,93.800,21.750,218.900,61.730,19.130,6.105,377.700,105.800,35.960,11.780,easy
1309.000,355.600,108.900,29.250,1325.000,297.000,93.820,21.740,219.000,61.540,19.150,6.084,377.000,105.500,35.810,11.750,easy
1309.000,355.400,109.300,29.370,1326.000,296.400,93.940,21.790,218.100,61.680,19.120,6.085,376.900,105.600,35.740,11.750,easy
1307.000,356.000,108.900,29.320,1327.000,296.100,93.940,21.760,217.500,61.690,19.110,6.104,377.100,105.400,35.840,11.780,easy
1310.000,357.200,109.500,29.410,1329.000,297.800,93.920,21.820,217.700,61.520,19.150,6.116,377.000,105.800,35.840,11.810,easy
1315.000,357.200,109.800,29.490,1333.000,297.600,94.020,21.900,219.900,61.840,19.140,6.123,378.700,105.900,36.070,11.870,easy
1321.000,357.800,110.200,29.710,1339.000,298.300,94.440,21.830,219.200,61.860,19.200,6.128,378.800,106.100,36.150,11.860,easy
1327.000,360.100,110.500,29.900,1338.000,299.400,94.520,21.960,219.000,61.790,19.200,6.137,380.600,106.300,36.220,11.960,easy
1334.000,363.100,111.500,29.910,1341.000,299.600,94.750,21.960,220.700,61.900,19.170,6.147,381.200,106.500,36.390,12.040,easy
1341.000,364.300,112.100,30.170,1344.000,300.500,94.860,22.010,219.800,61.970,19.270,6.171,381.600,107.000,36.560,12.080,easy
1348.000,365.000,112.900,30.330,1343.000,301.400,95.170,22.050,221.300,62.210,19.270,6.188,383.400,107.400,36.660,12.080,easy
1348.000,365.000,111.900,30.140,1338.000,300.100,94.840,21.910,220.900,62.010,19.280,6.151,380.900,106.500,36.230,11.900,easy
1337.000,361.200,111.100,29.880,1338.000,299.400,94.460,21.930,220.400,61.760,19.230,6.138,380.200,106.100,36.100,11.830,easy
1330.000,362.100,110.600,29.660,1336.000,299.100,94.190,21.870,220.100,61.790,19.150,6.137,378.600,105.700,35.900,11.760,easy
1327.000,361.000,110.600,29.640,1332.000,299.000,94.360,21.900,219.600,61.850,19.200,6.119,378.700,105.800,35.850,11.770,easy
1326.000,359.800,110.200,29.630,1336.000,299.800,94.540,21.910,219.800,61.950,19.170,6.129,378.500,105.700,35.880,11.750,easy
1327.000,359.800,110.800,29.640,1338.000,299.200,94.880,21.900,219.600,61.790,19.150,6.129,379.000,105.900,36.040,11.840,easy
1331.000,362.300,111.200,29.780,1343.000,299.900,94.900,21.950,220.500,61.900,19.200,6.127,379.600,106.200,36.080,11.870,easy
1337.000,363.500,111.500,29.990,1344.000,300.500,94.980,21.990,220.500,61.830,19.190,6.153,380.000,106.300,36.140,11.900,easy
1342.000,364.400,112.000,30.030,1349.000,301.500,95.090,22.040,218.700,62.240,19.200,6.157,381.300,106.600,36.220,11.950,easy
1346.000,365.400,112.400,30.230,1348.000,302.000,95.140,22.150,221.600,62.060,19.280,6.180,382.300,106.900,36.370,12.000,easy
1353.000,367.800,113.000,30.390,1350.000,303.300,95.620,22.210,221.500,62.100,19.280,6.175,383.100,107.000,36.540,12.080,easy
1361.000,368.900,113.500,30.530,1353.000,303.200,95.920,22.260,221.200,62.220,19.380,6.195,384.600,107.600,36.610,12.150,easy
1368.000,370.600,114.000,30.720,1358.000,304.200,96.170,22.370,221.400,62.380,19.400,6.220,385.300,108.000,36.850,12.200,easy
1376.000,373.100,114.900,30.870,1366.000,304.000,96.010,22.230,223.200,62.610,19.400,6.220,386.300,108.000,36.740,12.160,easy
1367.000,369.900,113.000,30.400,1350.000,302.500,95.670,22.150,221.200,62.270,19.320,6.179,383.200,107.000,36.400,11.960,easy
1354.000,366.500,112.400,30.240,1348.000,302.100,95.320,22.100,222.200,62.210,19.290,6.165,382.000,106.500,36.210,11.900,easy
1346.000,365.200,112.000,30.040,1347.000,301.800,95.380,22.060,221.400,61.700,19.200,6.157,380.900,106.500,36.190,11.870,easy
1341.000,364.200,112.300,30.110,1342.000,301.700,95.220,22.100,219.100,61.940,19.270,6.150,380.800,106.500,36.120,11.870,easy
1337.000,363.700,111.500,30.070,1341.000,301.400,95.350,22.060,219.600,62.300,19.250,6.173,381.100,106.500,36.080,11.900,easy
1337.000,364.800,111.900,30.040,1343.000,301.800,95.230,22.140,221.300,61.880,19.270,6.145,380.600,106.700,36.190,11.920,easy
1339.000,365.100,112.600,30.160,1342.000,301.800,95.600,22.120,220.400,61.960,19.290,6.179,381.700,106.800,36.220,11.940,easy
1344.000,366.500,112.700,30.300,1346.000,302.000,95.480,22.160,221.700,62.380,19.300,6.173,381.800,106.900,36.370,11.980,easy
1347.000,367.200,113.200,30.440,1348.000,302.900,95.440,22.190,220.500,62.100,19.360,6.189,383.500,107.200,36.490,12.050,easy
1353.000,368.500,114.000,30.560,1348.000,303.400,95.820,22.210,220.500,62.300,19.370,6.198,383.600,107.400,36.620,12.110,easy
1356.000,369.600,114.100,30.800,1354.000,303.600,96.060,22.260,221.500,62.560,19.390,6.209,384.400,107.700,36.740,12.170,easy
1364.000,371.300,114.300,30.880,1355.000,302.800,95.970,22.170,221.700,62.720,19.370,6.222,384.700,107.600,36.660,12.090,easy
1351.000,366.900,113.200,30.320,1346.000,301.700,95.680,22.110,222.900,61.910,19.330,6.186,382.100,106.700,36.290,11.930,easy
1339.000,364.300,112.200,30.160,1340.000,301.400,95.170,22.020,220.500,62.140,19.320,6.158,380.800,106.500,36.150,11.870,easy
1330.000,363.900,111.400,29.950,1336.000,299.600,95.230,22.080,221.500,62.070,19.280,6.157,380.100,106.300,36.120,11.890,easy
1326.000,362.600,111.700,29.960,1333.000,299.900,95.090,22.030,219.100,62.030,19.260,6.151,379.600,106.100,36.030,11.880,easy
1323.000,362.400,111.500,29.990,1337.000,299.600,95.030,22.060,220.600,62.230,19.300,6.162,380.000,106.200,36.030,11.850,easy
1322.000,362.800,111.400,29.970,1334.000,299.900,95.210,22.090,221.700,62.150,19.270,6.162,380.400,106.500,36.160,11.920,easy
1326.000,362.800,111.400,30.080,1334.000,300.400,95.290,22.070,220.800,62.300,19.290,6.176,380.900,106.700,36.240,11.960,easy
1330.000,363.900,112.500,30.250,1337.000,300.400,95.130,22.080,221.500,62.060,19.310,6.203,381.200,106.700,36.260,12.010,easy
1334.000,366.500,112.800,30.390,1339.000,300.900,95.690,22.130,221.800,62.420,19.330,6.218,382.000,107.200,36.370,12.090,easy
1341.000,366.200,113.100,30.600,1343.000,301.800,95.790,22.150,221.400,62.240,19.410,6.216,383.100,107.500,36.500,12.120,easy
1346.000,366.500,113.900,30.740,1345.000,301.900,95.670,22.080,219.900,62.350,19.440,6.220,383.300,107.400,36.540,12.070,easy
1337.000,364.700,112.000,30.160,1338.000,299.600,95.110,22.060,221.000,62.620,19.360,6.183,380.600,106.400,36.130,11.900,easy
1322.000,362.000,111.100,29.910,1331.000,299.000,94.910,21.980,221.700,62.060,19.330,6.161,378.900,105.800,35.990,11.820,easy
1310.000,359.400,110.400,29.710,1327.000,298.100,94.700,21.950,221.200,61.930,19.280,6.157,377.400,105.700,35.890,11.750,easy
1306.000,357.900,110.300,29.670,1322.000,297.400,94.700,21.960,220.000,61.880,19.250,6.163,377.600,105.700,35.850,11.780,easy
1302.000,357.300,109.800,29.610,1325.000,297.400,94.680,21.870,219.100,62.090,19.300,6.167,377.700,105.500,35.770,11.750,easy
1301.000,357.500,110.100,29.630,1322.000,297.100,94.610,21.990,218.800,62.050,19.270,6.178,377.700,105.600,35.840,11.780,easy
1304.000,356.200,110.100,29.720,1327.000,298.200,95.020,21.970,219.000,62.110,19.320,6.203,377.800,105.900,35.930,11.840,easy
1309.000,358.000,110.600,29.770,1327.000,298.000,94.880,21.990,220.300,62.400,19.360,6.202,378.800,105.900,36.030,11.890,easy
1313.000,359.300,110.600,30.000,1329.000,298.900,95.070,22.030,220.500,62.520,19.370,6.205,379.100,106.100,36.050,11.950,easy
1319.000,360.400,111.300,30.090,1331.000,299.800,95.430,22.080,221.800,62.090,19.370,6.226,381.000,106.500,36.180,12.000,easy
1327.000,363.200,111.500,30.130,1334.000,298.800,94.900,21.960,221.900,62.220,19.390,6.218,379.700,106.200,36.030,11.840,easy
1310.000,358.300,110.100,29.650,1325.000,298.200,94.610,21.890,220.200,62.160,19.370,6.183,377.200,105.500,35.730,11.740,easy
1299.000,355.100,109.300,29.380,1321.000,296.500,94.350,21.870,219.900,62.120,19.320,6.174,375.400,105.100,35.580,11.650,easy
1290.000,353.400,108.500,29.240,1319.000,297.000,94.220,21.840,220.000,61.970,19.220,6.165,375.100,104.900,35.530,11.610,easy
1289.000,354.800,108.600,29.180,1317.000,296.200,94.170,21.860,220.100,62.040,19.200,6.174,374.600,104.700,35.410,11.600,easy
1287.000,353.900,108.500,29.090,1320.000,296.900,94.240,21.860,217.900,62.010,19.290,6.179,373.700,104.700,35.540,11.610,easy
1289.000,353.100,108.800,29.240,1319.000,296.500,94.510,21.940,218.700,61.890,19.310,6.197,374.500,104.800,35.430,11.700,easy
1293.000,355.000,109.100,29.390,1326.000,297.700,94.830,21.900,220.200,61.880,19.350,6.212,375.200,105.200,35.730,11.740,easy
1300.000,356.000,109.100,29.510,1328.000,298.100,94.860,22.010,219.900,62.360,19.370,6.225,376.300,105.600,35.850,11.810,easy
1306.000,358.000,110.000,29.650,1329.000,299.100,94.950,22.050,221.300,62.040,19.450,6.240,377.300,105.800,35.900,11.830,easy
1313.000,359.900,110.600,29.770,1331.000,298.900,95.180,22.080,219.800,62.370,19.420,6.256,378.600,106.000,36.090,11.880,easy
1321.000,360.400,111.000,29.910,1338.000,299.900,95.580,22.180,222.000,62.710,19.550,6.286,379.800,106.400,36.090,11.940,easy
1330.000,363.000,111.800,30.080,1335.000,300.600,95.380,22.140,220.700,62.690,19.510,6.273,381.700,106.600,36.180,11.900,easy
1323.000,360.800,110.400,29.590,1335.000,299.000,94.970,22.010,220.300,62.460,19.430,6.256,377.400,105.500,35.690,11.730,easy
1312.000,359.300,110.000,29.460,1334.000,298.200,94.710,21.930,220.500,62.260,19.380,6.212,376.600,105.400,35.540,11.660,easy
1304.000,357.600,108.900,29.300,1330.000,298.400,94.850,21.910,220.700,62.190,19.400,6.198,375.900,104.800,35.510,11.660,easy
1303.000,357.700,108.800,29.210,1331.000,298.200,94.820,21.950,220.100,62.010,19.340,6.218,375.800,105.100,35.440,11.630,easy
1302.000,357.100,108.700,29.140,1330.000,298.200,94.630,21.930,219.800,62.240,19.370,6.215,375.500,105.200,35.460,11.650,easy
1304.000,358.600,109.100,29.200,1334.000,299.100,94.820,22.020,220.300,62.340,19.400,6.215,375.800,104.900,35.570,11.690,easy
1309.000,357.100,109.600,29.360,1335.000,299.400,95.070,22.010,218.600,62.050,19.450,6.251,376.500,105.300,35.740,11.730,easy
1315.000,358.400,110.000,29.540,1338.000,299.600,95.160,22.070,221.000,62.500,19.440,6.261,377.600,105.500,35.890,11.780,easy
1321.000,359.500,110.000,29.710,1340.000,300.300,95.400,22.040,221.700,62.470,19.520,6.273,378.200,105.900,35.880,11.840,easy
1327.000,363.400,110.800,29.750,1341.000,300.700,95.550,22.130,222.100,62.500,19.520,6.260,378.500,106.200,36.020,11.870,easy
1334.000,363.800,111.700,29.960,1346.000,302.200,95.900,22.160,221.200,62.770,19.540,6.300,380.700,106.600,36.210,11.980,easy
1343.000,366.200,111.800,30.210,1346.000,302.700,96.010,22.190,220.800,62.670,19.600,6.292,381.700,106.800,36.310,11.970,easy
1342.000,365.800,111.300,29.840,1343.000,300.800,95.390,22.060,220.700,62.490,19.480,6.257,377.600,105.500,35.800,11.760,easy
1329.000,363.300,110.300,29.550,1341.000,300.900,95.130,22.020,220.900,62.490,19.430,6.236,378.200,105.400,35.720,11.680,easy
1323.000,360.400,110.000,29.400,1338.000,301.100,95.240,22.000,220.800,62.210,19.410,6.224,376.400,105.300,35.580,11.650,easy
1320.000,359.800,110.000,29.350,1343.000,300.300,95.000,21.970,222.000,62.310,19.420,6.214,376.800,105.200,35.550,11.630,easy
1319.000,359.900,109.700,29.390,1343.000,300.300,95.120,21.980,221.200,62.400,19.420,6.216,376.800,104.900,35.620,11.650,easy
1320.000,359.900,110.000,29.460,1339.000,299.900,94.970,22.000,220.400,62.300,19.410,6.236,376.500,105.300,35.600,11.690,easy
1323.000,361.700,110.500,29.590,1341.000,300.700,95.260,22.080,220.600,62.250,19.470,6.238,377.700,105.600,35.800,11.740,easy
1329.000,360.500,110.800,29.650,1343.000,301.200,95.360,22.110,222.800,62.390,19.470,6.261,378.300,105.900,35.840,11.810,easy
1333.000,362.800,111.300,29.710,1347.000,301.500,95.580,22.060,222.400,62.430,19.510,6.263,379.400,106.400,35.960,11.840,easy
1339.000,363.700,111.500,29.950,1346.000,302.000,95.590,22.130,219.600,62.580,19.470,6.267,380.800,106.300,36.080,11.910,easy
1345.000,366.800,112.100,30.140,1351.000,301.900,95.800,22.170,221.000,62.410,19.530,6.280,381.700,106.800,36.330,11.950,easy
1353.000,367.500,112.000,30.130,1347.000,301.500,95.430,22.030,220.800,62.690,19.500,6.283,380.500,106.300,36.050,11.830,easy
1337.000,363.700,111.100,29.680,1343.000,300.600,95.250,21.960,222.900,62.560,19.470,6.245,379.800,105.800,35.820,11.750,easy
1330.000,361.700,110.400,29.510,1341.000,299.900,95.180,21.890,222.100,62.620,19.410,6.230,378.300,105.400,35.600,11.710,easy
1324.000,360.400,109.900,29.420,1341.000,300.400,95.240,22.000,220.400,62.470,19.420,6.238,378.700,105.400,35.750,11.660,easy
1324.000,360.600,110.400,29.400,1339.000,299.600,94.900,21.890,220.500,62.330,19.430,6.226,378.500,105.200,35.660,11.680,easy
1323.000,360.700,110.100,29.420,1336.000,299.800,94.990,21.970,221.700,62.070,19.440,6.234,378.300,105.600,35.640,11.710,easy
1324.000,360.400,110.400,29.510,1337.000,300.500,94.870,21.990,219.800,61.940,19.460,6.226,378.100,105.800,35.770,11.740,easy
1329.000,361.800,110.600,29.580,1340.000,301.100,95.300,22.040,221.400,62.260,19.450,6.247,378.500,105.900,35.810,11.810,easy
1334.000,363.000,111.200,29.790,1344.000,300.600,95.240,21.970,220.600,62.490,19.500,6.250,380.300,106.000,36.060,11.900,easy
1338.000,364.600,111.500,29.880,1341.000,300.800,95.520,22.050,221.100,62.400,19.570,6.284,381.200,106.500,36.060,11.910,easy
1344.000,365.600,111.800,30.040,1346.000,302.000,95.720,22.140,222.600,62.800,19.520,6.295,382.300,106.700,36.250,11.970,easy
1349.000,365.900,111.900,29.880,1343.000,301.000,95.090,21.940,223.200,62.480,19.580,6.280,381.100,106.000,36.010,11.800,easy
1332.000,363.100,110.300,29.550,1340.000,300.400,94.750,21.870,221.900,62.600,19.490,6.243,379.600,105.900,35.700,11.720,easy
1324.000,360.300,110.100,29.290,1336.000,299.600,94.670,21.850,220.400,62.450,19.460,6.234,378.000,105.300,35.630,11.630,easy
1318.000,358.800,110.200,29.260,1338.000,299.200,94.660,21.970,221.300,62.350,19.420,6.233,378.100,105.300,35.600,11.670,easy
1317.000,358.900,109.500,29.280,1336.000,299.100,94.840,21.880,221.200,62.140,19.470,6.230,377.300,105.100,35.590,11.630,easy
1315.000,358.700,109.600,29.300,1337.000,298.900,94.660,21.960,220.500,62.350,19.430,6.220,377.800,105.200,35.570,11.700,easy
1318.000,359.500,110.000,29.440,1334.000,299.600,94.970,21.970,220.700,62.230,19.420,6.264,378.400,105.300,35.640,11.710,easy
1322.000,360.600,110.100,29.550,1334.000,300.200,94.950,22.060,221.700,62.320,19.450,6.264,379.200,105.600,35.810,11.760,easy
1327.000,362.100,110.900,29.780,1337.000,300.400,95.270,22.050,222.200,62.400,19.510,6.256,380.300,105.900,35.920,11.830,easy
1333.000,364.200,111.100,29.870,1343.000,300.900,95.300,22.160,221.900,62.470,19.480,6.275,380.300,106.100,36.060,11.870,easy
1339.000,365.000,111.800,29.950,1343.000,301.400,95.910,22.160,221.400,62.870,19.570,6.292,382.200,106.500,36.220,11.970,easy
1346.000,367.900,112.600,30.200,1348.000,302.400,96.120,22.260,222.500,62.640,19.670,6.310,382.600,106.900,36.410,12.020,easy
1354.000,368.700,112.400,30.220,1345.000,301.300,95.730,22.110,222.000,62.880,19.580,6.307,381.500,106.300,36.030,11.840,easy
1333.000,362.800,111.000,29.690,1338.000,299.600,95.120,22.080,219.900,62.470,19.460,6.271,379.200,105.500,35.750,11.730,easy
1322.000,360.100,110.200,29.520,1335.000,299.400,94.880,21.960,222.200,62.310,19.390,6.242,378.400,105.300,35.650,11.660,easy
1314.000,359.300,109.900,29.350,1331.000,299.100,94.930,22.020,221.400,62.410,19.420,6.239,377.500,105.300,35.670,11.690,easy
1312.000,359.400,110.100,29.370,1330.000,298.800,94.820,21.970,221.200,62.200,19.470,6.246,377.800,105.000,35.680,11.690,easy
1309.000,359.400,110.000,29.450,1331.000,298.600,94.990,22.010,219.600,62.300,19.430,6.253,377.000,105.300,35.700,11.660,easy
1311.000,358.900,110.200,29.460,1330.000,299.400,94.920,22.020,221.100,62.420,19.490,6.250,377.400,105.100,35.710,11.750,easy
1316.000,360.500,110.500,29.640,1332.000,299.900,95.300,22.050,221.400,62.240,19.490,6.259,379.200,105.600,35.820,11.810,easy
1322.000,361.600,110.800,29.760,1332.000,300.100,95.230,22.090,222.700,62.530,19.510,6.270,379.900,105.800,35.950,11.840,easy
1326.000,362.200,111.300,29.910,1335.000,299.200,95.420,22.180,221.500,62.560,19.520,6.281,380.400,106.100,36.080,11.910,easy
1332.000,364.200,111.500,30.060,1338.000,301.200,95.640,22.190,222.500,62.450,19.550,6.302,382.000,106.400,36.220,11.960,easy
1340.000,366.600,112.200,30.270,1343.000,302.000,95.880,22.210,221.400,62.870,19.630,6.304,382.300,106.900,36.350,12.040,easy
1347.000,368.300,112.000,30.240,1338.000,300.100,95.320,22.040,222.800,62.800,19.570,6.309,380.800,106.200,35.950,11.820,easy
1324.000,361.400,110.600,29.700,1333.000,299.400,95.210,22.030,221.600,62.060,19.450,6.260,378.700,105.600,35.760,11.720,easy
1316.000,359.400,110.100,29.400,1329.000,298.300,94.930,22.010,221.100,62.170,19.440,6.228,378.300,105.200,35.560,11.680,easy
1307.000,358.000,109.600,29.450,1324.000,298.400,94.840,22.010,219.400,62.300,19.420,6.224,377.700,105.000,35.620,11.700,easy
1306.000,358.000,110.100,29.370,1323.000,297.900,94.740,21.940,221.100,62.510,19.430,6.249,377.200,105.000,35.600,11.670,easy
1303.000,357.500,109.500,29.360,1326.000,297.500,94.670,21.960,219.700,62.180,19.380,6.226,378.000,105.000,35.630,11.730,easy
1307.000,359.100,109.700,29.510,1325.000,298.100,94.910,21.980,219.300,62.090,19.370,6.251,377.500,105.400,35.760,11.790,easy
1312.000,359.400,110.200,29.690,1328.000,299.000,94.840,22.050,220.300,62.260,19.430,6.256,378.600,105.500,35.830,11.820,easy
1318.000,361.000,110.900,29.820,1331.000,298.500,94.990,22.050,221.300,62.360,19.450,6.264,380.000,106.100,36.030,11.880,easy
1324.000,361.800,111.300,29.890,1336.000,299.400,95.280,22.050,222.500,62.310,19.480,6.272,380.700,106.100,36.090,11.930,easy
1330.000,364.200,111.600,30.060,1338.000,300.100,95.580,22.150,221.600,62.450,19.520,6.295,381.600,106.500,36.220,12.020,easy
1340.000,366.600,111.900,30.300,1340.000,300.800,95.600,22.140,222.300,62.670,19.490,6.302,382.500,106.800,36.390,11.980,easy
1332.000,363.200,110.700,29.730,1330.000,298.600,94.760,21.960,221.700,62.380,19.470,6.254,379.500,105.700,35.960,11.790,easy
1316.000,361.000,110.000,29.540,1328.000,297.800,94.480,21.890,221.500,62.480,19.450,6.252,378.700,105.700,35.730,11.730,easy
1308.000,359.000,109.500,29.330,1326.000,297.800,94.850,21.940,219.500,62.340,19.410,6.233,378.700,105.300,35.660,11.720,easy
1307.000,359.600,109.700,29.400,1324.000,297.500,94.650,21.970,220.900,62.230,19.440,6.235,378.600,105.400,35.740,11.720,easy
1305.000,358.400,109.300,29.350,1325.000,297.600,94.580,21.900,220.400,62.350,19.350,6.226,377.900,105.400,35.750,11.740,easy
1307.000,357.800,109.800,29.470,1325.000,298.300,94.550,21.980,219.100,62.080,19.410,6.240,378.200,105.700,35.930,11.800,easy
1312.000,359.300,110.100,29.590,1329.000,298.400,94.630,21.990,221.600,62.120,19.390,6.246,379.100,106.000,35.980,11.860,easy
1318.000,360.400,110.400,29.710,1329.000,299.000,94.830,22.020,220.800,62.590,19.440,6.254,380.600,106.300,36.150,11.920,easy
1325.000,362.100,111.200,29.930,1328.000,299.900,95.210,22.060,221.300,62.730,19.510,6.272,381.100,106.600,36.240,11.970,easy
1332.000,363.600,111.900,30.010,1334.000,299.800,95.170,22.100,221.800,62.360,19.510,6.281,382.300,106.900,36.350,12.030,easy
1340.000,366.800,112.100,30.240,1337.000,300.900,95.410,22.150,221.000,62.600,19.540,6.309,383.000,107.300,36.670,12.110,easy
1348.000,368.300,112.600,30.150,1337.000,299.800,95.070,22.020,221.700,62.620,19.550,6.288,382.200,106.900,36.150,11.930,easy
1327.000,362.900,110.700,29.620,1333.000,298.200,94.730,21.980,220.800,62.520,19.460,6.238,379.600,105.900,36.000,11.830,easy
1319.000,360.400,110.300,29.410,1331.000,298.700,94.440,21.920,219.200,62.240,19.470,6.236,379.200,105.900,35.900,11.780,easy
1312.000,358.600,110.000,29.320,1330.000,298.300,94.520,21.900,220.500,62.360,19.430,6.234,379.200,106.000,35.950,11.800,easy
1314.000,361.000,109.400,29.340,1328.000,297.800,94.520,21.870,220.600,62.540,19.470,6.244,379.700,106.100,35.890,11.820,easy
1312.000,359.800,109.800,29.340,1327.000,298.000,94.460,21.920,221.600,62.440,19.480,6.240,379.600,105.900,36.020,11.850,easy
1315.000,359.700,110.000,29.500,1332.000,298.800,94.300,21.940,219.000,62.410,19.480,6.262,380.200,106.200,36.080,11.870,easy
1321.000,363.200,110.500,29.680,1328.000,299.000,94.880,21.980,223.300,62.440,19.530,6.267,380.800,106.600,36.260,11.950,easy
1328.000,363.700,111.100,29.810,1334.000,299.900,95.110,22.040,221.200,62.760,19.560,6.254,382.000,107.000,36.420,12.020,easy
1335.000,365.200,111.400,29.900,1341.000,300.200,95.180,22.050,221.000,62.790,19.500,6.286,383.100,107.400,36.520,12.070,easy
1341.000,365.900,111.900,30.120,1336.000,300.700,95.500,22.170,222.800,62.840,19.620,6.300,384.200,107.700,36.740,12.170,easy
1350.000,368.500,112.600,30.300,1343.000,301.000,95.400,22.080,222.200,62.610,19.650,6.325,385.500,107.800,36.600,12.090,easy
1341.000,364.400,111.200,29.770,1337.000,299.000,94.830,21.920,221.600,62.840,19.580,6.286,381.900,106.700,36.280,11.900,easy
1328.000,361.200,110.000,29.470,1332.000,299.000,94.500,21.920,221.900,62.650,19.500,6.260,381.300,106.600,36.080,11.840,easy
1321.000,360.900,109.400,29.370,1332.000,298.300,94.440,21.920,221.900,62.530,19.460,6.237,380.500,106.400,36.100,11.850,easy
1321.000,361.200,109.700,29.380,1335.000,298.700,94.470,21.890,221.400,62.360,19.530,6.275,381.300,106.300,36.030,11.850,easy
1318.000,359.100,109.900,29.380,1331.000,298.800,94.510,21.930,221.100,62.550,19.500,6.266,380.500,106.400,36.040,11.850,easy
1320.000,360.300,109.600,29.390,1331.000,298.700,94.490,21.950,220.000,62.170,19.500,6.250,380.900,106.400,36.090,11.900,easy
1325.000,360.300,110.400,29.590,1333.000,299.700,94.570,21.980,221.400,62.600,19.530,6.283,382.000,107.000,36.270,11.960,easy
1331.000,361.900,110.800,29.730,1333.000,299.100,95.070,21.990,221.000,62.840,19.560,6.285,383.000,107.200,36.470,12.020,easy
1336.000,365.500,111.100,29.790,1336.000,299.900,95.150,22.060,222.200,62.590,19.590,6.293,384.000,107.400,36.480,12.080,easy
1342.000,365.100,112.000,30.000,1342.000,300.200,95.340,22.090,220.700,62.850,19.660,6.311,385.100,107.900,36.630,12.070,easy
1340.000,364.300,110.700,29.560,1332.000,299.500,94.600,21.960,220.800,62.720,19.530,6.270,382.200,106.600,36.230,11.880,easy
1324.000,359.900,110.200,29.380,1332.000,298.500,94.520,21.870,221.400,62.490,19.500,6.256,381.300,106.400,36.020,11.780,easy
1317.000,360.000,109.300,29.170,1329.000,297.800,94.600,21.870,223.300,62.420,19.520,6.254,380.200,106.100,36.000,11.790,easy
1316.000,359.500,109.200,29.220,1329.000,298.000,94.460,21.900,221.500,62.560,19.510,6.256,381.300,106.300,35.990,11.820,easy
1314.000,358.300,109.400,29.200,1328.000,297.900,94.230,21.910,222.100,62.460,19.480,6.283,380.000,106.000,36.000,11.810,easy
1315.000,358.500,109.500,29.230,1331.000,297.700,94.450,21.910,218.800,62.190,19.510,6.273,380.100,106.200,36.040,11.850,easy
