A-DC1,A-DC2,A-DC3,A-DC4,A-DC5,A-DC6,A-DC7,A-DC8,B-DC1,B-DC2,B-DC3,B-DC4,B-DC5,B-DC6,B-DC7,B-DC8,condition
1319.000,326.700,76.630,18.290,884.500,130.100,21.290,3.874,102.800,22.200,4.828,1.264,375.700,99.040,34.230,9.959,baseline
1332.000,330.400,77.010,18.420,886.900,130.600,21.310,3.883,102.900,22.140,4.818,1.259,378.400,99.350,34.350,10.060,baseline
1347.000,333.500,77.390,18.440,886.700,129.900,21.170,3.836,104.600,22.260,4.806,1.262,378.600,98.870,34.040,9.900,baseline
1293.000,319.400,74.610,17.800,872.500,128.000,20.880,3.815,102.800,22.120,4.796,1.245,373.500,97.870,33.860,9.805,baseline
1279.000,315.800,73.950,17.700,870.800,127.800,20.950,3.812,103.200,21.940,4.803,1.253,373.200,97.660,33.610,9.754,baseline
1272.000,314.800,73.960,17.620,870.100,128.200,20.840,3.832,102.900,22.160,4.794,1.256,373.300,98.010,33.490,9.768,baseline
1272.000,316.000,73.990,17.630,871.100,128.000,20.910,3.815,100.600,22.030,4.782,1.255,373.000,97.630,33.810,9.786,baseline
1276.000,315.000,74.460,17.710,869.800,128.300,20.970,3.826,103.600,21.950,4.822,1.257,373.200,97.640,33.830,9.804,baseline
1284.000,318.200,75.120,17.820,874.400,128.900,21.110,3.841,103.400,22.220,4.822,1.259,374.200,98.160,33.840,9.839,baseline
1295.000,320.100,74.950,17.900,874.200,129.400,21.070,3.845,103.700,22.240,4.796,1.256,376.200,98.430,34.020,9.888,baseline
1305.000,322.800,75.570,18.000,877.900,129.200,21.330,3.837,104.000,22.180,4.809,1.260,376.600,98.820,34.030,9.933,baseline
1315.000,324.000,76.310,18.240,882.100,129.900,21.230,3.874,103.500,22.200,4.834,1.257,377.300,99.230,34.260,9.988,baseline
1329.000,327.900,77.010,18.360,887.500,129.700,21.270,3.898,104.400,22.270,4.847,1.260,378.100,99.300,34.300,10.040,baseline
1343.000,331.500,77.480,18.470,891.600,130.200,21.380,3.870,105.200,22.400,4.809,1.263,380.100,99.880,34.390,9.968,baseline
1309.000,320.700,75.070,17.740,871.000,128.500,20.950,3.827,102.100,22.290,4.810,1.251,373.500,98.060,33.750,9.802,baseline
1274.000,315.200,73.860,17.600,871.100,127.500,20.720,3.816,102.500,22.080,4.790,1.251,372.500,97.450,33.570,9.704,baseline
1261.000,312.300,73.390,17.420,868.000,127.500,20.730,3.800,103.500,22.010,4.768,1.257,371.600,97.400,33.530,9.742,baseline
1262.000,312.800,73.470,17.470,864.400,127.600,20.740,3.800,103.500,22.160,4.766,1.257,371.400,97.210,33.530,9.705,baseline
1262.000,313.300,74.000,17.500,866.000,127.400,20.970,3.807,103.200,21.870,4.812,1.247,371.900,97.310,33.630,9.729,baseline
1268.000,315.300,73.870,17.620,865.700,128.200,20.900,3.824,103.000,22.100,4.813,1.254,371.700,97.520,33.660,9.780,baseline
1280.000,317.000,74.580,17.770,871.000,128.600,20.990,3.822,103.600,22.140,4.846,1.252,373.300,98.180,33.800,9.809,baseline
1289.000,318.400,74.930,17.830,877.200,128.800,21.200,3.832,104.100,22.010,4.798,1.255,374.800,98.400,33.940,9.834,baseline
1300.000,321.400,75.460,18.050,874.200,129.400,21.180,3.854,102.900,22.160,4.858,1.263,375.800,98.570,33.950,9.905,baseline
1311.000,323.700,76.090,18.110,882.900,129.700,21.230,3.861,102.700,22.480,4.814,1.259,376.800,98.940,34.200,9.980,baseline
1326.000,328.500,76.710,18.280,886.900,130.500,21.300,3.883,104.300,22.230,4.834,1.260,378.400,99.130,34.190,9.918,baseline
1296.000,319.200,74.380,17.670,870.700,128.000,21.000,3.820,101.100,22.280,4.779,1.261,372.600,97.800,33.720,9.757,baseline
1269.000,313.500,73.720,17.460,868.300,127.700,20.800,3.806,102.400,22.190,4.817,1.250,372.700,97.120,33.580,9.709,baseline
1259.000,312.100,73.410,17.430,866.400,128.100,20.880,3.825,102.700,22.110,4.788,1.251,371.300,97.490,33.590,9.712,baseline
1261.000,311.600,73.530,17.480,866.500,127.700,20.730,3.792,102.100,22.420,4.814,1.262,371.100,97.260,33.440,9.690,baseline
1260.000,313.400,73.320,17.520,863.800,127.500,20.830,3.814,103.400,22.130,4.826,1.245,371.200,97.400,33.560,9.732,baseline
1268.000,315.000,73.980,17.600,870.300,128.400,20.890,3.841,103.700,22.240,4.816,1.258,371.500,97.500,33.660,9.789,baseline
1279.000,316.500,74.830,17.740,870.600,128.700,21.040,3.847,101.700,22.180,4.822,1.263,373.600,97.990,33.860,9.809,baseline
1288.000,318.000,74.990,17.860,874.600,128.800,21.130,3.845,103.400,22.170,4.842,1.254,374.800,98.330,33.960,9.829,baseline
1297.000,321.800,75.360,17.970,876.900,130.100,21.190,3.866,105.100,22.410,4.835,1.263,375.300,98.690,33.980,9.907,baseline
1311.000,324.600,75.980,18.070,880.200,129.800,21.200,3.851,103.200,22.520,4.854,1.266,376.800,98.820,34.000,9.867,baseline
1284.000,315.900,73.850,17.500,869.000,127.600,20.860,3.814,103.700,22.110,4.849,1.252,371.300,97.360,33.640,9.726,baseline
1261.000,313.300,73.120,17.400,865.100,126.900,20.800,3.786,102.600,22.310,4.795,1.258,370.600,97.000,33.390,9.684,baseline
1251.000,309.600,72.960,17.400,863.700,127.600,20.770,3.787,101.700,22.170,4.826,1.253,370.600,96.920,33.560,9.657,baseline
1255.000,311.300,73.140,17.320,862.500,127.400,20.810,3.824,102.400,22.080,4.832,1.255,370.500,97.030,33.410,9.692,baseline
1255.000,312.000,73.300,17.400,866.200,127.600,20.820,3.824,101.300,22.130,4.815,1.253,370.300,97.260,33.490,9.690,baseline
1262.000,312.200,73.690,17.550,866.600,127.500,20.920,3.832,102.800,22.110,4.816,1.260,371.900,97.420,33.650,9.718,baseline
1273.000,315.500,74.110,17.610,870.800,127.800,20.820,3.844,103.400,22.250,4.859,1.255,371.800,97.630,33.710,9.756,baseline
1282.000,317.100,74.870,17.760,874.000,128.800,21.030,3.836,102.500,22.150,4.811,1.265,373.000,97.760,33.730,9.806,baseline
1290.000,318.800,75.300,17.880,871.600,129.000,21.070,3.860,102.800,22.070,4.807,1.261,373.400,97.710,33.830,9.790,baseline
1300.000,322.300,75.610,17.970,877.500,129.100,21.320,3.861,103.100,22.170,4.849,1.266,374.200,97.900,33.990,9.859,baseline
1314.000,323.900,75.490,17.880,873.700,128.600,21.000,3.815,103.200,22.100,4.812,1.263,372.100,97.170,33.540,9.663,baseline
1261.000,311.400,72.920,17.320,862.500,126.800,20.730,3.766,102.800,21.920,4.801,1.244,368.600,96.650,33.210,9.622,baseline
1243.000,307.300,72.160,17.200,855.200,126.500,20.740,3.787,102.000,22.060,4.796,1.254,367.200,96.240,33.150,9.548,baseline
1238.000,307.600,72.090,17.190,861.200,126.800,20.860,3.804,101.700,22.210,4.817,1.252,367.200,96.380,33.310,9.570,baseline
1243.000,308.200,72.370,17.210,860.000,126.500,20.900,3.794,103.000,21.730,4.843,1.250,367.700,96.710,33.350,9.599,baseline
1248.000,309.900,72.900,17.330,862.400,127.100,20.940,3.816,102.300,22.080,4.807,1.255,368.500,96.760,33.410,9.657,baseline
1257.000,312.400,73.280,17.440,867.400,128.200,21.050,3.818,102.700,22.250,4.820,1.260,369.000,96.960,33.420,9.692,baseline
1269.000,313.700,73.890,17.530,872.600,127.900,21.070,3.816,103.400,21.950,4.840,1.261,371.000,97.170,33.480,9.738,baseline
1277.000,316.500,74.160,17.650,870.300,128.800,21.020,3.858,102.500,22.400,4.821,1.268,371.600,97.530,33.820,9.769,baseline
1286.000,317.700,74.870,17.790,875.400,128.800,21.210,3.861,101.500,21.910,4.858,1.266,373.000,97.930,33.820,9.820,baseline
1299.000,320.700,75.080,17.910,878.100,128.800,21.050,3.818,104.600,22.080,4.852,1.261,373.100,97.890,33.610,9.729,baseline
1262.000,312.100,73.120,17.270,864.500,127.300,20.910,3.811,102.900,22.210,4.792,1.256,368.500,96.720,33.310,9.622,baseline
1248.000,307.900,72.740,17.260,863.300,127.200,20.870,3.813,102.400,22.110,4.805,1.249,368.000,96.310,33.200,9.585,baseline
1241.000,308.100,72.130,17.200,859.000,127.100,20.850,3.803,103.200,22.100,4.791,1.252,368.200,96.410,33.270,9.610,baseline
1246.000,310.000,72.310,17.220,862.400,127.100,20.800,3.802,102.700,22.190,4.804,1.254,367.600,96.420,33.240,9.597,baseline
1247.000,308.800,72.860,17.170,860.600,127.000,20.700,3.803,103.100,22.170,4.793,1.255,368.200,96.720,33.310,9.618,baseline
1251.000,309.800,72.860,17.250,869.800,127.100,20.970,3.820,102.700,22.310,4.845,1.256,368.500,96.880,33.390,9.678,baseline
1260.000,311.600,73.370,17.360,867.400,128.200,20.890,3.811,102.300,22.170,4.845,1.271,369.600,96.980,33.560,9.673,baseline
1269.000,313.800,74.160,17.480,867.100,128.400,20.980,3.834,103.400,22.220,4.824,1.261,371.300,97.320,33.650,9.757,baseline
1281.000,316.700,74.420,17.620,872.400,128.600,20.980,3.848,103.300,22.170,4.830,1.264,372.000,97.960,33.740,9.821,baseline
1297.000,318.700,74.410,17.570,873.900,127.900,20.910,3.782,102.700,22.200,4.819,1.268,370.600,96.860,33.410,9.636,baseline
1253.000,309.900,72.460,17.250,864.100,127.600,20.800,3.820,104.300,21.980,4.831,1.252,368.800,96.470,33.160,9.613,baseline
1247.000,310.100,72.490,17.150,860.200,127.300,20.730,3.789,102.400,22.170,4.830,1.254,367.700,96.120,33.170,9.565,baseline
1249.000,311.600,72.770,17.290,865.400,127.000,20.890,3.819,102.000,22.160,4.801,1.258,368.000,96.210,33.000,9.565,baseline
1249.000,309.500,72.760,17.260,863.800,127.200,20.940,3.802,103.800,22.080,4.794,1.255,367.900,96.400,33.210,9.601,baseline
1256.000,312.200,73.140,17.380,870.100,127.900,20.860,3.819,102.100,21.940,4.794,1.257,369.500,96.690,33.290,9.623,baseline
1267.000,313.900,73.840,17.490,869.700,128.400,21.040,3.836,102.600,22.110,4.829,1.257,369.700,96.870,33.440,9.694,baseline
1278.000,315.700,74.190,17.600,874.700,128.700,21.050,3.855,103.800,21.930,4.825,1.262,371.000,97.380,33.550,9.722,baseline
1289.000,318.300,74.590,17.740,877.600,129.200,21.090,3.874,102.400,22.290,4.823,1.262,372.100,97.690,33.750,9.780,baseline
1302.000,320.900,75.320,17.890,882.800,130.300,21.300,3.894,102.700,22.090,4.856,1.263,373.700,97.950,33.880,9.808,baseline
1312.000,321.400,74.970,17.620,873.800,128.500,21.040,3.820,103.700,22.310,4.846,1.265,370.900,97.070,33.340,9.679,baseline
1260.000,312.300,73.100,17.300,865.400,127.800,20.830,3.792,102.600,22.000,4.805,1.260,368.500,96.290,33.190,9.586,baseline
1251.000,308.000,72.330,17.160,863.400,127.800,20.790,3.798,104.100,21.900,4.821,1.248,368.100,96.580,33.070,9.573,baseline
1252.000,310.800,72.680,17.190,862.000,127.500,20.990,3.803,102.900,22.060,4.797,1.254,367.600,96.490,33.190,9.572,baseline
1251.000,308.700,72.030,17.240,866.200,127.100,20.960,3.809,102.300,22.060,4.779,1.258,367.600,96.470,33.200,9.581,baseline
1258.000,311.100,72.870,17.370,867.200,127.400,21.030,3.816,102.200,21.780,4.801,1.253,369.300,96.620,33.270,9.649,baseline
1270.000,313.800,73.890,17.460,876.500,128.200,21.220,3.860,101.400,22.340,4.784,1.260,369.700,97.040,33.270,9.691,baseline
1282.000,316.300,74.200,17.660,876.200,129.200,21.070,3.879,102.600,22.060,4.827,1.262,370.700,97.340,33.490,9.741,baseline
1294.000,319.000,74.900,17.740,882.100,129.100,21.220,3.885,102.600,22.210,4.842,1.266,371.700,97.690,33.720,9.777,baseline
1305.000,321.800,75.440,17.940,882.900,130.200,21.250,3.899,103.300,22.270,4.827,1.262,373.900,98.150,33.870,9.861,baseline
1321.000,324.600,76.140,18.070,887.900,130.500,21.360,3.871,104.400,22.310,4.866,1.272,375.200,98.170,33.870,9.837,baseline
1299.000,317.300,74.080,17.450,873.700,128.400,21.100,3.812,104.400,22.230,4.811,1.249,370.700,96.620,33.310,9.658,baseline
1265.000,311.600,73.290,17.290,869.700,127.800,21.030,3.812,101.800,22.080,4.802,1.257,369.000,96.390,33.260,9.598,baseline
1256.000,310.300,72.730,17.240,867.500,128.100,20.940,3.813,101.200,22.090,4.789,1.263,368.500,96.220,33.150,9.616,baseline
1261.000,311.100,72.860,17.370,866.500,128.000,20.930,3.811,102.800,22.160,4.798,1.262,367.900,96.450,33.220,9.603,baseline
1261.000,311.200,72.910,17.350,870.700,128.300,21.030,3.826,101.800,22.250,4.775,1.260,369.000,96.640,33.270,9.602,baseline
1270.000,313.900,73.840,17.440,871.500,128.500,21.030,3.857,102.500,21.980,4.817,1.258,370.700,96.840,33.430,9.685,baseline
1282.000,316.900,74.000,17.630,875.900,129.200,21.270,3.890,101.700,22.090,4.796,1.265,371.100,97.190,33.560,9.723,baseline
1295.000,318.900,74.510,17.760,878.800,129.600,21.300,3.887,102.100,22.250,4.805,1.264,372.600,97.770,33.550,9.749,baseline
1306.000,321.700,75.390,17.800,886.500,130.300,21.240,3.918,102.200,22.140,4.820,1.259,374.100,97.890,33.750,9.846,baseline
1319.000,324.900,76.340,17.950,887.900,131.000,21.380,3.924,102.100,22.310,4.834,1.266,376.100,98.350,33.990,9.894,baseline
1322.000,322.100,74.870,17.640,878.800,129.000,21.030,3.815,103.700,22.080,4.851,1.256,371.600,97.170,33.400,9.675,baseline
1272.000,314.100,73.300,17.370,870.600,128.800,20.980,3.826,103.800,22.170,4.831,1.255,370.000,96.800,33.390,9.629,baseline
1266.000,312.000,72.980,17.360,871.500,128.200,21.120,3.838,103.300,22.270,4.809,1.255,368.800,96.590,33.260,9.644,baseline
1271.000,313.100,73.120,17.390,869.700,128.600,21.060,3.867,102.600,22.100,4.793,1.256,368.600,96.630,33.210,9.636,baseline
1270.000,313.600,73.350,17.390,871.500,128.700,21.120,3.855,103.900,22.140,4.811,1.264,369.300,96.870,33.280,9.644,baseline
1277.000,315.400,73.770,17.530,873.700,128.700,21.100,3.847,101.700,22.000,4.795,1.256,370.800,97.150,33.440,9.706,baseline
1288.000,317.500,74.180,17.630,879.000,129.500,21.330,3.868,103.300,21.980,4.850,1.258,372.000,97.550,33.610,9.774,baseline
1300.000,319.900,75.010,17.720,882.800,129.800,21.370,3.864,103.400,22.250,4.813,1.266,373.000,97.860,33.680,9.805,baseline
1311.000,321.500,75.480,17.870,887.000,130.500,21.360,3.902,101.400,22.290,4.823,1.267,374.400,98.080,33.960,9.860,baseline
1323.000,324.900,76.370,18.090,892.000,131.000,21.460,3.922,105.000,22.320,4.847,1.269,376.500,98.620,34.010,9.847,baseline
1302.000,318.600,74.200,17.420,875.200,129.200,21.070,3.842,103.200,22.320,4.802,1.263,370.400,97.190,33.360,9.680,baseline
1270.000,313.300,73.340,17.330,873.600,127.900,20.950,3.833,101.600,22.100,4.792,1.256,369.800,96.720,33.190,9.637,baseline
1261.000,310.700,72.870,17.280,868.500,128.300,21.140,3.836,103.500,22.040,4.811,1.245,368.800,96.800,33.250,9.613,baseline
1264.000,310.800,72.940,17.250,868.000,128.300,20.990,3.813,102.000,22.090,4.811,1.253,368.600,96.560,33.260,9.624,baseline
1263.000,312.000,72.930,17.340,870.600,128.900,20.950,3.830,102.700,22.110,4.786,1.250,368.700,96.920,33.410,9.632,baseline
1271.000,314.000,73.550,17.400,869.800,128.900,21.150,3.846,102.700,21.940,4.797,1.252,369.500,97.070,33.350,9.682,baseline
1282.000,316.100,73.980,17.630,877.400,129.600,21.210,3.876,103.000,22.250,4.790,1.260,372.000,97.460,33.610,9.745,baseline
1292.000,318.100,74.310,17.660,880.400,129.900,21.330,3.884,103.600,22.070,4.820,1.263,372.400,97.750,33.760,9.779,baseline
1302.000,322.100,74.930,17.850,883.200,130.400,21.310,3.880,103.300,22.200,4.829,1.257,373.700,98.090,33.800,9.842,baseline
1315.000,324.200,75.920,17.910,888.600,130.700,21.510,3.920,101.800,22.330,4.852,1.264,375.300,98.290,33.960,9.901,baseline
1328.000,326.200,75.490,17.810,879.600,129.700,21.230,3.854,103.900,22.160,4.861,1.258,372.300,97.540,33.430,9.680,baseline
1273.000,314.600,74.080,17.400,870.500,128.800,21.090,3.852,103.400,22.340,4.818,1.257,370.200,96.740,33.290,9.659,baseline
1266.000,311.800,73.350,17.380,868.800,128.500,21.040,3.833,102.400,21.990,4.774,1.254,369.400,96.600,33.280,9.602,baseline
1265.000,312.300,73.500,17.340,876.200,128.700,21.090,3.832,102.400,22.090,4.783,1.253,369.900,96.940,33.260,9.643,baseline
1268.000,312.500,73.430,17.400,872.000,128.600,20.990,3.850,102.700,22.260,4.794,1.257,369.800,96.970,33.300,9.643,baseline
1274.000,313.900,74.080,17.480,874.500,129.400,21.160,3.862,103.000,22.330,4.834,1.257,370.700,97.050,33.340,9.688,baseline
1284.000,318.200,74.440,17.610,874.800,129.600,21.230,3.858,104.000,21.940,4.858,1.258,371.500,97.470,33.580,9.764,baseline
1296.000,319.700,74.510,17.870,883.300,130.300,21.500,3.893,103.900,22.170,4.829,1.268,371.800,98.010,33.690,9.779,baseline
1307.000,321.900,75.450,17.920,885.300,131.000,21.380,3.894,102.300,22.090,4.847,1.258,373.700,98.050,33.850,9.831,baseline
1319.000,324.700,76.210,18.060,887.600,131.100,21.560,3.921,103.700,22.110,4.857,1.270,374.600,98.630,34.020,9.883,baseline
1336.000,328.900,77.240,18.280,892.900,131.500,21.530,3.898,102.900,22.180,4.859,1.272,376.700,98.450,33.930,9.856,baseline
1298.000,318.100,73.980,17.640,876.000,129.600,21.310,3.872,103.600,22.180,4.815,1.257,372.000,97.330,33.540,9.699,baseline
1282.000,316.300,73.960,17.520,875.800,129.300,21.100,3.891,103.000,21.800,4.844,1.253,371.300,96.910,33.430,9.656,baseline
1277.000,316.500,74.080,17.590,877.200,129.000,21.160,3.886,101.300,22.230,4.832,1.261,370.500,97.230,33.470,9.676,baseline
1282.000,317.200,74.410,17.580,875.100,129.000,21.180,3.857,102.500,22.110,4.812,1.255,371.700,97.360,33.480,9.649,baseline
1283.000,316.900,74.460,17.650,877.000,129.500,21.250,3.893,104.100,22.030,4.838,1.259,371.800,97.390,33.470,9.693,baseline
1292.000,319.100,75.120,17.850,877.500,130.200,21.250,3.894,101.000,22.280,4.838,1.264,372.800,97.580,33.670,9.761,baseline
1304.000,323.500,75.540,17.950,881.500,130.800,21.290,3.909,103.400,22.450,4.849,1.257,373.700,98.250,33.790,9.804,baseline
1316.000,323.600,76.200,18.070,886.000,131.100,21.480,3.920,103.600,22.320,4.821,1.269,374.900,98.510,33.920,9.862,baseline
1331.000,327.000,76.570,18.120,886.900,131.000,21.400,3.907,103.000,22.420,4.815,1.267,375.700,97.940,33.790,9.742,baseline
1294.000,317.600,74.930,17.660,879.800,129.300,21.360,3.885,102.900,22.160,4.806,1.260,371.400,97.320,33.530,9.693,baseline
1287.000,316.600,74.330,17.690,877.200,129.300,21.190,3.869,102.800,22.190,4.833,1.264,371.600,97.140,33.460,9.717,baseline
1287.000,317.600,74.780,17.700,883.000,129.900,21.280,3.875,102.000,22.200,4.801,1.260,371.500,97.240,33.510,9.685,baseline
1289.000,317.600,74.380,17.700,877.000,129.400,21.220,3.877,103.200,22.110,4.838,1.264,372.200,97.500,33.560,9.725,baseline
1293.000,319.800,74.640,17.760,880.300,130.300,21.400,3.882,101.300,22.450,4.841,1.264,373.000,97.390,33.670,9.781,baseline
1303.000,321.800,75.620,17.920,881.300,130.000,21.200,3.915,103.900,22.220,4.868,1.262,373.900,98.040,33.770,9.804,baseline
1314.000,325.000,75.960,18.070,888.400,130.900,21.360,3.915,104.300,22.230,4.865,1.265,374.400,98.440,34.010,9.858,baseline
1326.000,329.000,76.720,18.180,888.200,131.900,21.480,3.923,103.400,22.280,4.822,1.266,375.600,98.760,34.050,9.866,baseline
1324.000,323.600,75.520,17.730,877.800,130.300,21.210,3.840,103.000,22.520,4.835,1.260,372.900,97.350,33.620,9.699,baseline
1285.000,317.400,74.150,17.660,877.300,129.400,21.200,3.842,105.500,22.230,4.844,1.261,371.400,97.080,33.380,9.658,baseline
1277.000,316.300,73.890,17.570,876.300,128.800,21.280,3.849,102.200,22.150,4.801,1.256,371.000,97.080,33.450,9.663,baseline
1282.000,317.400,74.360,17.610,875.500,129.400,21.240,3.871,103.000,22.160,4.833,1.268,371.000,97.090,33.400,9.671,baseline
1279.000,315.200,73.980,17.650,877.000,129.400,21.200,3.884,103.500,22.380,4.836,1.257,371.100,96.980,33.250,9.677,baseline
1287.000,317.900,74.420,17.710,880.200,130.300,21.280,3.888,102.100,22.450,4.830,1.267,372.000,97.260,33.530,9.721,baseline
1297.000,320.600,75.360,17.810,882.300,130.400,21.220,3.919,103.400,22.190,4.801,1.263,372.600,97.490,33.700,9.759,baseline
1307.000,321.900,75.730,17.950,884.300,130.200,21.380,3.911,102.500,22.120,4.838,1.271,372.600,97.980,33.740,9.786,baseline
1317.000,323.900,76.060,18.110,889.800,130.900,21.410,3.932,102.800,22.270,4.824,1.265,374.500,98.390,33.930,9.818,baseline
1323.000,324.800,75.650,17.800,881.200,129.500,21.140,3.856,102.700,22.080,4.836,1.260,371.100,97.200,33.340,9.640,baseline
1279.000,316.500,73.870,17.530,872.900,129.100,21.210,3.843,102.600,22.280,4.822,1.253,369.400,96.840,33.190,9.611,baseline
1271.000,313.100,73.420,17.480,868.600,128.600,20.990,3.838,102.000,22.240,4.785,1.257,369.400,96.320,33.200,9.573,baseline
1273.000,314.500,73.870,17.530,875.000,129.100,21.160,3.836,103.300,22.040,4.826,1.252,369.400,96.510,33.170,9.573,baseline
1271.000,314.200,73.590,17.500,873.900,128.800,21.110,3.857,102.000,22.260,4.812,1.264,369.300,96.370,33.170,9.593,baseline
1278.000,316.300,73.940,17.610,877.100,129.200,21.120,3.854,102.900,22.190,4.847,1.256,370.200,96.800,33.320,9.643,baseline
1287.000,317.400,74.610,17.690,878.600,129.200,21.130,3.893,103.200,22.000,4.834,1.268,370.500,97.090,33.340,9.655,baseline
1298.000,321.200,74.970,17.900,882.900,129.700,21.430,3.890,102.800,22.360,4.811,1.277,371.200,97.320,33.530,9.721,baseline
1307.000,323.500,75.480,17.950,886.900,131.000,21.340,3.917,104.000,22.170,4.863,1.270,373.000,97.250,33.630,9.762,baseline
1319.000,325.000,76.280,18.100,888.700,131.200,21.440,3.938,103.600,22.460,4.848,1.266,374.100,98.030,33.860,9.843,baseline
1332.000,329.500,76.830,18.240,893.200,131.800,21.520,3.934,102.800,22.290,4.859,1.273,375.400,98.580,33.910,9.869,baseline
1345.000,330.000,77.420,18.360,896.400,132.000,21.540,3.953,104.300,22.150,4.853,1.277,376.200,98.760,34.090,9.920,baseline
1361.000,335.300,78.160,18.540,894.700,132.400,21.370,3.892,103.400,22.430,4.877,1.272,377.800,98.720,33.860,9.815,baseline
1308.000,319.600,74.910,17.700,878.400,129.500,21.180,3.861,102.700,22.330,4.834,1.255,371.900,97.210,33.410,9.627,baseline
1283.000,314.900,73.930,17.570,874.700,128.700,20.960,3.833,103.500,21.980,4.820,1.249,369.300,96.440,33.110,9.605,baseline
1269.000,313.300,73.730,17.430,873.500,128.800,21.110,3.837,102.000,22.140,4.805,1.256,368.900,96.270,33.030,9.570,baseline
1271.000,314.300,73.700,17.470,873.000,128.600,21.180,3.846,102.900,22.210,4.813,1.255,368.800,96.250,33.060,9.535,baseline
1268.000,312.500,73.620,17.520,873.300,128.600,21.000,3.834,103.500,22.100,4.824,1.254,368.900,96.590,33.120,9.544,baseline
1275.000,316.000,74.020,17.540,874.300,129.700,21.150,3.849,102.200,22.360,4.799,1.262,369.800,96.540,33.240,9.620,baseline
1285.000,316.700,74.530,17.710,878.100,129.200,21.250,3.877,101.100,22.190,4.827,1.260,369.900,96.860,33.290,9.628,baseline
1293.000,319.100,74.980,17.840,880.000,129.800,21.210,3.894,103.200,22.210,4.827,1.263,371.000,97.040,33.330,9.683,baseline
1304.000,320.900,75.430,17.940,887.000,129.900,21.270,3.899,101.100,22.400,4.838,1.271,372.000,97.580,33.490,9.725,baseline
1313.000,324.900,76.050,18.090,886.700,131.100,21.410,3.895,103.800,22.310,4.844,1.267,373.900,97.540,33.740,9.791,baseline
1326.000,326.900,76.630,18.150,888.800,131.400,21.390,3.913,103.500,22.170,4.873,1.266,374.800,98.260,33.740,9.843,baseline
1339.000,329.500,77.610,18.360,895.700,132.100,21.570,3.929,102.500,22.570,4.860,1.272,376.500,98.620,34.050,9.864,baseline
1351.000,331.000,77.320,18.250,886.100,130.600,21.360,3.858,104.300,22.320,4.878,1.265,373.100,97.580,33.520,9.688,baseline
1289.000,316.800,74.730,17.700,871.500,129.600,21.070,3.843,103.000,22.190,4.831,1.265,371.000,96.820,33.210,9.603,baseline
1274.000,314.400,73.880,17.440,872.900,128.500,21.060,3.840,101.300,22.190,4.817,1.262,369.100,96.310,32.980,9.557,baseline
1265.000,313.900,73.440,17.420,866.400,128.600,21.050,3.845,103.500,21.980,4.827,1.264,368.600,96.450,33.160,9.542,baseline
1267.000,313.600,73.530,17.410,872.200,127.900,21.060,3.833,102.000,22.180,4.803,1.263,367.700,96.390,33.060,9.532,baseline
1269.000,314.200,73.560,17.500,874.600,128.700,20.980,3.848,103.500,22.260,4.820,1.272,367.800,96.290,33.040,9.557,baseline
1276.000,316.500,73.880,17.600,871.900,128.800,21.240,3.869,104.000,22.200,4.821,1.267,369.100,96.790,33.290,9.623,baseline
1286.000,318.700,74.770,17.740,880.600,129.400,21.200,3.861,104.000,22.240,4.837,1.268,370.000,97.010,33.310,9.656,baseline
1295.000,320.200,75.050,17.860,878.800,129.600,21.230,3.888,102.900,22.150,4.873,1.268,371.000,97.260,33.440,9.704,baseline
1306.000,323.300,75.730,17.910,882.000,130.800,21.250,3.886,103.700,22.230,4.860,1.271,372.600,97.580,33.640,9.733,baseline
1319.000,326.100,76.710,18.210,883.600,130.600,21.390,3.913,103.300,22.410,4.843,1.279,373.300,98.170,33.700,9.793,baseline
1334.000,329.000,77.270,18.460,892.600,131.600,21.640,3.940,104.200,22.350,4.865,1.271,376.100,98.240,33.900,9.873,baseline
1351.000,331.700,77.750,18.550,894.400,131.800,21.540,3.895,103.800,22.510,4.857,1.275,377.100,98.430,33.760,9.767,baseline
1312.000,321.600,75.070,17.850,877.400,129.300,21.280,3.880,102.300,22.490,4.837,1.266,371.600,96.880,33.360,9.593,baseline
1283.000,317.500,74.940,17.690,875.000,128.800,21.140,3.861,104.700,22.260,4.857,1.258,369.800,96.610,33.170,9.556,baseline
1273.000,315.600,73.920,17.560,873.700,128.900,21.220,3.861,104.900,22.170,4.821,1.268,369.100,96.460,33.120,9.554,baseline
1276.000,315.000,74.430,17.560,876.200,128.300,21.110,3.847,103.200,22.440,4.842,1.277,369.700,96.370,33.160,9.539,baseline
1275.000,314.600,74.070,17.670,873.600,128.500,20.990,3.862,102.000,22.260,4.864,1.266,369.700,96.450,33.100,9.579,baseline
1282.000,318.400,74.580,17.750,877.500,129.800,21.320,3.867,104.100,22.310,4.812,1.268,370.700,96.580,33.220,9.620,baseline
1293.000,318.600,75.470,17.880,877.200,130.000,21.230,3.904,101.800,22.400,4.817,1.278,371.400,96.740,33.260,9.616,baseline
1303.000,321.900,75.710,18.100,883.200,130.400,21.280,3.900,103.900,22.250,4.827,1.267,371.400,97.280,33.460,9.683,baseline
1312.000,323.200,76.510,18.140,881.700,130.800,21.280,3.905,102.300,22.390,4.859,1.278,372.700,97.790,33.570,9.717,baseline
1325.000,326.700,76.990,18.180,890.700,131.800,21.340,3.920,103.600,22.400,4.856,1.270,374.300,98.050,33.770,9.786,baseline
1338.000,328.000,77.340,18.410,890.100,132.200,21.560,3.931,104.700,22.320,4.882,1.278,376.000,98.430,33.940,9.850,baseline
1351.000,331.900,78.050,18.580,894.300,132.100,21.540,3.938,103.900,22.420,4.848,1.286,377.100,98.800,33.970,9.876,baseline
1355.000,331.600,76.980,18.180,886.000,130.200,21.380,3.874,103.600,22.370,4.859,1.269,373.000,97.440,33.480,9.652,baseline
1296.000,320.600,75.160,17.780,877.400,129.200,21.180,3.826,103.200,22.330,4.842,1.270,371.400,97.120,33.260,9.629,baseline
1283.000,318.800,74.240,17.670,872.700,129.100,21.050,3.836,101.400,22.200,4.835,1.266,370.000,96.880,33.160,9.590,baseline
1280.000,317.900,74.290,17.680,874.100,129.800,21.130,3.879,102.700,22.140,4.846,1.261,370.700,96.490,33.170,9.579,baseline
1280.000,316.300,74.150,17.590,874.700,129.300,21.170,3.866,103.300,22.150,4.830,1.274,369.500,96.720,33.260,9.635,baseline
1283.000,318.000,74.060,17.720,875.800,129.400,21.180,3.888,103.400,22.270,4.861,1.264,371.000,96.900,33.350,9.669,baseline
1292.000,319.400,74.900,17.790,878.800,130.500,21.280,3.862,102.500,22.250,4.859,1.268,371.300,97.090,33.460,9.657,baseline
1301.000,321.700,75.290,17.920,884.100,130.300,21.340,3.878,103.700,22.310,4.843,1.271,372.400,97.520,33.490,9.735,baseline
1311.000,322.600,75.890,18.020,886.800,130.900,21.270,3.896,102.900,22.430,4.865,1.273,374.200,97.730,33.670,9.781,baseline
1321.000,325.300,76.280,18.110,886.500,131.100,21.450,3.898,103.400,22.170,4.865,1.271,374.900,98.260,33.820,9.827,baseline
1334.000,328.000,76.910,18.210,887.400,131.400,21.580,3.914,103.600,22.420,4.866,1.279,376.100,98.390,34.030,9.865,baseline
1347.000,330.900,77.650,18.410,894.900,131.800,21.540,3.919,103.500,22.450,4.877,1.279,377.500,98.820,34.130,9.939,baseline
1342.000,327.500,75.840,17.870,885.700,129.800,21.200,3.847,103.700,22.120,4.877,1.265,373.800,97.760,33.450,9.720,baseline
1294.000,321.300,74.560,17.720,882.600,129.600,21.200,3.838,101.200,22.310,4.835,1.264,372.500,97.280,33.410,9.719,baseline
1287.000,317.400,74.390,17.590,878.900,129.600,21.130,3.855,102.100,22.220,4.842,1.266,372.000,97.300,33.540,9.690,baseline
1290.000,318.700,74.670,17.670,881.200,129.600,21.120,3.850,103.900,22.040,4.844,1.261,371.200,96.890,33.430,9.688,baseline
1287.000,317.700,74.330,17.660,878.400,129.400,21.060,3.874,101.300,22.380,4.837,1.266,372.500,97.110,33.390,9.697,baseline
1295.000,319.600,74.910,17.690,882.300,129.600,21.090,3.886,103.700,22.260,4.853,1.264,373.200,97.310,33.560,9.743,baseline
1306.000,321.700,75.380,17.940,887.700,130.600,21.310,3.892,103.400,22.030,4.811,1.271,373.200,97.890,33.720,9.816,baseline
1318.000,323.800,75.570,18.040,889.500,130.800,21.290,3.888,102.700,22.360,4.839,1.263,375.100,98.150,33.920,9.823,baseline
1328.000,326.200,76.510,18.170,891.200,131.400,21.300,3.899,103.200,22.060,4.828,1.271,375.900,98.440,33.970,9.921,baseline
1341.000,328.300,76.630,18.260,893.400,131.400,21.620,3.899,104.800,22.200,4.838,1.275,377.600,99.140,34.120,9.971,baseline
1354.000,332.900,77.650,18.530,900.800,132.500,21.620,3.941,103.400,22.500,4.872,1.266,378.400,99.240,34.330,10.050,baseline
1372.000,337.400,78.280,18.430,901.800,131.900,21.550,3.846,104.100,22.330,4.886,1.275,377.800,98.530,33.960,9.893,baseline
1312.000,321.200,74.940,17.840,883.500,129.500,21.160,3.854,102.500,22.470,4.839,1.262,373.100,97.590,33.520,9.751,baseline
1295.000,318.700,74.440,17.610,878.100,129.300,21.160,3.851,102.200,22.060,4.821,1.256,372.300,97.290,33.470,9.740,baseline
1284.000,317.700,74.230,17.590,877.300,129.500,21.230,3.839,104.100,22.140,4.806,1.252,371.700,97.220,33.470,9.748,baseline
1287.000,316.300,74.140,17.550,879.000,129.300,21.000,3.866,101.700,22.070,4.814,1.256,370.900,97.260,33.420,9.744,baseline
1288.000,318.500,74.360,17.580,880.000,129.300,21.120,3.849,103.000,21.890,4.822,1.248,370.400,97.300,33.510,9.766,baseline
1296.000,318.800,74.930,17.720,879.400,130.000,21.150,3.858,103.400,22.030,4.835,1.257,371.800,97.600,33.580,9.808,baseline
1308.000,321.400,75.280,17.840,884.100,130.500,21.300,3.883,100.400,22.160,4.779,1.265,372.300,97.740,33.800,9.868,baseline
1320.000,322.600,75.850,17.970,887.400,130.400,21.340,3.874,102.900,22.080,4.846,1.258,374.200,98.020,33.870,9.876,baseline
1330.000,325.700,76.240,18.130,891.300,131.000,21.600,3.895,103.400,22.160,4.801,1.263,374.900,98.670,34.050,9.967,baseline
1343.000,329.500,77.200,18.310,896.000,131.800,21.690,3.894,102.400,22.340,4.805,1.258,376.800,98.780,34.300,9.994,baseline
1360.000,332.400,77.850,18.480,899.300,132.400,21.520,3.911,103.800,22.090,4.807,1.258,379.300,99.610,34.310,10.040,baseline
1348.000,326.300,75.950,17.880,886.600,130.200,21.200,3.830,103.900,22.250,4.791,1.259,372.900,97.840,33.640,9.836,baseline
1297.000,319.900,74.700,17.660,885.300,129.300,21.100,3.834,101.900,21.990,4.781,1.247,371.200,97.250,33.500,9.789,baseline
1286.000,316.100,74.160,17.490,882.900,128.900,21.170,3.824,102.700,22.090,4.780,1.242,369.400,97.010,33.450,9.807,baseline
1287.000,315.500,73.900,17.550,879.100,129.000,21.080,3.839,101.900,22.180,4.795,1.238,369.600,96.980,33.470,9.781,baseline
1286.000,317.100,74.030,17.570,880.300,129.000,20.880,3.825,101.900,21.790,4.737,1.238,369.900,97.070,33.500,9.802,baseline
1291.000,318.800,74.430,17.590,884.300,129.700,21.110,3.809,102.600,21.850,4.760,1.243,371.100,97.210,33.650,9.832,baseline
1302.000,320.100,75.440,17.790,883.400,129.800,21.290,3.834,102.100,22.150,4.795,1.246,371.200,97.750,33.770,9.880,baseline
1314.000,322.800,75.460,17.920,882.800,130.700,21.190,3.866,101.200,22.100,4.786,1.245,374.000,97.950,33.890,9.913,baseline
1325.000,324.600,76.050,18.040,893.900,130.800,21.460,3.881,103.600,21.890,4.786,1.249,374.400,98.570,34.060,10.020,baseline
1337.000,328.700,76.660,18.220,891.000,131.700,21.390,3.860,103.000,22.180,4.762,1.252,377.000,98.830,34.130,10.050,baseline
1351.000,331.100,77.580,18.360,897.900,131.600,21.640,3.910,103.200,22.060,4.809,1.248,377.900,99.480,34.480,10.110,baseline
1366.000,333.500,77.560,18.210,894.000,131.400,21.260,3.828,102.700,22.000,4.768,1.250,376.800,98.710,33.970,9.956,baseline
1305.000,318.900,74.720,17.640,878.900,129.400,21.100,3.819,102.000,22.040,4.721,1.235,372.300,97.990,33.840,9.873,baseline
1292.000,317.100,73.980,17.480,878.600,129.200,21.180,3.834,103.000,21.820,4.744,1.231,370.900,97.390,33.700,9.839,baseline
1287.000,316.200,74.180,17.580,879.800,128.800,21.080,3.841,102.100,21.740,4.757,1.232,371.300,97.670,33.720,9.844,baseline
1287.000,317.100,73.650,17.480,879.400,129.200,21.030,3.824,101.400,21.790,4.703,1.238,371.200,97.480,33.780,9.852,baseline
1289.000,317.200,74.110,17.540,878.400,129.200,21.110,3.823,102.800,21.730,4.755,1.242,371.900,97.720,33.850,9.885,baseline
1296.000,319.100,74.590,17.680,881.100,130.000,21.120,3.820,102.100,22.060,4.745,1.237,373.100,98.310,33.950,9.946,baseline
1306.000,321.700,75.060,17.710,882.000,129.900,21.270,3.820,102.300,22.150,4.733,1.236,374.000,98.160,34.180,9.996,baseline
1315.000,322.600,75.800,17.860,886.700,130.500,21.340,3.857,102.700,21.840,4.749,1.237,375.400,98.590,34.230,10.050,baseline
1326.000,324.200,75.850,18.030,892.400,131.000,21.270,3.861,103.600,22.030,4.751,1.235,376.400,99.240,34.430,10.100,baseline
1339.000,328.400,76.590,18.230,895.600,131.400,21.320,3.854,102.100,21.910,4.743,1.234,377.200,99.600,34.530,10.120,baseline
1336.000,323.900,75.630,17.800,880.400,129.200,21.160,3.815,103.200,21.810,4.744,1.222,373.000,98.370,34.100,9.934,baseline
1290.000,317.100,74.210,17.460,879.500,128.600,21.120,3.834,101.900,21.790,4.686,1.233,371.700,97.770,33.810,9.907,baseline
1282.000,315.900,73.770,17.410,877.500,128.300,20.980,3.804,103.300,21.820,4.725,1.225,371.500,97.720,33.910,9.905,baseline
1285.000,316.500,73.590,17.540,875.100,128.900,20.960,3.812,102.900,21.860,4.688,1.219,371.900,97.780,33.780,9.903,baseline
1281.000,314.800,73.730,17.470,876.300,128.300,20.970,3.797,100.800,22.100,4.688,1.214,370.800,98.070,33.820,9.941,baseline
1288.000,316.200,74.670,17.590,875.900,129.000,21.130,3.815,103.100,21.870,4.717,1.225,372.100,97.840,34.000,9.967,baseline
1297.000,318.800,74.870,17.640,877.000,130.000,21.160,3.818,102.900,21.690,4.702,1.229,373.600,98.590,34.100,10.030,baseline
1307.000,320.800,75.310,17.820,882.900,129.800,21.140,3.831,100.900,21.820,4.704,1.219,374.800,98.650,34.350,10.070,baseline
1316.000,323.200,75.690,17.910,884.300,130.500,21.300,3.842,102.500,21.930,4.708,1.216,375.500,98.770,34.320,10.110,baseline
1328.000,326.000,76.620,18.090,889.400,130.900,21.310,3.841,103.900,21.810,4.729,1.229,376.500,99.440,34.530,10.160,baseline
1342.000,327.800,77.170,18.220,892.300,130.800,21.400,3.871,101.200,21.940,4.713,1.226,377.800,99.620,34.740,10.200,baseline
1339.000,326.600,75.700,17.820,881.500,128.900,21.020,3.788,102.800,21.900,4.731,1.227,373.700,98.210,34.040,9.973,baseline
1286.000,315.800,73.960,17.540,874.200,128.100,20.980,3.773,101.600,21.700,4.691,1.218,371.800,97.690,33.840,9.925,baseline
1273.000,314.400,73.330,17.360,872.200,128.100,20.950,3.780,101.300,21.770,4.668,1.209,370.500,97.430,33.770,9.864,baseline
1272.000,313.400,73.470,17.380,874.800,128.400,20.940,3.754,103.500,21.710,4.655,1.206,369.200,97.420,33.640,9.860,baseline
1270.000,314.000,73.260,17.310,874.200,128.200,20.820,3.776,100.700,21.800,4.668,1.213,369.200,97.220,33.770,9.852,baseline
1273.000,313.800,73.660,17.440,874.000,128.600,20.790,3.817,100.900,21.750,4.687,1.216,370.200,97.200,33.730,9.858,baseline
1282.000,315.400,74.180,17.580,873.800,129.100,20.970,3.815,101.100,21.640,4.661,1.211,371.200,97.500,33.760,9.897,baseline
1291.000,317.400,74.910,17.600,880.400,129.000,21.090,3.829,100.400,21.970,4.662,1.218,371.100,97.750,33.990,9.926,baseline
1299.000,319.900,75.060,17.760,879.800,129.800,21.030,3.813,102.200,21.790,4.705,1.210,372.600,98.040,34.010,9.997,baseline
1309.000,322.400,75.320,17.910,880.900,129.900,21.180,3.810,101.800,21.770,4.703,1.219,372.800,98.440,34.100,10.040,baseline
1321.000,323.400,76.420,17.980,884.900,129.900,21.260,3.855,101.500,22.040,4.685,1.220,374.500,98.680,34.420,10.040,baseline
1335.000,326.400,76.670,18.120,888.200,129.600,21.110,3.818,100.900,21.770,4.732,1.217,374.900,98.560,34.000,9.928,baseline
1289.000,315.700,73.830,17.460,872.200,128.100,21.040,3.783,102.600,21.720,4.649,1.219,369.700,97.290,33.470,9.835,baseline
1271.000,313.400,73.140,17.340,870.200,127.500,20.730,3.769,100.200,21.800,4.641,1.217,368.000,96.970,33.540,9.736,baseline
1261.000,310.200,72.790,17.260,866.200,127.100,20.960,3.778,102.400,21.680,4.659,1.203,369.100,96.540,33.360,9.748,baseline
1262.000,311.800,72.970,17.310,869.000,127.600,20.800,3.771,100.200,21.750,4.683,1.215,366.800,96.560,33.350,9.752,baseline
1263.000,311.100,73.670,17.270,869.700,128.100,20.870,3.784,100.700,21.840,4.676,1.207,367.700,96.500,33.400,9.721,baseline
1269.000,314.000,73.840,17.340,869.800,127.900,20.870,3.784,103.300,21.550,4.692,1.218,368.700,96.950,33.480,9.791,baseline
1279.000,314.800,73.910,17.520,876.500,129.000,20.980,3.792,101.700,21.700,4.665,1.224,368.900,97.000,33.470,9.823,baseline
1288.000,316.900,74.480,17.620,874.600,129.400,20.890,3.799,101.600,21.950,4.719,1.218,371.100,97.500,33.730,9.824,baseline
1297.000,320.200,74.940,17.720,879.500,129.300,20.990,3.802,101.800,21.690,4.722,1.225,371.100,97.670,33.900,9.915,baseline
1308.000,322.600,75.290,17.850,881.600,129.600,21.250,3.809,101.700,21.880,4.695,1.230,373.100,97.950,33.990,9.953,baseline
1321.000,325.600,76.140,18.000,885.600,130.100,21.210,3.788,102.300,21.940,4.737,1.226,374.100,98.330,34.140,9.934,baseline
1309.000,319.100,74.380,17.510,873.300,128.000,20.850,3.759,102.600,21.740,4.690,1.218,369.600,96.860,33.450,9.760,baseline
1272.000,313.000,73.500,17.350,867.100,127.900,20.750,3.768,99.590,21.680,4.692,1.227,368.300,96.740,33.390,9.728,baseline
1262.000,309.900,72.890,17.220,865.700,127.700,20.810,3.789,102.200,21.890,4.695,1.210,367.300,96.320,33.330,9.731,baseline
1263.000,311.200,73.040,17.200,869.100,127.700,20.820,3.763,101.400,21.890,4.671,1.226,367.500,96.120,33.260,9.735,baseline
1260.000,311.000,73.040,17.200,865.300,127.500,20.770,3.775,100.600,21.790,4.725,1.229,366.900,96.370,33.300,9.733,baseline
1266.000,311.300,73.160,17.370,871.300,127.700,20.850,3.788,103.700,21.760,4.723,1.220,367.300,96.420,33.410,9.790,baseline
1275.000,314.100,73.750,17.470,873.500,127.900,20.910,3.788,102.600,21.860,4.706,1.234,368.500,96.740,33.530,9.797,baseline
1284.000,316.100,74.410,17.540,874.400,128.600,20.930,3.782,101.700,21.910,4.705,1.231,369.200,97.080,33.580,9.820,baseline
1294.000,318.900,74.860,17.640,879.500,129.200,20.980,3.798,103.400,21.810,4.755,1.228,370.500,97.410,33.740,9.882,baseline
1304.000,322.200,75.430,17.790,880.200,129.700,21.210,3.804,101.500,22.000,4.730,1.239,371.300,97.860,33.890,9.939,baseline
1317.000,324.100,75.810,17.950,884.000,129.600,21.260,3.816,101.900,22.000,4.741,1.240,373.400,98.220,33.890,9.916,baseline
1311.000,319.100,74.880,17.490,870.300,128.200,20.820,3.756,102.900,22.130,4.743,1.228,368.800,96.840,33.330,9.713,baseline
1268.000,312.800,73.140,17.260,865.700,127.400,20.800,3.748,101.400,21.950,4.688,1.225,366.700,96.320,33.220,9.677,baseline
1258.000,310.400,72.680,17.210,866.100,127.600,20.840,3.772,101.600,21.970,4.712,1.220,366.600,95.930,33.160,9.654,baseline
1260.000,311.000,72.980,17.180,864.600,127.300,20.770,3.752,102.000,21.760,4.699,1.219,366.700,96.210,33.170,9.655,baseline
1258.000,311.600,73.180,17.230,867.500,127.500,20.810,3.767,101.300,21.760,4.718,1.227,366.400,96.170,33.290,9.656,baseline
1263.000,311.500,73.190,17.330,864.700,127.900,20.850,3.757,101.800,21.740,4.749,1.227,367.300,96.160,33.340,9.731,baseline
1274.000,314.700,73.780,17.440,869.400,128.200,20.860,3.784,102.100,21.720,4.724,1.237,368.000,96.780,33.430,9.740,baseline
1282.000,317.400,74.200,17.520,871.600,128.700,21.060,3.792,101.500,21.950,4.745,1.239,368.900,96.820,33.580,9.786,baseline
1291.000,317.400,74.900,17.680,879.400,128.500,21.040,3.817,102.900,21.840,4.759,1.225,370.500,97.280,33.670,9.833,baseline
1304.000,319.900,75.130,17.760,876.700,129.500,21.110,3.830,101.100,22.010,4.768,1.238,371.200,97.700,33.780,9.903,baseline
1315.000,324.000,75.750,17.910,883.000,129.900,21.200,3.808,102.700,22.050,4.750,1.241,372.400,97.970,34.050,9.929,baseline
1328.000,325.600,75.900,17.820,876.200,128.800,20.970,3.787,103.600,21.880,4.755,1.235,371.300,97.130,33.500,9.715,baseline
1271.000,313.000,73.120,17.270,867.600,127.100,20.740,3.755,102.700,22.120,4.705,1.227,367.200,96.670,33.320,9.678,baseline
1257.000,310.500,72.630,17.160,863.700,126.700,20.850,3.754,100.700,21.800,4.714,1.225,366.200,95.930,33.200,9.616,baseline
1251.000,309.300,72.320,17.100,865.000,127.100,20.720,3.789,101.000,21.620,4.741,1.221,366.000,96.190,32.980,9.632,baseline
1252.000,309.000,72.320,17.160,863.800,126.900,20.680,3.771,100.300,21.890,4.713,1.230,365.000,96.020,33.040,9.596,baseline
1254.000,309.100,72.980,17.130,865.400,127.300,20.770,3.777,100.800,21.810,4.720,1.227,365.900,95.960,33.170,9.664,baseline
1263.000,311.500,73.350,17.300,864.900,127.800,20.760,3.800,102.200,22.000,4.724,1.235,366.600,96.420,33.300,9.686,baseline
1273.000,314.300,73.620,17.370,866.700,128.200,20.960,3.787,100.400,21.900,4.748,1.233,367.600,96.530,33.380,9.717,baseline
1283.000,316.200,74.380,17.480,869.400,128.300,21.000,3.802,101.800,21.730,4.742,1.235,369.800,97.090,33.530,9.766,baseline
1293.000,318.600,74.670,17.680,875.100,129.100,21.100,3.829,102.200,21.790,4.755,1.236,369.900,97.230,33.670,9.865,baseline
1305.000,320.600,75.060,17.820,880.600,129.300,21.110,3.818,101.600,22.010,4.769,1.239,372.300,97.640,33.820,9.867,baseline
1317.000,323.900,75.790,17.950,882.600,129.900,21.360,3.854,102.800,22.080,4.770,1.250,372.400,98.110,34.010,9.949,baseline
1329.000,324.400,75.620,17.780,874.700,128.700,20.970,3.781,101.900,22.110,4.750,1.232,370.500,97.180,33.470,9.740,baseline
1270.000,312.800,73.240,17.310,867.700,127.300,20.860,3.798,100.500,21.900,4.732,1.234,367.000,96.510,33.290,9.664,baseline
1258.000,311.700,72.970,17.130,866.800,127.500,20.860,3.781,101.600,21.690,4.740,1.219,366.100,96.120,33.130,9.643,baseline
1254.000,310.200,72.900,17.180,864.800,127.400,20.780,3.808,99.500,21.980,4.712,1.229,366.600,96.110,33.210,9.640,baseline
1255.000,308.800,72.730,17.210,865.200,127.200,20.730,3.774,102.000,21.950,4.744,1.229,366.300,96.210,33.220,9.640,baseline
1259.000,310.500,73.010,17.240,868.700,127.200,20.810,3.766,102.200,21.900,4.729,1.228,367.000,96.340,33.350,9.686,baseline
1268.000,313.400,73.650,17.300,866.600,127.700,20.890,3.815,100.300,21.920,4.720,1.229,367.900,96.790,33.480,9.722,baseline
1280.000,315.500,74.390,17.530,873.400,128.200,20.950,3.809,102.300,21.940,4.749,1.234,369.400,96.910,33.530,9.785,baseline
1290.000,317.800,74.670,17.590,876.700,128.800,20.950,3.828,102.700,21.770,4.757,1.232,369.800,97.320,33.760,9.835,baseline
1301.000,320.400,74.970,17.810,877.000,129.600,21.150,3.831,100.700,22.030,4.761,1.239,371.200,97.740,33.890,9.899,baseline
1314.000,322.900,75.660,17.940,883.900,129.900,21.260,3.845,102.000,21.760,4.759,1.232,373.200,98.220,33.970,9.980,baseline
1328.000,327.800,76.360,18.090,885.900,130.400,21.290,3.854,101.500,22.000,4.774,1.240,374.200,98.620,34.050,9.944,baseline
1309.000,319.000,74.120,17.400,869.500,127.500,20.980,3.785,101.700,21.950,4.750,1.236,369.400,96.860,33.520,9.748,baseline
1272.000,314.200,73.640,17.340,867.100,127.300,20.990,3.774,101.600,21.860,4.772,1.226,369.400,96.740,33.530,9.742,baseline
1263.000,312.200,73.260,17.350,866.300,127.000,20.890,3.784,99.890,21.920,4.751,1.231,368.000,96.750,33.250,9.725,baseline
1268.000,312.800,73.450,17.250,865.900,127.400,20.810,3.783,101.400,22.050,4.757,1.233,368.100,96.730,33.410,9.727,baseline
1266.000,311.900,73.340,17.350,868.500,127.700,20.860,3.794,102.300,21.810,4.771,1.231,368.300,96.780,33.500,9.758,baseline
1274.000,314.500,73.870,17.490,869.200,128.500,21.080,3.796,102.500,21.960,4.733,1.241,370.300,97.060,33.590,9.796,baseline
1285.000,317.800,74.480,17.670,870.400,128.500,21.040,3.853,101.900,21.960,4.754,1.236,370.100,97.730,33.890,9.865,baseline
1297.000,319.900,75.080,17.730,876.900,129.300,21.230,3.851,101.200,21.660,4.775,1.233,371.400,97.930,33.950,9.886,baseline
1308.000,321.200,75.610,17.870,877.300,130.000,21.110,3.841,100.800,22.000,4.735,1.237,372.100,98.080,34.020,9.942,baseline
1321.000,325.800,75.960,18.040,885.000,130.300,21.270,3.864,102.500,21.900,4.772,1.235,374.800,98.580,34.250,10.000,baseline
1336.000,328.100,76.880,18.250,889.700,130.800,21.350,3.853,102.800,22.160,4.773,1.247,376.400,99.160,34.230,9.976,baseline
1319.000,321.700,74.670,17.590,872.900,128.000,21.050,3.806,100.500,21.970,4.739,1.242,371.200,97.510,33.640,9.758,baseline
1274.000,315.100,73.530,17.370,868.500,127.500,20.900,3.787,101.400,21.900,4.767,1.226,368.900,97.020,33.510,9.766,baseline
1273.000,313.700,73.650,17.420,869.300,128.300,20.860,3.839,101.500,21.920,4.734,1.238,369.000,97.290,33.620,9.835,easy
1283.000,316.700,74.340,17.590,871.700,128.400,21.080,3.833,101.100,21.930,4.767,1.237,371.000,97.300,33.890,9.848,easy
1295.000,319.500,75.180,17.720,873.700,129.200,21.090,3.837,102.500,21.840,4.776,1.234,371.400,97.930,33.960,9.908,easy
1306.000,320.500,75.760,17.920,878.600,129.700,21.250,3.869,102.400,22.070,4.754,1.240,373.500,98.230,33.990,9.958,easy
1319.000,325.400,76.110,18.020,881.600,130.400,21.270,3.849,102.400,21.870,4.776,1.240,374.300,98.620,34.360,10.020,easy
1334.000,328.300,77.130,18.220,889.000,130.600,21.500,3.877,103.700,22.040,4.784,1.250,376.500,99.390,34.410,10.050,easy
1349.000,331.200,76.980,18.160,886.700,128.900,21.060,3.840,102.900,22.090,4.735,1.247,374.700,98.300,33.970,9.899,easy
1287.000,317.500,74.300,17.490,869.600,127.900,20.900,3.777,100.900,22.000,4.704,1.226,369.900,97.210,33.740,9.773,easy
1272.000,313.800,73.630,17.360,868.000,127.600,20.880,3.779,102.200,21.840,4.744,1.230,368.500,96.880,33.550,9.756,easy
1265.000,313.100,73.550,17.370,869.500,127.700,20.950,3.789,100.600,21.980,4.723,1.231,368.600,97.320,33.560,9.781,easy
1268.000,311.500,73.370,17.310,869.800,127.700,20.920,3.805,101.400,21.800,4.731,1.230,369.200,96.700,33.580,9.783,easy
1271.000,313.200,73.920,17.400,870.000,127.800,20.960,3.788,102.300,22.000,4.751,1.226,369.200,97.180,33.650,9.802,easy
1280.000,316.100,74.230,17.550,873.900,128.100,21.090,3.819,100.100,21.870,4.736,1.235,370.000,97.420,33.880,9.844,easy
1291.000,318.200,74.700,17.610,874.100,128.800,21.120,3.827,102.500,21.800,4.755,1.231,371.200,97.680,33.860,9.885,easy
1303.000,320.400,75.100,17.840,876.900,129.700,21.160,3.825,101.500,22.220,4.739,1.237,372.300,98.070,34.020,9.936,easy
1316.000,322.400,75.840,18.000,881.900,129.600,21.380,3.854,102.800,21.860,4.765,1.242,374.200,98.340,34.240,9.998,easy
1331.000,326.100,76.580,18.140,885.600,131.100,21.460,3.865,102.600,21.760,4.774,1.238,375.300,98.910,34.320,10.060,easy
1345.000,329.400,77.580,18.290,892.000,131.100,21.460,3.898,101.500,22.300,4.748,1.241,377.200,99.500,34.460,10.130,easy
1362.000,333.100,77.590,18.320,890.700,130.200,21.270,3.812,102.600,22.190,4.796,1.238,376.000,98.560,34.100,9.926,easy
1297.000,316.800,74.180,17.590,868.800,128.400,21.090,3.817,101.900,21.900,4.757,1.219,372.000,97.370,33.800,9.851,easy
1281.000,315.200,74.020,17.410,868.400,128.000,20.890,3.793,101.400,21.890,4.700,1.235,370.400,97.460,33.730,9.824,easy
1274.000,313.600,73.960,17.460,871.700,128.200,20.980,3.793,102.300,21.780,4.721,1.225,370.700,97.380,33.730,9.834,easy
1276.000,314.900,73.930,17.460,869.100,128.200,20.890,3.811,103.100,21.730,4.754,1.229,369.700,97.350,33.700,9.815,easy
1279.000,315.200,74.150,17.540,873.300,128.000,21.040,3.806,99.820,21.910,4.743,1.232,369.500,97.500,33.640,9.881,easy
1288.000,317.400,74.460,17.670,876.300,128.800,20.990,3.831,101.000,21.870,4.734,1.231,371.300,97.680,33.890,9.885,easy
1298.000,319.900,75.350,17.750,879.700,129.100,21.130,3.839,102.300,21.810,4.754,1.239,373.100,98.140,33.890,9.950,easy
1309.000,322.200,75.440,17.780,883.300,129.500,21.270,3.833,101.500,21.910,4.739,1.232,374.000,98.360,34.080,9.952,easy
1320.000,322.900,75.990,17.980,881.100,130.400,21.300,3.845,101.800,21.900,4.794,1.237,375.500,98.700,34.290,10.020,easy
1332.000,326.600,76.490,18.150,883.600,130.500,21.410,3.876,101.600,21.950,4.759,1.239,376.300,98.970,34.390,10.110,easy
1349.000,330.400,77.610,18.180,890.100,130.400,21.180,3.831,100.800,21.890,4.790,1.237,376.700,98.910,34.120,9.973,easy
1301.000,317.700,74.290,17.570,872.800,128.500,21.010,3.798,102.200,21.530,4.751,1.234,372.000,97.560,33.730,9.831,easy
1283.000,316.000,74.000,17.460,868.500,127.900,20.850,3.799,101.400,21.880,4.723,1.226,369.800,97.620,33.740,9.814,easy
1278.000,315.200,74.300,17.420,870.700,128.000,20.980,3.790,100.800,21.960,4.726,1.230,370.100,97.810,33.750,9.854,easy
1282.000,315.800,73.940,17.520,872.600,128.200,20.810,3.790,102.200,21.680,4.734,1.235,369.500,97.400,33.620,9.823,easy
1283.000,315.200,73.910,17.530,872.100,128.000,20.950,3.794,101.200,21.910,4.754,1.227,370.000,97.450,33.730,9.891,easy
1293.000,316.700,74.940,17.710,874.800,128.600,21.100,3.819,100.100,21.810,4.740,1.232,370.700,97.680,33.920,9.902,easy
1305.000,321.100,75.480,17.820,878.800,129.300,21.210,3.842,102.400,21.910,4.742,1.233,372.600,98.030,33.910,9.963,easy
1316.000,324.400,75.840,17.960,878.800,129.300,21.270,3.843,101.900,21.890,4.735,1.244,372.900,98.380,34.050,9.948,easy
1328.000,325.900,76.250,18.090,885.700,130.200,21.390,3.859,103.600,22.050,4.768,1.237,374.500,98.670,34.240,10.040,easy
1339.000,328.800,76.910,18.220,886.700,130.600,21.450,3.861,102.100,21.960,4.787,1.238,376.100,98.940,34.440,10.090,easy
1355.000,331.400,77.770,18.400,892.200,130.900,21.560,3.888,101.100,22.240,4.767,1.238,377.600,99.520,34.480,10.070,easy
1346.000,326.200,75.550,17.780,873.300,129.100,21.090,3.824,103.100,22.170,4.773,1.236,371.900,97.820,33.750,9.848,easy
1287.000,317.300,73.920,17.450,868.700,128.100,20.930,3.798,101.500,21.840,4.728,1.227,370.500,97.380,33.510,9.813,easy
1273.000,314.000,72.950,17.340,867.400,127.700,20.920,3.781,99.940,21.950,4.710,1.227,369.100,96.820,33.530,9.767,easy
1272.000,311.800,73.690,17.250,868.100,127.600,20.780,3.786,101.700,21.680,4.754,1.223,368.400,96.730,33.450,9.740,easy
1269.000,312.500,73.520,17.340,868.700,127.700,20.840,3.803,101.000,21.850,4.713,1.236,368.800,96.910,33.460,9.749,easy
1275.000,313.300,73.580,17.380,869.500,128.000,20.900,3.827,101.200,21.830,4.725,1.228,369.300,96.950,33.630,9.777,easy
1285.000,316.900,74.120,17.560,870.300,128.400,21.020,3.810,102.500,21.740,4.744,1.239,369.800,97.390,33.590,9.854,easy
1296.000,318.100,74.340,17.670,874.400,129.200,21.130,3.820,101.500,21.970,4.741,1.234,370.600,97.460,33.820,9.835,easy
1306.000,320.300,75.110,17.780,875.300,129.400,21.220,3.825,100.700,21.830,4.775,1.234,372.400,98.100,33.840,9.897,easy
1317.000,322.400,75.500,17.900,882.700,129.800,21.290,3.858,102.600,21.970,4.773,1.239,372.500,98.090,34.030,9.985,easy
1329.000,326.600,76.300,18.050,884.400,129.900,21.350,3.851,100.900,21.960,4.725,1.248,374.100,98.880,34.070,9.996,easy
1345.000,330.300,76.770,18.160,886.300,129.500,21.280,3.838,102.200,22.190,4.769,1.246,376.200,98.540,34.060,9.927,easy
1302.000,317.200,74.470,17.490,869.000,127.800,21.060,3.783,102.700,21.950,4.738,1.232,369.500,97.340,33.510,9.775,easy
1278.000,313.300,73.130,17.390,868.800,127.700,20.840,3.782,101.500,22.050,4.738,1.230,368.200,96.690,33.390,9.702,easy
1268.000,311.700,73.420,17.270,867.200,127.500,20.790,3.813,101.400,21.850,4.765,1.222,368.200,96.500,33.440,9.682,easy
1270.000,312.800,73.210,17.320,867.000,127.400,20.750,3.818,101.000,21.820,4.734,1.234,368.100,96.540,33.260,9.715,easy
1269.000,313.300,73.030,17.340,866.200,127.500,20.940,3.796,100.900,21.860,4.739,1.228,367.900,96.660,33.260,9.681,easy
1277.000,314.200,73.820,17.440,865.300,128.100,20.940,3.784,102.600,21.770,4.762,1.237,368.700,96.860,33.380,9.731,easy
1285.000,316.700,73.980,17.520,870.700,128.600,21.080,3.804,101.500,21.900,4.759,1.241,369.300,96.970,33.600,9.793,easy
1294.000,319.800,74.410,17.660,874.500,128.500,21.100,3.813,100.300,21.990,4.749,1.242,368.800,97.190,33.640,9.807,easy
1302.000,320.600,75.320,17.790,876.900,129.000,21.130,3.864,102.100,21.970,4.787,1.238,370.800,97.560,33.800,9.879,easy
1316.000,322.600,75.550,17.940,877.500,129.800,21.300,3.846,101.600,21.920,4.744,1.248,372.500,98.010,33.860,9.898,easy
1313.000,321.300,74.450,17.560,871.000,127.900,20.970,3.807,102.300,22.110,4.750,1.231,369.600,96.860,33.270,9.669,easy
1270.000,312.400,73.020,17.270,864.700,127.500,20.830,3.786,102.100,21.800,4.748,1.241,367.100,96.450,33.100,9.653,easy
1261.000,310.900,72.690,17.240,862.300,126.700,20.840,3.775,100.700,22.010,4.723,1.238,365.800,96.060,33.070,9.596,easy
1264.000,311.100,72.980,17.210,863.600,126.700,20.740,3.787,102.800,21.710,4.737,1.234,367.200,95.990,33.100,9.621,easy
1261.000,311.000,72.920,17.200,861.100,127.200,20.900,3.802,103.100,21.800,4.748,1.233,366.200,96.340,33.190,9.627,easy
1268.000,312.000,72.980,17.270,865.700,127.200,20.900,3.780,100.500,22.020,4.756,1.246,366.800,96.430,33.360,9.659,easy
1277.000,314.200,73.820,17.370,867.600,128.000,20.940,3.808,101.100,21.890,4.743,1.238,367.100,96.720,33.270,9.714,easy
1285.000,316.200,74.160,17.440,868.300,128.400,21.120,3.837,101.700,21.810,4.744,1.241,368.500,96.890,33.410,9.744,easy
1294.000,317.600,74.720,17.590,876.100,128.900,21.120,3.829,100.800,22.060,4.753,1.246,369.700,97.100,33.570,9.767,easy
1304.000,320.900,74.970,17.730,875.300,128.800,21.200,3.861,102.500,21.660,4.793,1.247,370.500,97.280,33.620,9.817,easy
1317.000,324.000,75.750,17.870,876.200,128.100,21.160,3.812,102.000,22.200,4.772,1.254,371.500,97.210,33.490,9.727,easy
1277.000,313.200,72.960,17.180,865.900,126.700,20.830,3.776,101.500,21.880,4.770,1.238,366.600,95.920,33.100,9.582,easy
1259.000,310.000,72.610,17.120,861.800,125.900,20.720,3.773,101.200,21.800,4.713,1.233,364.600,95.630,32.850,9.541,easy
1248.000,308.200,72.080,16.980,859.300,126.400,20.720,3.760,101.600,21.800,4.737,1.240,363.500,95.440,32.810,9.503,easy
1249.000,307.900,72.000,17.030,859.500,126.000,20.740,3.787,99.900,21.900,4.724,1.231,363.800,95.370,32.800,9.500,easy
1251.000,307.900,72.400,17.040,858.300,126.500,20.660,3.790,100.700,21.680,4.740,1.234,364.200,95.470,32.870,9.517,easy
1257.000,310.300,72.880,17.120,863.900,127.400,20.750,3.800,101.100,21.720,4.749,1.236,364.000,95.660,32.970,9.559,easy
1268.000,312.500,73.210,17.260,863.800,127.600,20.840,3.786,100.800,21.930,4.754,1.237,365.400,95.750,33.110,9.612,easy
1276.000,315.300,73.910,17.380,868.500,127.700,20.930,3.816,102.200,21.950,4.755,1.245,366.500,96.170,33.070,9.628,easy
1286.000,315.600,74.310,17.520,868.700,127.900,21.090,3.836,99.530,21.990,4.756,1.247,367.700,96.310,33.240,9.652,easy
1296.000,318.800,74.670,17.620,875.000,128.800,21.190,3.843,102.900,21.860,4.782,1.246,368.800,96.790,33.400,9.695,easy
1307.000,318.700,74.200,17.420,866.800,127.200,20.810,3.766,101.100,21.920,4.752,1.244,367.000,95.870,32.910,9.548,easy
1257.000,310.300,72.430,17.060,859.000,125.900,20.810,3.783,99.970,22.000,4.759,1.228,363.600,95.280,32.630,9.462,easy
1247.000,308.200,71.940,16.930,856.300,125.900,20.760,3.757,101.300,21.930,4.754,1.225,362.200,94.740,32.550,9.426,easy
1246.000,308.300,72.100,16.950,858.100,126.600,20.750,3.777,102.000,21.830,4.754,1.236,361.800,95.000,32.580,9.445,easy
1245.000,307.300,71.830,16.920,856.600,125.800,20.730,3.774,100.700,21.900,4.727,1.242,362.000,94.930,32.570,9.437,easy
1251.000,309.100,72.160,16.990,858.200,126.700,20.770,3.793,101.200,21.720,4.768,1.234,362.900,95.040,32.530,9.425,easy
1259.000,309.100,72.760,17.100,863.500,126.900,20.750,3.792,100.800,21.940,4.733,1.232,364.500,95.170,32.680,9.450,easy
1268.000,313.200,72.970,17.230,864.200,127.000,20.940,3.794,100.100,21.890,4.745,1.237,365.500,95.490,32.830,9.492,easy
1277.000,314.000,73.720,17.320,869.600,128.000,20.960,3.825,102.200,21.670,4.758,1.243,365.500,95.610,32.950,9.557,easy
1287.000,317.600,73.920,17.520,870.300,128.000,21.110,3.806,100.100,21.820,4.769,1.241,367.600,96.250,33.150,9.645,easy
1299.000,321.100,74.590,17.630,875.100,128.600,21.090,3.818,101.100,21.980,4.798,1.247,369.100,96.360,33.190,9.565,easy
1273.000,311.700,72.560,17.020,857.900,126.900,20.760,3.764,100.700,21.560,4.765,1.233,363.500,94.880,32.600,9.433,easy
1249.000,307.500,71.630,16.920,856.700,125.700,20.840,3.759,100.500,21.870,4.709,1.237,362.000,94.260,32.390,9.360,easy
1237.000,306.000,71.290,16.790,852.600,125.300,20.610,3.740,99.870,21.550,4.739,1.236,361.100,94.460,32.420,9.337,easy
1239.000,305.900,71.390,16.800,856.300,126.000,20.720,3.741,101.800,21.580,4.733,1.240,360.700,94.550,32.370,9.337,easy
1240.000,305.800,71.670,16.860,853.700,126.200,20.640,3.780,100.400,21.850,4.717,1.246,361.400,94.410,32.450,9.387,easy
1246.000,307.300,72.020,16.950,858.100,125.800,20.810,3.761,101.600,21.610,4.743,1.229,362.000,94.620,32.520,9.407,easy
1256.000,308.700,72.380,17.020,861.300,127.200,20.800,3.810,101.400,21.820,4.745,1.244,361.800,94.940,32.590,9.445,easy
1265.000,311.800,72.900,17.140,864.100,127.500,20.870,3.812,100.400,21.930,4.747,1.240,363.300,95.200,32.690,9.473,easy
1276.000,314.200,73.680,17.290,868.200,127.600,20.900,3.832,102.500,21.720,4.778,1.251,364.000,95.390,32.840,9.523,easy
1287.000,315.600,74.360,17.420,869.300,128.300,21.080,3.795,100.800,22.000,4.770,1.248,366.200,96.000,33.020,9.593,easy
1301.000,319.500,74.800,17.640,873.700,128.800,20.990,3.827,100.700,21.970,4.795,1.247,367.600,96.280,33.070,9.577,easy
1289.000,315.100,73.150,17.100,861.100,126.800,20.780,3.764,102.100,21.910,4.791,1.246,362.800,94.780,32.560,9.391,easy
1251.000,308.900,72.010,16.920,854.100,125.900,20.770,3.747,100.600,21.810,4.751,1.242,361.100,94.270,32.400,9.336,easy
1240.000,306.500,71.700,16.770,853.700,125.900,20.750,3.759,100.500,21.890,4.776,1.237,360.300,94.280,32.300,9.294,easy
1241.000,304.900,71.350,16.860,854.000,125.400,20.680,3.760,101.000,21.780,4.751,1.233,360.700,94.150,32.280,9.296,easy
1241.000,306.900,71.610,16.880,857.600,126.300,20.670,3.753,100.700,21.760,4.743,1.248,360.500,94.240,32.450,9.322,easy
1248.000,307.200,71.930,16.960,857.500,126.200,20.760,3.795,101.200,21.810,4.698,1.251,361.800,94.660,32.500,9.375,easy
1258.000,309.800,72.690,17.090,859.800,126.900,20.840,3.787,100.300,22.000,4.753,1.249,362.900,94.920,32.550,9.451,easy
1268.000,311.700,72.990,17.230,862.500,127.500,20.870,3.788,100.200,21.850,4.742,1.257,363.700,95.070,32.640,9.474,easy
1277.000,314.400,73.510,17.310,868.000,127.600,21.020,3.794,101.700,21.820,4.785,1.247,364.600,95.290,32.830,9.485,easy
1288.000,315.200,74.300,17.400,870.800,128.100,21.140,3.828,100.600,21.710,4.764,1.251,365.700,95.800,32.840,9.597,easy
1302.000,319.400,74.600,17.590,875.700,128.800,21.090,3.811,100.900,21.860,4.806,1.248,367.300,95.950,33.010,9.514,easy
1282.000,313.400,72.740,17.070,859.500,126.200,20.780,3.775,101.200,21.880,4.764,1.239,362.400,94.710,32.540,9.363,easy
1252.000,309.800,71.940,16.950,858.400,126.500,20.570,3.764,101.000,21.660,4.762,1.237,361.600,94.420,32.370,9.346,easy
1244.000,307.600,71.450,16.900,858.000,126.300,20.740,3.763,99.970,21.760,4.735,1.234,362.000,94.470,32.390,9.294,easy
1249.000,308.200,71.860,16.910,857.700,126.000,20.640,3.751,101.200,21.960,4.790,1.243,362.300,94.210,32.420,9.352,easy
1249.000,309.400,72.320,16.940,860.400,126.700,20.750,3.790,100.500,21.780,4.741,1.250,362.300,94.730,32.450,9.377,easy
1258.000,310.200,72.590,17.090,865.000,126.900,20.780,3.801,101.100,21.930,4.764,1.236,363.400,94.810,32.670,9.386,easy
1270.000,313.300,73.370,17.220,866.400,127.200,20.790,3.825,101.800,21.770,4.765,1.240,364.300,95.280,32.660,9.493,easy
1280.000,315.400,74.190,17.350,869.000,128.100,20.980,3.841,100.800,21.910,4.772,1.247,365.000,95.460,32.780,9.511,easy
1291.000,317.200,74.760,17.460,872.100,128.600,20.970,3.825,100.700,21.920,4.816,1.251,367.500,95.650,32.880,9.534,easy
1303.000,320.500,75.230,17.640,876.300,128.800,21.170,3.860,102.100,21.870,4.780,1.258,368.200,96.280,33.030,9.637,easy
1318.000,321.500,75.110,17.620,874.300,128.600,20.780,3.769,100.900,21.880,4.776,1.248,366.900,95.570,32.720,9.446,easy
1264.000,310.100,72.740,17.020,858.000,126.500,20.840,3.772,100.700,21.770,4.748,1.244,362.500,94.660,32.500,9.336,easy
1249.000,308.300,72.210,16.950,858.200,126.400,20.860,3.734,101.500,21.850,4.729,1.240,361.000,94.360,32.290,9.331,easy
1245.000,308.300,71.990,16.910,859.600,126.200,20.840,3.763,100.100,22.030,4.751,1.239,362.200,94.680,32.430,9.321,easy
1269.000,320.300,76.380,18.410,868.600,131.700,21.820,3.909,100.900,21.740,4.753,1.238,361.100,93.780,32.170,9.131,easy
1352.000,349.300,86.840,20.310,890.000,148.800,24.930,4.382,102.000,21.790,4.736,1.226,361.200,93.500,31.970,9.146,easy
1455.000,409.500,97.050,22.070,936.800,156.900,25.060,4.379,101.300,21.820,4.735,1.231,363.000,93.950,32.120,9.214,easy
1472.000,395.700,92.620,20.880,938.400,153.100,24.650,4.320,104.400,21.910,4.757,1.236,368.200,95.480,32.510,9.274,easy
1452.000,387.700,91.420,20.650,937.900,153.200,24.550,4.280,103.900,22.360,4.845,1.258,372.000,96.180,32.830,9.393,easy
1452.000,385.100,91.340,20.750,934.700,151.400,24.560,4.326,104.300,22.420,4.868,1.262,372.300,96.850,33.180,9.536,easy
1458.000,383.700,91.360,20.860,938.700,150.500,24.560,4.308,103.900,22.390,4.903,1.267,373.900,97.270,33.260,9.626,easy
1472.000,384.300,91.910,20.930,937.800,149.600,24.200,4.291,103.500,22.450,4.836,1.271,374.000,97.470,33.180,9.529,easy
1431.000,369.900,87.700,20.070,918.400,145.900,23.890,4.183,102.600,22.170,4.825,1.254,367.400,95.460,32.690,9.373,easy
1382.000,361.100,85.930,19.750,910.900,144.700,23.720,4.139,102.800,21.910,4.823,1.251,365.400,94.900,32.470,9.335,easy
1365.000,357.900,85.420,19.620,905.600,143.700,23.710,4.160,102.000,22.210,4.813,1.253,364.300,95.230,32.560,9.367,easy
1368.000,356.500,85.170,19.640,904.900,143.800,23.540,4.155,102.300,21.890,4.812,1.252,364.700,94.870,32.430,9.333,easy
1368.000,356.200,85.100,19.640,909.500,142.900,23.630,4.164,102.100,22.070,4.778,1.252,365.300,95.310,32.550,9.381,easy
1376.000,357.100,85.810,19.790,909.800,143.800,23.630,4.169,101.600,22.130,4.795,1.255,366.100,95.520,32.660,9.425,easy
1389.000,360.200,86.260,19.920,911.700,143.600,23.500,4.197,102.500,22.030,4.810,1.249,367.600,95.720,32.850,9.468,easy
1402.000,362.100,86.710,20.110,918.200,144.200,23.570,4.184,101.500,22.400,4.827,1.263,367.700,96.060,33.000,9.522,easy
1415.000,365.300,87.380,20.320,918.000,144.600,23.630,4.200,102.100,22.160,4.827,1.257,369.800,96.380,33.150,9.585,easy
1429.000,367.100,88.480,20.460,923.400,145.100,23.770,4.210,103.300,22.060,4.843,1.268,371.900,96.930,33.220,9.607,easy
1440.000,369.200,87.610,20.150,921.000,143.200,23.270,4.150,102.900,22.250,4.814,1.258,368.600,95.740,32.760,9.438,easy
1376.000,354.100,84.960,19.640,908.900,142.400,23.170,4.123,99.980,22.070,4.796,1.247,366.500,95.300,32.630,9.379,easy
1365.000,352.100,83.940,19.550,902.500,141.400,23.120,4.103,103.300,21.920,4.831,1.254,366.000,95.130,32.550,9.391,easy
1366.000,351.600,84.190,19.610,906.200,141.700,23.080,4.096,101.400,22.380,4.794,1.252,366.400,95.380,32.620,9.394,easy
1365.000,352.300,84.140,19.570,905.000,141.500,23.050,4.130,101.800,22.070,4.831,1.253,365.900,95.370,32.660,9.432,easy
1372.000,354.300,84.690,19.710,908.200,141.600,23.080,4.155,103.700,22.050,4.817,1.260,367.300,95.510,32.720,9.448,easy
1386.000,357.300,85.060,19.860,910.800,142.900,23.200,4.143,101.300,22.080,4.812,1.260,368.200,96.220,32.890,9.485,easy
1400.000,360.500,85.830,20.120,917.600,142.900,23.290,4.142,103.000,22.130,4.816,1.258,369.900,96.070,32.980,9.500,easy
1412.000,362.200,86.550,20.190,915.800,143.200,23.230,4.172,102.600,22.090,4.783,1.257,370.900,96.410,32.990,9.559,easy
1424.000,363.700,87.020,20.260,920.000,143.700,23.240,4.171,101.800,22.260,4.831,1.262,373.200,96.920,33.300,9.639,easy
1439.000,368.300,87.400,20.450,924.800,144.200,23.270,4.159,104.800,22.130,4.874,1.276,374.400,97.150,33.270,9.555,easy
1417.000,357.400,84.760,19.660,907.100,141.000,22.870,4.076,103.500,22.050,4.828,1.258,367.100,95.730,32.730,9.418,easy
1366.000,349.400,82.970,19.450,901.600,140.100,22.700,4.062,102.500,22.040,4.797,1.252,365.900,95.310,32.590,9.399,easy
1351.000,345.600,82.080,19.300,899.500,140.200,22.720,4.070,102.600,21.800,4.793,1.253,364.600,94.940,32.540,9.376,easy
1353.000,346.800,82.180,19.310,900.600,139.500,22.800,4.063,99.770,22.050,4.763,1.250,365.500,94.990,32.550,9.365,easy
1352.000,346.600,82.110,19.340,898.000,139.900,22.680,4.063,101.000,22.250,4.796,1.247,365.700,95.180,32.560,9.396,easy
1360.000,348.200,82.690,19.430,906.900,139.800,22.780,4.088,102.400,21.830,4.813,1.253,366.100,95.410,32.680,9.419,easy
1373.000,351.800,83.660,19.590,909.500,140.300,22.840,4.076,101.300,21.990,4.780,1.261,367.200,95.720,32.870,9.513,easy
1385.000,354.500,83.940,19.780,913.100,141.300,22.830,4.092,101.200,22.320,4.828,1.250,369.600,96.160,33.030,9.512,easy
1397.000,355.400,84.720,19.820,915.400,141.700,22.900,4.122,101.800,22.030,4.822,1.269,369.600,96.570,32.970,9.610,easy
1410.000,358.100,85.540,20.050,919.300,142.000,23.140,4.111,102.400,22.200,4.820,1.265,371.500,97.010,33.290,9.661,easy
1428.000,363.600,86.090,20.170,921.700,141.900,22.930,4.115,103.200,22.260,4.872,1.261,372.700,97.020,33.150,9.599,easy
1387.000,350.300,83.250,19.420,899.300,140.500,22.660,4.045,102.600,22.200,4.817,1.260,366.500,95.410,32.520,9.434,easy
1357.000,346.100,82.570,19.260,896.100,138.900,22.420,4.014,101.300,22.100,4.790,1.260,366.200,95.200,32.680,9.378,easy
1346.000,343.200,81.810,19.110,895.000,139.100,22.480,4.010,102.300,21.950,4.817,1.251,364.800,95.280,32.560,9.408,easy
1348.000,344.100,81.640,19.190,896.900,138.600,22.520,4.036,101.900,21.970,4.830,1.251,364.300,95.230,32.500,9.399,easy
1347.000,343.200,81.580,19.200,896.400,138.800,22.530,4.039,101.200,21.990,4.797,1.252,365.300,95.250,32.550,9.415,easy
1355.000,346.100,81.760,19.300,900.100,139.400,22.670,4.042,103.200,22.090,4.818,1.260,365.900,95.460,32.790,9.446,easy
1366.000,348.200,82.580,19.490,903.300,140.000,22.700,4.042,101.800,22.050,4.836,1.261,367.600,95.820,32.830,9.507,easy
1377.000,350.400,83.070,19.620,908.600,139.900,22.770,4.083,101.400,22.140,4.819,1.263,367.500,96.060,33.090,9.518,easy
1389.000,352.900,83.520,19.740,911.000,140.500,22.800,4.077,101.800,21.860,4.857,1.254,369.600,96.510,33.160,9.600,easy
1401.000,355.500,84.350,19.790,918.100,141.300,22.850,4.104,102.600,22.170,4.820,1.262,370.800,97.000,33.320,9.681,easy
1417.000,358.200,84.730,19.800,911.500,140.300,22.570,4.029,102.500,22.150,4.851,1.260,371.000,96.040,32.900,9.476,easy
1359.000,343.200,81.800,19.180,896.600,138.800,22.410,4.024,103.200,22.120,4.806,1.255,366.600,95.360,32.600,9.456,easy
1345.000,342.100,81.060,19.060,893.600,137.800,22.250,4.004,101.100,21.850,4.791,1.253,365.200,94.980,32.530,9.404,easy
1339.000,340.000,81.280,19.110,896.300,138.400,22.380,3.993,101.800,22.070,4.808,1.259,366.100,95.280,32.510,9.396,easy
1340.000,341.200,80.580,19.090,897.400,138.600,22.350,3.993,103.000,22.050,4.789,1.251,365.600,95.230,32.560,9.429,easy
1344.000,342.800,80.850,19.140,895.000,138.300,22.500,4.008,101.500,22.240,4.800,1.255,366.100,95.140,32.610,9.450,easy
1355.000,346.200,81.730,19.270,900.900,138.700,22.510,4.028,103.600,21.830,4.802,1.258,367.000,95.540,32.850,9.502,easy
1367.000,347.300,82.120,19.430,906.700,139.000,22.550,4.046,102.800,22.190,4.829,1.261,368.000,95.830,33.000,9.536,easy
1378.000,350.100,82.830,19.550,909.100,139.500,22.600,4.065,102.000,22.020,4.830,1.261,369.400,96.330,33.010,9.592,easy
1390.000,351.700,83.440,19.670,908.500,140.000,22.640,4.088,102.900,22.060,4.816,1.263,370.500,96.590,33.300,9.631,easy
1403.000,354.200,83.850,19.840,915.300,140.500,22.840,4.109,102.800,22.130,4.835,1.271,371.800,97.200,33.430,9.725,easy
1418.000,357.700,84.700,19.790,916.400,140.100,22.580,4.039,102.200,22.190,4.829,1.272,371.200,96.290,33.030,9.538,easy
1359.000,342.600,81.200,19.130,895.800,138.400,22.400,3.983,102.900,22.040,4.802,1.257,366.500,95.320,32.690,9.447,easy
1340.000,339.700,80.430,18.950,893.200,137.300,22.180,3.991,101.400,22.030,4.819,1.251,364.100,94.880,32.570,9.427,easy
1330.000,337.800,79.860,18.920,894.500,137.100,22.220,3.982,100.900,21.960,4.778,1.254,364.300,95.080,32.630,9.384,easy
1334.000,338.200,79.880,18.970,894.100,137.400,22.260,3.970,101.600,22.010,4.797,1.249,364.000,94.920,32.550,9.411,easy
1336.000,338.500,80.350,18.970,893.300,137.700,22.360,4.009,100.200,21.910,4.772,1.260,364.700,95.350,32.580,9.440,easy
1345.000,340.000,80.930,19.110,896.600,138.200,22.470,4.011,101.500,21.930,4.790,1.252,365.800,95.450,32.720,9.484,easy
1358.000,342.900,81.350,19.260,899.800,138.200,22.520,4.035,102.400,21.920,4.825,1.257,366.800,95.420,32.930,9.524,easy
1369.000,345.900,81.830,19.390,904.800,139.000,22.570,4.044,101.400,22.030,4.783,1.261,368.100,95.960,33.010,9.589,easy
1381.000,347.800,82.510,19.520,912.000,139.400,22.680,4.069,101.600,22.120,4.826,1.264,369.000,96.310,33.150,9.653,easy
1394.000,351.600,83.100,19.730,912.000,139.900,22.650,4.073,102.900,21.870,4.797,1.263,369.900,96.770,33.400,9.724,easy
1410.000,355.300,84.370,19.870,914.300,139.700,22.630,4.059,101.500,22.240,4.794,1.264,372.800,97.010,33.260,9.639,easy
1381.000,343.900,81.160,19.110,897.600,138.100,22.200,4.028,102.700,21.800,4.808,1.243,366.400,95.560,32.630,9.499,easy
1346.000,339.200,80.120,18.990,892.200,137.100,22.250,3.979,101.100,22.010,4.778,1.256,364.600,95.360,32.610,9.465,easy
1334.000,335.800,80.130,18.830,890.600,136.600,22.140,3.978,101.700,22.090,4.785,1.251,364.900,95.060,32.660,9.451,easy
1338.000,337.800,79.890,18.850,892.400,136.700,22.330,3.968,101.200,21.890,4.827,1.251,363.800,95.040,32.620,9.430,easy
1336.000,337.100,80.190,18.900,894.700,136.400,22.220,3.974,101.400,21.780,4.771,1.254,364.300,95.020,32.700,9.500,easy
1345.000,340.600,80.410,19.060,899.400,137.700,22.320,4.001,100.500,21.990,4.778,1.252,366.100,95.240,32.900,9.523,easy
1356.000,342.600,80.910,19.140,900.900,137.800,22.520,4.022,101.500,21.950,4.783,1.255,366.600,95.850,32.920,9.571,easy
1367.000,344.600,81.520,19.280,905.400,137.900,22.430,4.028,100.400,22.010,4.764,1.251,367.300,96.000,32.970,9.589,easy
1377.000,348.400,82.320,19.350,908.900,138.700,22.460,4.047,101.800,22.070,4.775,1.252,369.000,96.230,33.150,9.654,easy
1392.000,350.300,83.140,19.530,908.600,138.900,22.550,4.021,101.700,22.270,4.846,1.254,369.700,96.460,33.060,9.612,easy
1360.000,341.500,80.530,18.870,894.900,136.600,22.110,4.003,100.700,21.930,4.789,1.251,365.400,95.420,32.630,9.448,easy
1334.000,336.000,79.620,18.770,890.100,136.300,22.020,3.957,100.600,21.720,4.795,1.236,363.700,94.900,32.550,9.441,easy
1325.000,336.000,79.390,18.750,888.100,136.500,22.070,3.968,101.500,21.850,4.763,1.244,363.000,94.840,32.500,9.421,easy
1328.000,335.500,79.170,18.710,886.300,136.100,22.150,3.976,99.810,21.990,4.750,1.241,363.300,94.670,32.450,9.386,easy
1328.000,334.500,79.280,18.740,893.100,136.000,22.180,3.970,101.700,21.960,4.810,1.250,363.400,94.820,32.540,9.455,easy
1336.000,337.900,79.820,18.860,895.700,137.300,22.270,3.970,101.900,21.900,4.793,1.249,364.900,95.060,32.630,9.503,easy
1348.000,340.200,80.250,18.990,898.500,137.200,22.430,4.000,100.800,21.860,4.801,1.249,365.500,95.410,32.790,9.573,easy
1359.000,341.700,80.810,19.150,900.200,137.400,22.330,3.990,102.200,21.970,4.802,1.248,366.700,95.730,33.050,9.578,easy
1369.000,344.200,81.100,19.240,904.600,138.000,22.460,4.046,99.790,21.930,4.807,1.259,368.100,95.890,33.070,9.622,easy
1381.000,347.300,82.070,19.390,905.900,138.400,22.470,4.044,101.800,22.120,4.796,1.253,368.700,96.470,33.260,9.690,easy
1396.000,351.300,82.810,19.530,906.700,138.700,22.380,4.023,101.600,21.990,4.834,1.257,370.600,96.430,33.100,9.594,easy
1356.000,339.200,79.930,18.830,894.000,136.900,22.090,3.953,100.800,21.770,4.742,1.249,364.700,95.150,32.650,9.478,easy
1327.000,334.300,78.780,18.570,891.100,135.500,22.000,3.957,101.900,21.870,4.739,1.244,363.000,94.480,32.450,9.419,easy
1313.000,330.100,78.220,18.440,885.800,135.600,21.930,3.936,101.600,21.820,4.752,1.242,362.800,94.640,32.460,9.402,easy
1314.000,331.200,78.220,18.500,884.100,135.500,22.080,3.923,100.600,21.980,4.773,1.241,362.800,94.380,32.550,9.412,easy
1314.000,331.500,78.550,18.510,887.500,135.300,22.150,3.935,101.200,21.800,4.787,1.251,361.900,94.630,32.500,9.416,easy
1321.000,333.200,78.470,18.640,889.400,135.900,22.130,3.955,101.900,21.820,4.755,1.247,363.500,95.020,32.620,9.463,easy
1332.000,335.700,79.390,18.790,891.600,136.100,22.230,3.985,100.900,21.850,4.748,1.248,364.500,95.080,32.720,9.534,easy
1343.000,337.000,79.590,18.840,894.700,136.600,22.180,3.972,100.700,21.830,4.781,1.249,364.900,95.040,32.950,9.544,easy
1352.000,341.100,80.450,19.000,896.900,136.900,22.230,3.993,101.900,22.000,4.779,1.247,365.800,95.800,32.960,9.591,easy
1364.000,342.300,81.220,19.150,900.600,137.400,22.390,3.995,99.610,21.930,4.804,1.255,368.000,96.170,33.240,9.671,easy
1379.000,347.100,81.880,19.210,909.000,137.800,22.220,4.004,103.500,22.060,4.815,1.259,369.000,96.210,33.060,9.598,easy
1346.000,337.800,79.230,18.650,891.700,135.200,21.990,3.940,99.660,21.940,4.765,1.246,362.900,94.940,32.580,9.451,easy
1319.000,330.700,78.620,18.430,885.400,134.800,21.910,3.942,100.600,21.710,4.782,1.245,362.000,94.550,32.460,9.399,easy
1308.000,330.600,78.100,18.360,880.500,134.900,21.850,3.933,101.600,21.920,4.726,1.246,361.500,94.410,32.470,9.427,easy
1310.000,329.000,77.710,18.440,883.600,134.900,21.900,3.918,100.000,21.860,4.765,1.243,361.500,94.510,32.430,9.409,easy
1309.000,329.200,78.610,18.440,882.600,134.700,21.960,3.935,100.500,21.900,4.743,1.238,361.300,94.480,32.440,9.418,easy
1317.000,331.400,77.970,18.500,887.700,135.700,21.940,3.925,100.700,21.820,4.754,1.248,362.600,94.800,32.630,9.481,easy
1328.000,334.500,78.920,18.680,889.700,135.700,22.130,3.952,100.500,21.960,4.769,1.255,363.400,94.920,32.710,9.525,easy
1336.000,336.800,79.330,18.830,892.200,135.600,22.220,3.962,100.900,21.830,4.787,1.244,364.200,95.390,32.840,9.544,easy
1348.000,339.600,79.780,18.970,897.700,136.100,22.120,4.000,102.300,21.980,4.793,1.242,366.200,95.840,32.920,9.610,easy
1360.000,342.200,80.830,19.060,899.400,137.200,22.190,4.009,99.380,22.010,4.771,1.246,366.700,96.100,33.070,9.666,easy
1373.000,344.900,81.340,19.240,899.400,137.600,22.330,4.011,102.300,22.010,4.802,1.255,369.000,96.460,33.210,9.632,easy
1358.000,338.500,79.310,18.630,888.700,135.300,21.860,3.944,102.300,22.020,4.756,1.245,363.700,94.900,32.650,9.469,easy
1314.000,330.900,77.990,18.430,886.700,134.800,21.720,3.894,99.690,21.920,4.724,1.241,361.900,94.480,32.500,9.447,easy
1302.000,326.900,77.320,18.240,878.200,133.800,21.710,3.910,100.500,21.760,4.763,1.235,361.100,94.210,32.350,9.373,easy
1302.000,328.600,77.570,18.320,880.000,134.400,21.760,3.941,100.800,21.830,4.750,1.241,361.800,94.040,32.340,9.408,easy
1301.000,328.300,77.380,18.340,880.400,134.400,21.910,3.925,100.400,21.920,4.732,1.240,361.200,94.220,32.430,9.396,easy
1307.000,329.500,77.830,18.460,879.600,134.400,22.000,3.929,101.300,21.640,4.764,1.245,361.300,94.390,32.570,9.430,easy
1317.000,332.400,78.230,18.540,884.600,135.400,21.920,3.920,100.400,21.910,4.774,1.251,362.700,94.730,32.610,9.477,easy
1327.000,333.200,79.100,18.650,888.900,135.600,21.980,3.957,100.300,21.890,4.772,1.245,363.900,95.070,32.780,9.514,easy
1337.000,336.900,79.270,18.760,891.300,135.600,22.170,3.971,102.100,21.890,4.786,1.247,364.800,95.390,32.860,9.588,easy
1349.000,339.300,79.930,18.890,896.900,136.300,22.220,3.975,101.700,22.220,4.771,1.255,366.400,95.690,33.060,9.623,easy
1363.000,340.900,80.560,19.100,899.300,137.000,22.190,3.989,100.900,21.820,4.794,1.249,368.200,96.270,33.190,9.678,easy
1377.000,345.500,81.830,19.290,904.500,137.300,22.190,4.006,101.400,21.930,4.783,1.251,369.600,96.650,33.320,9.687,easy
1363.000,338.600,79.590,18.630,890.500,135.300,21.950,3.928,100.600,22.080,4.776,1.244,364.000,95.130,32.650,9.470,easy
1317.000,331.000,77.980,18.440,888.400,134.300,21.740,3.915,100.400,21.850,4.762,1.240,362.200,94.530,32.470,9.425,easy
1303.000,328.300,77.210,18.290,879.500,133.800,21.770,3.903,102.100,21.940,4.754,1.242,361.900,94.280,32.490,9.437,easy
1304.000,328.700,77.800,18.330,881.200,134.200,21.730,3.891,100.000,21.880,4.732,1.244,360.900,94.440,32.430,9.407,easy
1303.000,328.700,77.990,18.430,881.900,133.800,21.930,3.904,102.100,21.600,4.772,1.236,360.800,94.580,32.450,9.427,easy
1311.000,329.500,78.180,18.510,889.300,134.300,21.840,3.917,100.900,21.810,4.743,1.244,361.900,94.880,32.560,9.490,easy
1323.000,331.500,78.640,18.580,890.200,135.100,22.090,3.944,99.520,21.750,4.756,1.244,362.500,95.050,32.680,9.526,easy
1332.000,334.500,78.880,18.760,889.500,135.400,22.090,3.939,102.000,21.760,4.741,1.240,364.500,95.060,32.880,9.563,easy
1344.000,336.600,79.430,18.830,895.200,136.100,22.230,3.965,101.700,22.050,4.782,1.251,364.700,95.730,32.960,9.631,easy
1356.000,340.400,80.370,18.950,895.500,136.100,22.270,3.972,99.830,21.930,4.805,1.253,366.200,96.080,33.120,9.633,easy
1367.000,341.800,80.920,19.100,899.700,136.900,22.370,3.983,101.700,22.050,4.794,1.253,367.400,96.160,33.240,9.708,easy
1383.000,346.000,81.790,19.200,903.900,136.300,22.010,3.971,100.900,22.070,4.807,1.256,368.500,96.170,33.000,9.582,easy
1335.000,334.500,78.480,18.540,887.400,134.900,21.840,3.927,100.300,21.960,4.771,1.245,363.300,94.950,32.670,9.501,easy
1317.000,329.900,78.000,18.390,881.400,134.000,21.820,3.909,101.300,21.860,4.758,1.243,362.100,94.730,32.640,9.454,easy
1310.000,328.600,77.820,18.450,880.300,134.100,21.950,3.910,100.900,22.130,4.745,1.249,362.600,94.770,32.610,9.466,easy
1314.000,329.100,77.790,18.360,881.200,134.200,21.840,3.921,101.200,21.860,4.787,1.237,362.400,94.810,32.600,9.466,easy
1316.000,330.400,78.230,18.520,884.700,135.200,21.990,3.918,100.800,21.740,4.744,1.246,362.900,94.710,32.730,9.514,easy
1326.000,332.500,78.550,18.650,884.400,135.100,22.010,3.940,101.100,21.950,4.781,1.240,364.400,95.300,32.790,9.576,easy
1338.000,335.400,79.040,18.730,892.300,135.400,21.990,3.943,101.200,21.950,4.776,1.247,365.000,95.530,32.920,9.617,easy
1350.000,339.700,79.880,18.920,897.300,135.900,22.170,3.999,100.700,21.850,4.761,1.243,365.900,95.760,33.090,9.639,easy
1363.000,341.700,80.430,19.030,899.800,136.400,22.220,3.989,101.100,22.150,4.775,1.252,368.000,96.200,33.320,9.686,easy
1376.000,344.400,81.270,19.220,906.500,136.900,22.360,4.016,102.700,21.760,4.790,1.251,369.100,96.810,33.500,9.798,easy
1393.000,346.600,81.600,19.310,906.400,137.100,22.370,3.974,102.400,22.000,4.823,1.255,370.600,96.590,33.280,9.685,easy
1349.000,334.400,78.780,18.600,890.400,135.000,21.820,3.916,100.600,21.830,4.768,1.238,364.500,95.330,32.810,9.538,easy
1319.000,330.700,77.890,18.340,886.700,133.600,21.830,3.927,101.600,21.840,4.757,1.242,363.300,94.700,32.630,9.484,easy
1308.000,327.900,77.650,18.310,883.500,134.400,21.820,3.903,101.200,21.930,4.747,1.235,361.700,94.660,32.690,9.491,easy
1311.000,328.300,77.760,18.340,881.900,134.300,21.780,3.907,101.400,21.820,4.756,1.241,361.700,94.610,32.630,9.459,easy
1312.000,329.600,77.420,18.360,883.800,134.700,21.980,3.895,101.400,21.820,4.734,1.246,362.400,95.040,32.760,9.520,easy
1321.000,331.500,78.220,18.540,888.400,135.100,21.980,3.940,100.400,21.820,4.764,1.246,363.700,95.240,32.850,9.561,easy
1334.000,335.000,78.470,18.620,888.800,135.400,22.120,3.951,101.700,21.940,4.796,1.242,364.900,95.440,32.960,9.588,easy
1346.000,336.900,79.490,18.790,898.700,135.800,22.230,3.976,101.900,21.740,4.764,1.243,365.900,95.830,33.040,9.617,easy
1359.000,340.200,80.020,18.990,902.100,135.900,22.210,3.994,100.300,22.000,4.771,1.253,367.300,96.740,33.300,9.706,easy
1373.000,343.900,80.990,19.120,904.000,136.500,22.250,4.039,102.700,21.890,4.796,1.256,369.100,96.740,33.430,9.758,easy
1388.000,346.200,81.900,19.270,908.400,137.400,22.360,4.025,101.900,22.120,4.792,1.259,371.300,97.470,33.680,9.805,easy
1401.000,347.200,81.470,19.090,901.700,136.300,22.060,3.945,100.100,22.080,4.789,1.247,368.000,96.050,33.090,9.637,easy
1334.000,333.200,78.690,18.560,887.700,134.200,21.890,3.920,102.200,21.830,4.750,1.242,364.800,95.370,32.920,9.557,easy
1322.000,330.200,77.690,18.430,884.100,134.200,21.820,3.905,100.600,21.860,4.752,1.231,363.800,95.020,32.840,9.485,easy
1316.000,329.800,77.770,18.440,885.600,134.500,21.870,3.922,101.100,21.550,4.736,1.236,363.600,95.150,32.720,9.495,easy
1317.000,329.400,77.830,18.420,883.300,134.200,21.830,3.913,102.100,21.720,4.765,1.237,363.900,95.170,32.770,9.507,easy
1322.000,331.600,78.060,18.530,886.200,134.200,21.900,3.930,101.400,21.960,4.742,1.247,363.800,95.460,32.890,9.545,easy
1332.000,333.500,78.750,18.700,889.000,134.900,21.890,3.965,100.300,21.910,4.775,1.239,365.300,95.460,33.040,9.591,easy
1344.000,336.400,79.520,18.840,893.600,135.100,22.150,3.956,102.000,21.870,4.778,1.245,365.900,96.030,33.130,9.653,easy
1355.000,339.000,79.750,18.980,898.600,135.800,22.200,3.975,99.850,22.050,4.768,1.246,366.700,96.110,33.240,9.690,easy
1367.000,340.800,80.610,19.030,902.500,136.200,22.180,4.004,100.300,22.020,4.798,1.246,369.900,96.810,33.510,9.736,easy
1379.000,344.000,81.170,19.150,903.700,137.400,22.320,4.001,101.500,22.050,4.798,1.256,370.400,97.090,33.670,9.787,easy
1391.000,345.500,80.670,18.990,895.800,135.300,21.890,3.957,102.000,21.930,4.751,1.250,367.500,96.100,33.120,9.584,easy
1332.000,333.300,78.700,18.550,888.400,134.300,21.940,3.915,103.000,21.870,4.757,1.236,364.900,95.490,32.940,9.545,easy
1322.000,330.400,77.920,18.500,886.600,134.100,21.880,3.925,100.600,22.010,4.730,1.240,363.300,95.520,32.780,9.570,easy
1323.000,331.400,78.420,18.560,885.400,134.500,21.910,3.925,99.640,21.880,4.749,1.241,364.600,95.420,32.910,9.529,easy
1321.000,331.600,77.950,18.530,884.700,134.400,21.990,3.913,102.100,21.710,4.766,1.232,364.700,95.310,32.970,9.541,easy
1327.000,332.200,78.820,18.580,892.100,134.800,22.020,3.927,101.800,21.870,4.750,1.237,364.800,95.760,32.920,9.588,easy
1339.000,334.100,79.090,18.750,892.500,135.200,22.120,3.951,100.400,21.750,4.759,1.243,366.200,95.870,33.100,9.616,easy
1351.000,338.200,79.470,18.870,897.300,135.400,22.040,3.968,101.500,21.770,4.789,1.248,367.200,96.520,33.320,9.685,easy
1362.000,339.700,80.160,18.920,899.100,136.200,22.160,3.984,100.000,22.030,4.775,1.248,368.200,96.760,33.350,9.737,easy
1374.000,343.000,80.720,19.200,905.600,136.400,22.210,3.984,101.800,21.810,4.781,1.252,370.500,96.950,33.450,9.774,easy
1388.000,346.700,81.890,19.320,906.600,137.000,22.420,4.010,102.900,22.000,4.800,1.261,371.500,97.550,33.640,9.870,easy
1397.000,346.300,81.100,19.000,898.600,135.600,22.020,3.953,100.200,22.000,4.781,1.254,367.600,96.060,33.160,9.606,easy
1331.000,332.000,78.660,18.530,887.000,133.700,21.760,3.925,100.600,21.750,4.762,1.241,365.100,95.520,32.800,9.523,easy
1317.000,329.600,77.530,18.320,881.300,133.900,21.760,3.908,102.500,21.840,4.747,1.236,363.500,95.230,32.720,9.482,easy
1313.000,329.200,77.990,18.450,880.600,134.100,21.870,3.913,100.200,22.040,4.733,1.245,364.400,95.160,32.890,9.498,easy
1314.000,328.300,77.510,18.400,882.800,134.200,21.760,3.916,101.900,21.620,4.773,1.243,363.100,95.250,32.750,9.509,easy
1320.000,330.500,78.110,18.630,886.800,134.400,21.910,3.933,99.840,21.880,4.751,1.245,364.200,95.320,32.790,9.540,easy
1332.000,332.700,79.060,18.710,891.400,134.500,22.090,3.933,100.800,21.920,4.738,1.242,365.100,95.870,33.030,9.575,easy
1344.000,336.400,79.240,18.880,891.100,135.000,22.000,3.951,101.300,21.750,4.768,1.247,366.400,96.190,33.050,9.642,easy
1354.000,339.200,80.050,18.970,897.400,135.300,22.010,3.979,101.000,22.010,4.791,1.251,367.500,96.400,33.200,9.701,easy
1365.000,341.500,80.610,19.100,899.500,135.600,22.210,3.975,100.200,22.130,4.790,1.248,368.900,96.810,33.490,9.750,easy
1379.000,343.600,81.290,19.280,906.600,136.500,22.290,4.011,102.200,21.860,4.767,1.246,370.500,97.280,33.580,9.699,easy
1374.000,340.100,79.740,18.670,894.000,135.000,21.920,3.917,101.100,21.950,4.777,1.257,365.600,95.860,32.940,9.547,easy
1324.000,331.000,77.950,18.510,883.700,133.700,21.750,3.917,101.000,21.900,4.754,1.235,363.700,95.220,32.810,9.484,easy
1312.000,327.400,77.210,18.320,879.000,133.500,21.650,3.929,102.700,22.000,4.752,1.228,363.300,95.500,32.720,9.507,easy
1309.000,327.800,77.250,18.330,880.400,133.300,21.770,3.913,101.200,21.990,4.756,1.241,363.600,95.310,32.780,9.505,easy
1307.000,326.700,77.070,18.430,878.800,133.300,21.780,3.950,102.000,21.790,4.755,1.244,363.700,95.170,32.870,9.489,easy
1313.000,330.000,77.880,18.530,879.400,133.500,21.800,3.945,101.100,21.890,4.766,1.245,364.200,95.570,32.880,9.538,easy
1322.000,331.600,78.320,18.690,883.000,133.900,21.940,3.944,100.000,22.050,4.783,1.254,365.200,95.790,33.030,9.601,easy
1333.000,334.600,78.990,18.740,888.200,134.400,22.230,3.972,100.400,21.820,4.779,1.251,366.300,95.920,33.130,9.617,easy
1343.000,337.400,79.090,18.870,891.500,134.200,22.170,3.979,101.300,22.090,4.773,1.255,367.400,96.360,33.090,9.691,easy
1309.000,327.700,77.580,18.480,881.700,132.800,21.810,3.929,100.600,21.720,4.760,1.244,363.100,95.060,32.770,9.514,bogus
1318.000,329.600,78.200,18.530,880.400,134.100,21.820,3.933,100.200,22.010,4.763,1.251,363.700,95.320,32.910,9.569,bogus
1326.000,331.700,78.380,18.630,886.200,133.300,21.900,3.908,100.700,21.890,4.763,1.251,365.300,95.670,32.980,9.580,bogus
1336.000,333.600,79.150,18.740,888.300,133.700,22.010,3.950,102.200,21.840,4.795,1.253,366.300,95.790,33.150,9.674,bogus
1348.000,337.300,79.670,18.880,891.300,134.500,22.040,3.962,101.000,21.960,4.788,1.257,367.600,96.380,33.210,9.691,bogus
1281.000,315.800,73.770,17.300,865.900,129.500,21.280,3.787,99.950,21.800,4.768,1.244,354.200,92.270,31.460,9.111,hard
1264.000,313.300,72.940,17.190,866.500,129.600,21.150,3.790,99.660,21.730,4.738,1.243,352.300,91.890,31.400,9.026,hard
1255.000,312.300,72.820,17.210,864.100,129.200,21.250,3.807,99.790,21.490,4.743,1.231,351.900,92.070,31.450,9.056,hard
1259.000,313.200,72.870,17.230,865.400,129.000,21.110,3.827,100.200,21.780,4.707,1.227,352.400,91.770,31.320,9.096,hard
1261.000,312.900,73.030,17.230,867.000,129.800,21.200,3.804,99.770,21.520,4.767,1.240,353.500,91.780,31.440,9.065,hard
1269.000,314.700,73.480,17.340,871.600,129.800,21.200,3.841,98.780,21.660,4.761,1.246,354.200,92.210,31.550,9.118,hard
1281.000,316.900,73.910,17.420,872.200,130.800,21.300,3.827,98.300,21.900,4.769,1.247,354.800,92.510,31.690,9.148,hard
1290.000,318.500,74.510,17.510,876.300,130.900,21.410,3.852,100.400,21.740,4.760,1.251,356.700,92.850,31.800,9.221,hard
1303.000,322.900,75.190,17.730,881.200,131.400,21.390,3.862,100.700,21.750,4.767,1.247,357.000,93.090,31.810,9.210,hard
1287.000,315.000,73.750,17.220,869.100,129.700,21.050,3.808,98.600,21.760,4.753,1.238,352.900,92.060,31.490,9.046,hard
1257.000,311.100,72.590,17.050,862.000,129.400,21.020,3.784,100.400,21.530,4.738,1.236,351.600,91.310,31.180,8.970,hard
1246.000,309.200,72.250,17.010,858.700,128.900,21.030,3.792,99.070,21.800,4.732,1.229,350.700,91.140,31.200,8.960,hard
1248.000,311.900,72.180,17.080,861.800,129.200,21.050,3.798,98.940,21.850,4.728,1.237,350.500,91.270,31.090,8.995,hard
1250.000,310.300,72.360,17.070,863.700,129.100,21.100,3.799,100.200,21.540,4.762,1.245,350.000,91.190,31.280,8.981,hard
1258.000,312.500,72.920,17.230,867.400,129.700,21.400,3.823,99.400,21.750,4.748,1.242,351.500,91.560,31.290,9.053,hard
1271.000,314.900,73.520,17.380,869.400,130.400,21.410,3.835,99.740,21.530,4.756,1.244,352.800,91.940,31.410,9.078,hard
1283.000,318.300,74.260,17.490,873.300,130.400,21.430,3.838,99.230,21.590,4.757,1.254,353.800,92.270,31.600,9.110,hard
1295.000,320.300,75.050,17.700,877.200,131.200,21.550,3.894,98.550,21.710,4.759,1.247,355.700,92.670,31.740,9.190,hard
1309.000,323.900,75.680,17.740,877.100,131.500,21.360,3.857,100.500,21.530,4.781,1.256,355.200,92.240,31.490,9.066,hard
1271.000,314.200,73.030,17.240,863.400,130.200,21.170,3.826,99.700,21.520,4.765,1.245,351.700,91.700,31.210,9.008,hard
1257.000,310.400,72.720,17.100,864.400,129.400,21.210,3.804,98.740,21.730,4.734,1.242,350.500,91.020,31.150,8.941,hard
1251.000,309.200,72.670,17.130,864.600,129.700,21.230,3.806,98.350,21.470,4.744,1.240,350.400,91.060,31.210,8.952,hard
1253.000,310.400,72.750,17.140,863.600,129.500,21.220,3.827,99.390,21.560,4.699,1.242,350.700,91.220,31.170,8.991,hard
1257.000,312.100,72.900,17.170,865.900,129.300,21.180,3.806,98.210,21.630,4.763,1.247,350.800,91.480,31.210,9.020,hard
1268.000,313.200,73.120,17.310,869.400,130.100,21.220,3.827,99.490,21.560,4.760,1.241,351.800,91.750,31.410,9.053,hard
1279.000,317.200,74.190,17.460,872.600,130.500,21.470,3.846,100.300,21.520,4.762,1.243,353.500,91.900,31.410,9.102,hard
1288.000,319.000,74.560,17.600,874.800,131.000,21.530,3.845,99.360,21.920,4.758,1.252,353.800,92.310,31.720,9.149,hard
1304.000,322.900,75.610,17.760,881.800,131.500,21.550,3.864,100.100,21.800,4.784,1.252,356.000,92.680,31.540,9.108,hard
1286.000,316.900,73.810,17.300,870.500,130.300,21.320,3.817,98.830,21.580,4.721,1.240,352.500,91.330,31.290,9.009,hard
1263.000,313.900,73.270,17.180,866.900,129.400,21.230,3.832,100.100,21.710,4.742,1.238,350.600,91.220,31.160,8.931,hard
1256.000,310.900,72.870,17.180,865.000,129.800,21.320,3.826,99.000,21.440,4.707,1.236,350.500,91.210,31.060,8.997,hard
1260.000,311.900,72.970,17.180,865.800,130.000,21.230,3.817,99.050,21.710,4.722,1.239,350.000,90.960,31.140,8.983,hard
1263.000,312.700,73.440,17.240,866.400,130.000,21.300,3.828,99.380,21.640,4.725,1.246,350.500,91.220,31.170,8.978,hard
1272.000,315.600,73.640,17.370,870.100,130.400,21.400,3.841,99.840,21.660,4.750,1.240,351.700,91.390,31.290,9.051,hard
1275.000,314.300,73.370,17.260,867.900,129.700,21.240,3.800,99.090,21.670,4.714,1.235,351.300,91.300,31.110,8.952,hard
1265.000,312.400,72.360,17.010,865.000,129.300,21.210,3.788,99.040,21.480,4.678,1.226,348.300,90.830,31.020,8.952,hard
1262.000,310.600,72.410,16.920,865.300,128.600,21.050,3.746,98.290,21.370,4.644,1.221,348.300,90.480,30.830,8.903,hard
1238.000,305.100,70.430,16.500,853.100,126.800,20.600,3.677,96.990,21.240,4.639,1.215,343.700,89.200,30.350,8.723,hard
1208.000,297.400,69.380,16.210,846.800,125.500,20.540,3.658,97.570,21.220,4.625,1.198,341.800,88.770,30.180,8.699,hard
1198.000,295.700,68.820,16.140,844.600,125.800,20.420,3.679,95.890,21.060,4.615,1.202,342.000,88.840,30.210,8.741,hard
1204.000,297.600,69.010,16.190,844.700,125.700,20.530,3.676,96.860,21.180,4.641,1.217,342.900,89.150,30.410,8.817,hard
1205.000,298.400,69.130,16.340,847.000,126.400,20.640,3.714,96.730,21.280,4.676,1.221,345.000,90.090,30.840,8.887,hard
1222.000,300.700,70.040,16.540,854.900,127.900,20.750,3.742,98.190,21.400,4.700,1.223,346.700,90.560,30.970,8.953,hard
1239.000,304.900,71.020,16.680,858.600,128.400,20.830,3.738,98.570,21.400,4.704,1.237,348.500,90.850,31.050,8.964,hard
1253.000,308.500,71.590,16.800,861.700,128.300,21.070,3.746,98.580,21.340,4.713,1.246,349.300,91.110,31.300,9.035,hard
1267.000,309.300,72.240,17.040,866.200,129.200,21.110,3.784,97.610,21.430,4.684,1.242,351.000,91.460,31.410,9.126,hard
1284.000,315.200,73.030,17.270,871.500,129.000,21.070,3.765,98.460,21.750,4.705,1.245,352.500,91.680,31.380,9.077,hard
1253.000,304.100,70.740,16.680,858.000,127.400,20.730,3.727,98.090,21.480,4.706,1.224,346.600,90.460,30.990,8.941,hard
1229.000,300.300,70.050,16.450,850.900,126.300,20.640,3.706,97.720,21.440,4.659,1.231,345.300,89.910,30.670,8.892,hard
1219.000,300.200,69.300,16.350,854.100,126.800,20.760,3.701,98.580,21.400,4.673,1.231,344.600,89.850,30.760,8.867,hard
1224.000,299.600,69.470,16.420,854.500,126.900,20.730,3.716,98.000,21.410,4.682,1.222,344.000,89.810,30.770,8.880,hard
1226.000,299.800,69.760,16.500,855.100,126.900,20.770,3.745,98.240,21.200,4.666,1.231,345.200,89.640,30.840,8.922,hard
1237.000,302.700,70.330,16.600,858.100,128.000,20.930,3.757,97.570,21.180,4.700,1.223,345.900,90.240,30.880,8.948,hard
1251.000,306.700,71.120,16.800,861.800,128.700,21.030,3.789,99.060,21.320,4.702,1.230,347.200,90.490,31.020,9.014,hard
1266.000,308.000,71.710,17.000,866.600,129.400,21.080,3.803,96.490,21.560,4.664,1.224,348.300,91.090,31.210,9.054,hard
1281.000,312.800,72.770,17.120,872.700,130.100,21.240,3.825,97.690,21.210,4.690,1.228,350.100,91.330,31.370,9.074,hard
1302.000,317.400,73.620,17.400,879.100,129.900,21.300,3.841,98.300,21.290,4.673,1.230,351.700,91.910,31.530,9.211,hard
1324.000,321.800,74.630,17.620,882.000,130.700,21.300,3.787,98.760,21.460,4.694,1.229,351.800,91.840,31.430,9.030,hard
1278.000,308.800,71.720,16.890,863.100,128.900,21.100,3.747,97.970,21.470,4.670,1.227,346.700,90.170,30.880,8.982,hard
1256.000,307.500,70.720,16.720,864.700,127.900,20.900,3.764,98.010,21.400,4.644,1.227,345.800,90.000,30.850,8.949,hard
1248.000,306.000,70.730,16.760,864.400,128.200,21.080,3.771,96.610,21.340,4.661,1.223,345.300,90.130,30.940,8.937,hard
1254.000,305.600,70.870,16.770,867.500,129.100,21.020,3.770,97.620,21.170,4.676,1.212,345.300,89.860,30.860,8.978,hard
1257.000,307.800,70.980,16.830,865.800,128.900,21.020,3.790,97.530,21.340,4.644,1.230,345.700,90.060,30.960,9.001,hard
1270.000,310.000,71.630,16.970,870.900,129.200,21.170,3.811,98.380,21.260,4.673,1.232,347.600,90.560,31.190,9.042,hard
1285.000,314.400,72.590,17.180,873.200,130.100,21.240,3.846,99.150,21.230,4.707,1.219,349.700,91.010,31.320,9.093,hard
1300.000,316.400,73.120,17.320,878.500,130.900,21.400,3.832,96.290,21.470,4.693,1.225,350.500,91.260,31.410,9.173,hard
1313.000,317.600,73.650,17.450,880.900,131.600,21.550,3.874,98.060,21.530,4.717,1.229,352.300,91.690,31.640,9.199,hard
1331.000,321.300,74.880,17.730,889.300,132.000,21.570,3.860,98.390,21.410,4.671,1.234,353.600,92.460,31.800,9.238,hard
1326.000,319.300,73.210,17.220,874.500,130.000,21.230,3.787,98.800,21.540,4.655,1.226,349.100,90.590,31.210,9.069,hard
1277.000,310.800,72.010,17.020,870.800,129.600,21.120,3.799,97.100,21.130,4.641,1.217,346.900,90.690,31.060,9.042,hard
1269.000,308.100,71.630,16.960,869.300,129.200,21.090,3.822,97.370,21.480,4.648,1.221,347.000,90.670,31.120,9.058,hard
1276.000,310.800,71.930,16.960,869.600,129.700,21.140,3.798,96.540,21.530,4.663,1.228,346.500,90.410,31.130,9.037,hard
1275.000,312.100,72.000,17.020,872.500,129.400,21.240,3.807,98.030,21.360,4.669,1.219,347.500,90.680,31.140,9.087,hard
1287.000,313.100,72.760,17.170,876.700,130.000,21.340,3.867,97.770,21.260,4.625,1.219,348.200,91.050,31.260,9.144,hard
1301.000,316.700,72.940,17.310,880.500,130.700,21.320,3.856,97.690,21.420,4.691,1.227,349.900,91.560,31.490,9.202,hard
1317.000,318.100,73.890,17.470,887.900,131.900,21.500,3.879,99.450,21.440,4.656,1.221,352.200,91.910,31.630,9.254,hard
1330.000,322.600,74.600,17.660,889.600,131.600,21.600,3.880,98.500,21.440,4.651,1.232,353.800,92.520,31.920,9.310,hard
1345.000,325.200,75.300,17.770,893.100,132.500,21.740,3.892,99.340,21.580,4.701,1.230,356.100,92.620,31.910,9.333,hard
1343.000,320.200,73.660,17.280,881.600,130.300,21.260,3.788,100.200,21.320,4.672,1.221,350.500,91.390,31.340,9.143,hard
1284.000,312.300,71.980,17.080,870.200,129.500,21.280,3.797,96.870,21.500,4.675,1.208,348.700,90.580,31.120,9.076,hard
1272.000,310.000,71.450,16.960,867.500,129.700,21.300,3.784,97.930,21.410,4.661,1.203,347.300,90.670,31.190,9.068,hard
1274.000,312.400,71.650,16.950,871.500,129.500,21.220,3.794,98.960,21.270,4.674,1.216,347.200,90.630,31.120,9.042,hard
1274.000,311.300,71.560,16.980,874.500,129.800,21.350,3.807,97.670,21.320,4.650,1.210,347.500,90.540,31.140,9.068,hard
1283.000,312.000,72.460,17.150,876.900,129.800,21.370,3.837,98.950,21.180,4.660,1.215,349.300,90.930,31.270,9.153,hard
1298.000,316.200,73.000,17.270,880.200,131.300,21.480,3.868,97.830,21.220,4.688,1.217,349.800,91.210,31.450,9.222,hard
1313.000,317.800,73.790,17.450,883.600,131.000,21.720,3.867,97.720,21.380,4.681,1.224,351.800,92.050,31.530,9.249,hard
1329.000,323.200,74.640,17.680,887.100,132.800,21.730,3.902,99.710,21.410,4.693,1.225,353.700,92.260,31.790,9.327,hard
1345.000,326.200,75.940,17.800,895.000,133.600,21.730,3.922,98.920,21.500,4.683,1.233,354.600,92.930,32.020,9.370,hard
1354.000,326.300,74.790,17.510,885.200,131.200,21.440,3.847,98.350,21.430,4.714,1.222,352.200,91.470,31.350,9.150,hard
1291.000,314.000,72.410,17.160,872.800,130.200,21.370,3.838,98.600,21.120,4.668,1.220,348.800,90.900,31.160,9.103,hard
1277.000,310.500,71.790,16.990,872.400,129.800,21.200,3.826,98.680,21.420,4.671,1.217,347.300,90.670,31.090,9.092,hard
1279.000,310.800,71.890,17.040,871.100,130.000,21.250,3.814,98.230,21.440,4.673,1.219,347.900,90.680,31.170,9.062,hard
1279.000,310.600,72.060,17.050,870.500,129.800,21.270,3.804,99.500,21.270,4.669,1.217,348.500,90.880,31.240,9.098,hard
1285.000,313.900,72.430,17.130,875.400,130.700,21.470,3.846,97.050,21.400,4.670,1.224,349.400,91.170,31.300,9.143,hard
1297.000,316.000,72.870,17.300,880.900,130.700,21.440,3.865,98.410,21.590,4.706,1.223,350.900,91.430,31.480,9.173,hard
1310.000,317.600,73.280,17.430,884.800,131.500,21.530,3.886,98.890,21.450,4.675,1.224,351.700,91.750,31.570,9.222,hard
1322.000,320.500,73.960,17.500,887.300,131.700,21.600,3.925,98.110,21.680,4.682,1.227,353.400,92.200,31.810,9.295,hard
1336.000,322.500,74.300,17.480,885.100,131.200,21.460,3.853,97.340,21.540,4.695,1.233,352.200,91.680,31.400,9.152,hard
1283.000,312.500,71.790,16.920,872.700,129.800,21.340,3.823,97.420,21.510,4.672,1.229,347.500,90.900,31.070,9.094,hard
1272.000,309.300,71.550,16.870,866.200,129.600,21.280,3.811,98.400,21.280,4.636,1.209,347.500,90.550,31.070,9.080,hard
1273.000,310.200,71.390,16.980,870.600,129.700,21.240,3.812,99.190,21.480,4.675,1.218,347.600,90.660,31.060,9.083,hard
1273.000,309.300,71.710,16.940,870.200,129.600,21.390,3.818,98.330,21.320,4.684,1.224,348.500,91.000,31.150,9.085,hard
1279.000,311.300,72.160,17.050,872.500,130.400,21.400,3.838,98.060,21.480,4.684,1.222,349.100,91.030,31.340,9.106,hard
1290.000,313.600,72.310,17.200,876.700,130.300,21.410,3.848,100.200,21.330,4.672,1.225,350.800,91.700,31.450,9.184,hard
1304.000,317.500,73.160,17.310,882.100,130.600,21.480,3.875,99.100,21.350,4.683,1.220,352.100,91.880,31.670,9.202,hard
1318.000,320.500,73.810,17.510,886.200,131.400,21.610,3.876,98.340,21.460,4.676,1.234,353.900,91.980,31.680,9.234,hard
1310.000,316.400,72.380,17.030,877.600,129.700,21.270,3.826,100.400,21.440,4.695,1.226,348.400,90.890,31.110,9.095,hard
1271.000,308.900,71.330,16.920,866.800,129.600,21.260,3.837,97.540,21.530,4.674,1.223,347.500,90.900,31.150,9.065,hard
1266.000,308.300,71.330,16.880,867.300,129.400,21.260,3.840,97.800,21.470,4.667,1.226,347.600,90.550,31.150,9.038,hard
1273.000,308.200,71.370,16.860,868.400,129.400,21.220,3.838,97.920,21.360,4.678,1.228,347.900,90.530,31.060,9.058,hard
1272.000,310.400,71.440,16.920,867.200,129.800,21.230,3.840,97.850,21.810,4.670,1.225,348.500,90.860,31.170,9.110,hard
1281.000,311.300,72.310,17.060,874.400,130.200,21.300,3.845,98.820,21.410,4.712,1.227,350.000,91.170,31.380,9.147,hard
1294.000,314.000,72.770,17.200,875.100,130.500,21.470,3.864,99.980,21.430,4.690,1.229,350.800,91.790,31.480,9.201,hard
1306.000,317.100,73.340,17.270,881.500,131.600,21.630,3.864,98.350,21.600,4.713,1.236,352.800,92.030,31.680,9.267,hard
1316.000,317.900,72.780,17.160,877.100,129.300,21.230,3.816,99.800,21.540,4.682,1.228,350.800,91.050,31.140,9.071,hard
1265.000,308.800,70.850,16.760,863.500,128.500,21.190,3.792,98.650,21.480,4.694,1.224,346.400,90.450,30.980,9.026,hard
1255.000,306.500,70.330,16.680,860.700,128.200,21.130,3.804,96.840,21.410,4.649,1.227,346.100,90.410,30.990,9.000,hard
1256.000,306.600,70.620,16.730,863.400,128.500,21.130,3.806,99.750,21.310,4.678,1.220,346.900,90.230,30.860,8.976,hard
1255.000,305.600,70.270,16.660,864.000,128.400,21.110,3.831,97.350,21.450,4.671,1.223,346.800,90.250,30.900,9.032,hard
1260.000,307.900,71.070,16.740,866.200,129.000,21.160,3.828,99.130,21.440,4.672,1.220,347.100,90.510,31.080,9.044,hard
1272.000,308.800,71.870,16.940,871.100,129.800,21.200,3.841,99.540,21.580,4.699,1.233,348.600,90.710,31.060,9.100,hard
1282.000,312.200,71.900,16.930,874.000,130.200,21.220,3.860,98.370,21.540,4.693,1.224,350.200,90.870,31.320,9.152,hard
1293.000,313.500,72.250,17.120,877.100,131.100,21.340,3.845,99.270,21.570,4.712,1.227,351.500,91.640,31.430,9.175,hard
1291.000,310.000,71.470,16.820,866.700,128.900,20.940,3.791,100.500,21.510,4.688,1.235,346.700,90.250,30.890,8.975,hard
1249.000,304.300,70.070,16.560,858.800,128.200,20.890,3.782,98.730,21.390,4.686,1.223,345.300,90.010,30.640,8.951,hard
1239.000,300.600,69.520,16.480,858.000,127.400,21.050,3.781,99.480,21.330,4.673,1.224,344.700,90.040,30.660,8.906,hard
1242.000,302.500,69.970,16.500,858.100,127.700,21.110,3.782,98.850,21.430,4.705,1.226,344.700,89.650,30.620,8.909,hard
1240.000,302.000,69.800,16.530,860.000,128.000,21.060,3.787,97.400,21.450,4.666,1.232,344.700,89.760,30.820,8.924,hard
1248.000,304.200,69.990,16.680,861.900,128.200,20.980,3.820,99.150,21.530,4.693,1.225,345.200,90.070,30.850,8.966,hard
1259.000,307.300,70.890,16.780,866.000,129.000,21.140,3.830,99.320,21.460,4.727,1.230,347.200,90.210,30.940,9.052,hard
1269.000,307.600,71.570,16.820,868.500,128.800,21.280,3.839,98.910,21.470,4.711,1.234,348.000,90.750,31.130,9.039,hard
1279.000,311.100,71.790,16.960,875.600,130.200,21.260,3.884,98.100,21.460,4.690,1.236,349.900,91.160,31.280,9.128,hard
1291.000,311.800,72.250,16.900,869.400,129.000,20.970,3.811,98.600,21.540,4.740,1.235,346.400,90.350,30.780,8.948,hard
1242.000,302.700,69.890,16.450,858.900,127.600,20.880,3.785,97.910,21.740,4.713,1.225,344.600,89.520,30.570,8.884,hard
1232.000,300.400,69.520,16.340,853.900,127.300,20.940,3.792,99.400,21.440,4.715,1.225,343.300,89.320,30.530,8.858,hard
1233.000,300.700,69.510,16.420,854.900,127.600,20.950,3.799,97.900,21.360,4.693,1.227,343.000,89.430,30.500,8.860,hard
1230.000,300.100,69.460,16.380,854.100,127.500,20.960,3.773,98.480,21.360,4.688,1.220,342.800,89.490,30.590,8.880,hard
1236.000,300.400,69.270,16.500,857.400,127.400,20.950,3.788,97.690,21.320,4.698,1.234,344.100,89.690,30.650,8.923,hard
1247.000,304.000,70.150,16.600,861.900,128.100,21.060,3.824,97.880,21.650,4.692,1.232,344.900,90.060,30.750,8.933,hard
1257.000,306.400,70.600,16.760,864.600,128.800,21.120,3.807,98.410,21.590,4.719,1.234,346.800,90.240,30.850,8.982,hard
1267.000,308.100,71.100,16.800,868.500,129.300,21.180,3.840,98.970,21.470,4.737,1.238,347.500,90.860,30.990,9.072,hard
1275.000,307.300,71.090,16.560,861.500,127.500,21.020,3.795,98.610,21.710,4.726,1.231,345.700,89.680,30.550,8.875,hard
1229.000,298.500,68.790,16.300,854.000,127.100,20.910,3.772,97.980,21.420,4.693,1.216,342.800,89.010,30.450,8.800,hard
1221.000,296.700,68.770,16.190,850.600,126.500,20.750,3.746,97.640,21.350,4.673,1.232,342.200,89.080,30.350,8.787,hard
1223.000,296.800,69.130,16.280,854.600,127.000,20.870,3.789,97.490,21.220,4.690,1.223,342.400,89.190,30.390,8.809,hard
1222.000,297.600,68.920,16.310,853.000,126.900,20.840,3.746,98.530,21.250,4.696,1.231,342.300,89.200,30.470,8.835,hard
1230.000,300.100,69.350,16.390,855.300,127.400,20.870,3.792,98.950,21.610,4.706,1.232,343.600,89.640,30.580,8.862,hard
1241.000,300.900,70.030,16.530,857.300,128.000,21.100,3.771,96.620,21.500,4.701,1.232,344.400,89.680,30.730,8.891,hard
1252.000,303.400,70.250,16.640,858.300,128.100,21.100,3.799,98.840,21.360,4.732,1.234,345.900,90.140,30.840,8.996,hard
1263.000,307.900,70.810,16.790,862.800,128.700,21.150,3.798,96.860,21.350,4.755,1.244,347.400,90.280,31.000,9.010,hard
1274.000,309.600,71.600,16.890,867.700,129.100,21.300,3.844,97.550,21.710,4.729,1.244,348.700,90.800,31.190,9.063,hard
1290.000,313.000,71.810,17.070,873.900,129.500,21.170,3.832,99.080,21.530,4.740,1.248,349.800,91.020,31.020,9.019,hard
1251.000,303.500,69.410,16.370,854.700,126.500,20.880,3.762,97.070,21.400,4.727,1.229,344.000,89.420,30.640,8.851,hard
1224.000,299.300,68.710,16.260,851.300,126.200,20.850,3.760,99.600,21.480,4.679,1.226,342.100,89.070,30.390,8.784,hard
1213.000,296.600,68.310,16.240,853.100,126.200,20.720,3.752,99.290,21.470,4.710,1.224,342.500,89.020,30.430,8.780,hard
1219.000,296.300,68.820,16.210,849.400,126.700,20.770,3.746,98.290,21.430,4.698,1.227,342.100,88.980,30.400,8.798,hard
1219.000,296.100,69.070,16.310,851.300,126.600,20.890,3.766,97.270,21.300,4.703,1.226,343.100,89.170,30.560,8.803,hard
1229.000,298.700,69.310,16.420,856.500,127.800,20.890,3.783,97.610,21.710,4.715,1.230,343.400,89.630,30.550,8.848,hard
1242.000,301.800,70.110,16.560,856.700,127.400,21.100,3.775,97.400,21.610,4.722,1.235,344.400,90.040,30.800,8.954,hard
1253.000,305.900,70.660,16.640,862.300,128.700,21.110,3.811,98.920,21.440,4.714,1.240,345.600,90.340,30.960,8.969,hard
1264.000,308.500,71.060,16.860,864.400,128.800,21.080,3.822,97.470,21.650,4.711,1.244,347.600,90.580,31.030,9.029,hard
1277.000,310.000,71.580,16.970,870.700,129.300,21.370,3.834,99.580,21.740,4.767,1.243,350.000,91.080,31.250,9.097,hard
1292.000,313.100,71.950,16.900,868.000,128.500,21.010,3.771,99.280,21.500,4.769,1.247,347.900,90.370,30.820,8.897,hard
1235.000,301.100,69.950,16.390,853.900,126.800,20.890,3.768,98.400,21.550,4.710,1.239,343.600,89.610,30.560,8.849,hard
1225.000,298.700,69.020,16.270,849.600,126.400,20.820,3.760,98.320,21.340,4.714,1.232,343.500,89.190,30.530,8.825,hard
1224.000,298.100,69.220,16.310,855.000,127.100,20.780,3.780,98.440,21.410,4.723,1.231,344.400,89.530,30.600,8.825,hard
1226.000,298.400,69.260,16.350,850.500,127.000,20.900,3.759,97.350,21.570,4.715,1.233,343.700,89.580,30.570,8.866,hard
1230.000,300.200,69.350,16.470,854.900,127.300,21.010,3.776,97.190,21.420,4.697,1.232,344.600,89.990,30.680,8.897,hard
1240.000,301.500,70.130,16.570,857.500,128.000,20.960,3.789,98.880,21.490,4.748,1.243,345.600,89.970,30.810,8.949,hard
1252.000,304.300,70.420,16.730,862.500,128.400,21.030,3.830,97.780,21.660,4.682,1.238,346.600,90.420,30.910,8.975,hard
1262.000,307.300,70.950,16.870,861.800,128.400,21.160,3.828,98.610,21.530,4.747,1.239,347.900,90.800,31.050,9.036,hard
1277.000,311.100,71.540,16.970,872.200,129.100,21.170,3.795,98.920,21.540,4.750,1.244,348.400,90.870,31.060,8.957,hard
1245.000,302.200,69.190,16.430,854.000,127.200,20.890,3.758,97.430,21.650,4.727,1.233,344.300,89.690,30.580,8.838,hard
1226.000,298.900,68.980,16.260,851.600,127.000,20.810,3.746,98.700,21.540,4.717,1.232,343.000,89.220,30.430,8.824,hard
1220.000,298.900,69.060,16.350,851.900,127.400,20.810,3.763,97.950,21.510,4.700,1.228,343.300,89.320,30.640,8.820,hard
1224.000,299.500,69.170,16.350,852.400,126.700,20.860,3.778,98.870,21.640,4.733,1.236,344.100,89.550,30.510,8.801,hard
1227.000,300.100,69.180,16.360,855.800,127.300,20.920,3.804,98.020,21.600,4.751,1.238,344.200,89.800,30.620,8.879,hard
1237.000,301.900,69.900,16.580,857.100,127.400,20.930,3.802,96.930,21.530,4.705,1.237,346.100,90.050,30.820,8.928,hard
1250.000,304.700,70.660,16.690,859.900,128.500,21.060,3.799,99.530,21.630,4.725,1.236,347.100,90.240,30.890,8.952,hard
1260.000,305.800,71.000,16.770,865.700,129.000,21.270,3.817,98.710,21.670,4.742,1.235,347.400,90.640,31.030,9.016,hard
1271.000,309.400,71.280,16.960,865.200,128.700,21.220,3.832,98.170,21.670,4.730,1.250,349.300,90.980,31.190,9.068,hard
1286.000,311.600,72.170,17.040,867.700,128.600,21.000,3.780,98.560,21.680,4.746,1.244,349.100,90.650,30.900,8.911,hard
1236.000,300.200,69.170,16.390,853.800,126.300,20.850,3.754,98.930,21.540,4.732,1.232,344.400,89.420,30.530,8.817,hard
1219.000,297.800,68.660,16.240,852.400,126.200,20.880,3.756,97.170,21.440,4.695,1.228,342.500,88.870,30.360,8.774,hard
1210.000,295.900,68.370,16.210,849.000,126.400,20.770,3.743,99.250,21.370,4.711,1.232,342.600,89.080,30.290,8.738,hard
1215.000,296.000,68.630,16.250,848.200,127.000,20.680,3.775,97.690,21.610,4.719,1.236,342.100,88.920,30.380,8.781,hard
1218.000,298.600,68.900,16.350,851.700,126.400,20.770,3.761,96.920,21.490,4.678,1.225,343.100,89.330,30.460,8.837,hard
1228.000,299.900,69.380,16.470,856.700,127.000,20.890,3.780,98.760,21.260,4.711,1.237,343.900,89.620,30.620,8.856,hard
1241.000,303.700,70.030,16.560,858.700,127.600,21.020,3.818,97.680,21.460,4.731,1.236,345.200,89.700,30.670,8.900,hard
1253.000,306.000,70.940,16.700,863.900,128.500,21.070,3.820,98.740,21.650,4.740,1.238,347.200,90.280,30.860,8.946,hard
1265.000,307.600,71.500,16.870,863.700,129.000,21.080,3.807,100.000,21.560,4.759,1.238,348.400,90.590,31.040,9.004,hard
1279.000,312.500,71.970,17.020,870.100,129.500,21.300,3.818,97.780,21.680,4.741,1.252,350.300,91.090,31.020,9.007,hard
1266.000,305.500,70.160,16.480,854.200,127.000,20.890,3.754,99.030,21.650,4.762,1.242,344.700,89.090,30.520,8.810,hard
1225.000,298.900,69.050,16.410,853.400,126.300,20.890,3.752,98.380,21.460,4.692,1.227,343.000,89.320,30.340,8.802,hard
1216.000,296.900,68.250,16.200,849.200,126.400,20.860,3.780,97.820,21.400,4.697,1.234,342.000,89.060,30.340,8.753,hard
1219.000,299.200,68.810,16.210,848.500,126.400,20.740,3.762,97.550,21.450,4.716,1.232,342.100,88.920,30.330,8.791,hard
1217.000,296.500,68.820,16.290,851.500,126.800,20.880,3.762,97.740,21.400,4.713,1.231,342.600,88.880,30.340,8.795,hard
1225.000,298.000,69.270,16.400,851.300,126.600,20.780,3.780,97.680,21.630,4.719,1.233,344.000,89.440,30.430,8.829,hard
1237.000,302.700,70.080,16.520,856.100,127.300,20.960,3.784,98.550,21.490,4.726,1.238,345.300,89.450,30.610,8.864,hard
1247.000,305.100,70.490,16.630,859.400,128.200,20.960,3.814,100.400,21.680,4.750,1.246,346.000,90.040,30.790,8.930,hard
1258.000,306.000,70.690,16.760,859.500,129.100,21.160,3.842,97.990,21.630,4.732,1.252,346.900,90.480,30.920,8.991,hard
1271.000,308.300,71.120,16.780,859.200,127.600,20.950,3.778,98.850,21.430,4.738,1.241,346.000,89.640,30.550,8.818,hard
1225.000,297.700,69.090,16.290,852.100,126.800,20.810,3.736,98.930,21.560,4.716,1.228,342.800,88.890,30.200,8.768,hard
1214.000,296.600,68.570,16.160,849.200,126.800,20.700,3.731,98.170,21.580,4.683,1.234,342.500,88.720,30.300,8.726,hard
1214.000,299.200,68.580,16.210,846.900,126.400,20.810,3.769,97.720,21.410,4.732,1.234,341.700,88.750,30.220,8.740,hard
1216.000,297.200,68.500,16.310,849.200,126.500,20.830,3.749,97.300,21.610,4.692,1.239,341.800,88.890,30.280,8.759,hard
1222.000,298.800,69.110,16.310,853.100,126.300,20.750,3.771,97.380,21.360,4.734,1.236,342.700,89.150,30.400,8.803,hard
1232.000,301.600,69.370,16.460,857.800,127.300,20.930,3.802,98.230,21.400,4.734,1.243,344.100,89.720,30.530,8.871,hard
1244.000,303.600,69.910,16.630,857.400,127.500,20.940,3.800,98.010,21.510,4.750,1.236,345.800,89.960,30.730,8.931,hard
1255.000,305.000,70.870,16.740,859.600,128.800,21.110,3.813,98.250,21.440,4.741,1.242,345.500,89.980,30.840,8.965,hard
1265.000,309.000,71.340,16.860,865.400,128.600,21.300,3.827,98.360,21.330,4.747,1.243,348.200,90.800,30.940,9.035,hard
1280.000,311.200,71.830,16.840,861.900,128.400,20.930,3.789,98.170,21.740,4.762,1.250,347.100,89.730,30.640,8.843,hard
1227.000,297.700,68.630,16.350,849.500,126.400,20.870,3.760,98.420,21.590,4.736,1.229,343.300,89.200,30.300,8.730,hard
1215.000,297.000,68.750,16.160,847.700,126.100,20.660,3.732,98.720,21.470,4.709,1.238,342.400,88.770,30.170,8.703,hard
1210.000,295.900,68.460,16.240,845.100,126.400,20.790,3.751,97.920,21.440,4.696,1.235,342.300,88.710,30.120,8.713,hard
1214.000,296.900,68.100,16.180,846.300,126.200,20.800,3.744,97.680,21.290,4.691,1.243,341.800,88.600,30.210,8.718,hard
1218.000,297.600,68.840,16.220,847.800,126.700,20.910,3.764,99.510,21.480,4.712,1.237,342.000,88.800,30.270,8.739,hard
1227.000,299.200,69.270,16.410,852.100,127.000,20.860,3.789,98.640,21.320,4.714,1.239,344.200,89.240,30.360,8.813,hard
1241.000,303.000,69.900,16.560,858.600,128.100,20.960,3.792,98.290,21.410,4.706,1.232,344.900,89.510,30.610,8.900,hard
1252.000,304.900,70.470,16.690,858.500,128.300,21.010,3.840,98.500,21.600,4.742,1.242,345.800,90.050,30.800,8.910,hard
1263.000,306.200,71.110,16.810,867.000,128.500,21.080,3.836,97.430,21.610,4.717,1.246,348.400,90.280,30.850,8.957,hard
1279.000,309.900,72.320,16.940,871.600,128.800,21.150,3.805,99.130,21.570,4.774,1.250,349.300,90.390,30.760,8.890,hard
1243.000,301.600,69.460,16.320,852.600,126.800,20.820,3.743,97.760,21.630,4.731,1.231,343.300,88.970,30.210,8.782,hard
1222.000,298.000,68.660,16.260,849.700,126.000,20.780,3.759,97.630,21.440,4.703,1.231,342.800,88.780,30.260,8.717,hard
1213.000,295.300,68.450,16.230,846.800,126.400,20.780,3.740,98.250,21.490,4.719,1.230,342.500,88.680,30.220,8.752,hard
1218.000,297.200,68.930,16.240,851.600,126.700,20.840,3.776,97.480,21.330,4.700,1.241,342.600,88.610,30.130,8.745,hard
1219.000,297.800,68.700,16.230,851.400,126.700,20.940,3.755,97.720,21.430,4.716,1.234,343.400,88.940,30.330,8.756,hard
1229.000,301.200,69.600,16.400,852.400,126.900,20.900,3.774,98.890,21.300,4.737,1.248,343.400,89.330,30.390,8.807,hard
1242.000,303.900,69.860,16.530,856.000,127.800,21.060,3.802,96.960,21.420,4.728,1.246,345.200,89.700,30.520,8.869,hard
1254.000,305.500,70.710,16.690,858.800,128.100,21.100,3.806,98.330,21.460,4.731,1.247,346.800,89.930,30.670,8.912,hard
1264.000,308.700,71.050,16.780,867.100,128.500,21.140,3.851,97.780,21.420,4.762,1.248,348.900,90.520,30.920,8.953,hard
1278.000,312.900,71.560,16.810,862.900,127.800,20.960,3.775,98.540,21.710,4.769,1.243,346.100,89.900,30.430,8.823,hard
1227.000,298.300,69.050,16.290,846.400,126.200,20.660,3.752,99.560,21.460,4.735,1.239,343.200,88.840,30.220,8.763,hard
1215.000,296.800,68.520,16.150,847.900,126.700,20.770,3.742,96.300,21.400,4.708,1.234,341.200,88.480,30.070,8.687,hard
1211.000,296.300,68.750,16.150,846.400,126.300,20.740,3.749,97.780,21.430,4.710,1.241,341.900,88.600,30.160,8.724,hard
1214.000,296.400,68.600,16.180,848.000,126.300,20.880,3.762,97.470,21.470,4.708,1.234,342.300,88.400,30.120,8.683,hard
1219.000,297.000,68.890,16.310,848.800,127.000,20.800,3.768,98.260,21.570,4.727,1.243,341.900,88.910,30.290,8.754,hard
1228.000,299.900,69.730,16.370,852.400,127.000,20.990,3.791,99.630,21.350,4.744,1.244,343.900,89.170,30.410,8.774,hard
1242.000,302.300,69.950,16.560,854.500,127.900,21.010,3.792,99.430,21.550,4.742,1.239,344.500,89.410,30.490,8.832,hard
1253.000,304.600,70.850,16.700,865.300,128.000,21.050,3.799,98.400,21.700,4.745,1.249,346.400,89.800,30.600,8.875,hard
1266.000,308.300,71.050,16.860,866.000,128.600,21.250,3.818,98.980,21.680,4.763,1.252,348.200,90.160,30.840,8.955,hard
1281.000,310.900,72.090,16.910,868.700,128.300,21.160,3.810,99.240,21.650,4.744,1.251,348.100,90.100,30.650,8.831,hard
1238.000,300.200,69.480,16.390,849.700,126.000,20.780,3.766,98.110,21.500,4.711,1.240,343.700,88.770,30.210,8.734,hard
1219.000,296.400,68.590,16.200,847.800,126.500,20.810,3.760,98.310,21.350,4.721,1.225,342.000,88.600,30.050,8.693,hard
1211.000,295.900,68.570,16.140,847.400,126.100,20.720,3.754,97.330,21.580,4.736,1.236,342.100,88.760,30.130,8.667,hard
1215.000,298.200,68.750,16.180,847.600,126.500,20.870,3.747,97.360,21.540,4.735,1.239,341.900,88.450,30.060,8.673,hard
1218.000,297.900,69.110,16.250,850.200,126.900,20.840,3.776,97.800,21.400,4.704,1.227,342.000,88.780,30.170,8.710,hard
1228.000,299.700,69.610,16.380,856.100,127.800,20.950,3.786,99.440,21.520,4.721,1.244,343.200,88.940,30.280,8.756,hard
1241.000,303.000,69.940,16.510,857.900,127.800,21.000,3.805,98.040,21.580,4.761,1.236,344.200,89.660,30.540,8.824,hard
1253.000,304.800,70.490,16.630,864.200,127.900,21.150,3.822,99.220,21.500,4.754,1.241,345.700,89.710,30.570,8.846,hard
1262.000,307.300,70.970,16.790,863.800,128.800,21.260,3.830,97.860,21.800,4.772,1.251,347.400,89.910,30.860,8.924,hard
1277.000,311.100,71.740,16.930,868.000,127.800,21.150,3.772,98.940,21.630,4.740,1.250,347.100,89.950,30.500,8.811,hard
1235.000,301.100,69.450,16.330,853.400,126.300,20.790,3.769,97.780,21.410,4.726,1.234,342.800,88.920,30.180,8.709,hard
1221.000,297.700,68.890,16.230,850.300,126.500,20.760,3.769,97.300,21.400,4.717,1.237,341.900,88.820,30.100,8.683,hard
1217.000,298.100,68.900,16.230,848.400,126.900,20.880,3.782,97.170,21.340,4.736,1.242,341.900,88.570,30.190,8.714,hard
1221.000,298.400,69.060,16.210,851.400,126.400,20.720,3.769,99.140,21.600,4.723,1.240,341.700,88.540,30.210,8.701,hard
1224.000,299.100,69.320,16.370,853.000,127.100,20.910,3.773,98.290,21.450,4.729,1.243,342.100,88.790,30.330,8.743,hard
1235.000,301.900,69.540,16.430,853.600,127.700,21.040,3.792,98.710,21.680,4.764,1.245,344.300,89.420,30.430,8.788,hard
1249.000,304.200,70.330,16.610,855.500,127.700,21.050,3.783,99.000,21.510,4.736,1.246,345.500,89.670,30.530,8.832,hard
1260.000,306.100,71.110,16.790,862.800,128.400,21.060,3.824,98.310,21.550,4.767,1.251,347.000,89.720,30.690,8.849,hard
1271.000,309.300,71.370,16.870,866.500,129.500,21.280,3.836,98.550,21.580,4.767,1.250,348.100,90.390,30.850,8.942,hard
1286.000,311.600,72.250,16.970,871.400,128.900,21.100,3.781,98.760,21.940,4.774,1.262,347.600,90.190,30.610,8.828,hard
1240.000,301.800,69.230,16.360,853.300,127.200,20.950,3.768,97.840,21.380,4.716,1.244,343.800,88.920,30.260,8.727,hard
1222.000,298.200,68.800,16.230,851.000,126.800,20.810,3.766,98.130,21.470,4.725,1.238,342.400,88.420,30.070,8.674,hard
1213.000,296.600,68.690,16.240,849.300,126.200,20.730,3.736,97.160,21.650,4.698,1.247,342.100,88.800,30.150,8.691,hard
1217.000,296.200,68.640,16.150,849.000,126.600,20.730,3.785,95.650,21.460,4.707,1.242,341.700,88.590,30.150,8.717,hard
1219.000,298.400,68.950,16.280,850.100,126.700,20.840,3.763,99.220,21.490,4.746,1.239,342.000,88.640,30.190,8.742,hard
1231.000,301.100,69.610,16.450,856.700,127.200,20.930,3.794,97.960,21.410,4.753,1.243,344.400,89.260,30.410,8.785,hard
1244.000,303.700,70.110,16.620,856.200,128.600,21.040,3.811,97.650,21.450,4.751,1.240,345.300,89.360,30.560,8.838,hard
1257.000,306.700,71.060,16.730,865.400,128.600,21.130,3.820,98.430,21.570,4.761,1.240,346.900,90.010,30.700,8.897,hard
1270.000,308.200,71.300,16.880,866.000,128.700,21.290,3.812,97.140,21.650,4.760,1.252,348.000,90.330,30.820,8.942,hard
1285.000,312.600,72.310,17.070,873.200,129.300,21.210,3.827,100.200,21.700,4.776,1.254,349.500,90.520,30.900,8.919,hard
1263.000,306.200,70.120,16.480,852.300,127.000,20.920,3.742,97.890,21.450,4.754,1.243,344.800,89.020,30.380,8.751,hard
1228.000,300.300,69.250,16.320,851.600,127.200,20.830,3.782,97.560,21.660,4.754,1.246,343.900,88.850,30.250,8.712,hard
1220.000,298.500,68.870,16.300,851.600,126.500,20.810,3.773,98.290,21.330,4.743,1.249,342.800,89.030,30.300,8.751,hard
1225.000,299.100,69.250,16.320,852.500,127.000,20.910,3.773,97.760,21.620,4.736,1.247,342.900,88.730,30.230,8.726,hard
1224.000,299.300,69.500,16.370,850.800,127.100,20.840,3.796,98.080,21.680,4.757,1.244,343.000,88.860,30.350,8.752,hard
1233.000,300.200,69.670,16.510,856.600,128.100,21.040,3.786,98.000,21.330,4.722,1.247,343.700,89.480,30.480,8.804,hard
1246.000,303.500,70.260,16.570,859.100,128.000,21.030,3.808,98.070,21.810,4.768,1.248,345.900,89.740,30.620,8.856,hard
1257.000,306.400,71.050,16.740,865.400,128.500,21.130,3.809,98.740,21.600,4.787,1.249,347.200,89.940,30.700,8.884,hard
1268.000,309.800,71.520,16.900,867.800,128.900,21.210,3.838,99.110,21.660,4.794,1.254,348.100,90.420,30.940,8.946,hard
1283.000,310.400,71.850,16.990,867.400,128.000,21.130,3.775,99.180,21.930,4.769,1.259,348.200,90.030,30.570,8.793,hard
1238.000,301.100,69.480,16.390,853.500,126.400,20.910,3.767,98.730,21.390,4.767,1.237,344.500,89.280,30.450,8.756,hard
1226.000,299.300,69.310,16.320,853.900,126.900,20.870,3.736,98.190,21.550,4.729,1.237,343.300,88.800,30.320,8.700,hard
1223.000,300.400,69.190,16.360,852.800,126.700,20.880,3.774,97.690,21.410,4.708,1.249,343.800,89.070,30.380,8.715,hard
1225.000,299.100,69.190,16.350,854.700,127.500,20.820,3.766,98.880,21.560,4.759,1.234,343.200,89.320,30.330,8.741,hard
1231.000,300.700,69.720,16.480,856.100,127.000,20.860,3.791,97.200,21.560,4.761,1.254,343.900,89.380,30.440,8.796,hard
1241.000,304.300,70.520,16.580,860.100,128.200,21.000,3.812,97.220,21.700,4.754,1.245,345.900,89.590,30.630,8.857,hard
1255.000,305.300,70.930,16.740,866.300,128.600,21.110,3.798,98.690,21.460,4.792,1.240,347.400,89.970,30.780,8.910,hard
1267.000,307.600,71.680,16.890,868.200,129.200,21.170,3.828,98.460,21.770,4.762,1.254,348.400,90.480,30.820,8.973,hard
1279.000,312.000,71.860,17.050,869.100,129.400,21.260,3.835,97.700,21.610,4.782,1.247,349.700,90.790,31.120,9.041,hard
1293.000,315.700,72.790,17.140,871.100,129.000,21.090,3.779,98.450,21.550,4.795,1.262,350.100,90.170,30.840,8.852,hard
1241.000,301.600,69.740,16.450,852.500,127.300,20.870,3.762,98.390,21.760,4.729,1.246,344.000,89.200,30.320,8.762,hard
1223.000,298.800,69.060,16.330,849.100,126.800,20.800,3.741,97.800,21.380,4.750,1.232,343.100,88.940,30.190,8.710,hard
1215.000,297.400,68.940,16.270,849.600,126.700,20.970,3.733,98.990,21.500,4.719,1.240,342.700,88.900,30.180,8.702,hard
1219.000,296.800,68.960,16.300,851.800,126.600,20.870,3.755,97.810,21.610,4.758,1.242,342.400,89.140,30.280,8.731,hard
