1533,275.3,54.44,17.42,1335,265.7,61.33,15.87,96.28,21.28,6.509,2.243,175.5,44.26,12.7,4.727,hard
1534,274,55.36,17.3,1335,265.5,61.11,15.87,98.16,21.02,6.435,2.274,176.1,43.9,12.64,4.724,hard
1534,274.7,54.48,17.47,1330,264.9,60.98,15.87,97.49,20.78,6.427,2.257,175.6,44.08,12.72,4.727,hard
1533,275.3,57.14,17.46,1335,265.7,61.3,15.9,93.13,20.88,6.458,2.258,177,44.22,12.71,4.723,hard
1535,275.6,56.97,17.59,1335,265.7,61.39,15.98,98.44,20.95,6.562,2.25,177.2,44.26,12.94,4.773,hard
1535,277,56.06,17.6,1334,266.1,61.49,15.97,92.42,21.37,6.536,2.268,177,44.54,13.01,4.767,hard
1531,276,56.38,17.51,1327,265.1,60.95,15.85,94.66,21,6.473,2.28,177.2,44.75,12.8,4.788,hard
1526,272.7,53.99,17.49,1329,264,61.8,15.94,94.07,21.02,6.64,2.281,175.9,44.54,12.82,4.767,hard
1519,273.7,54.39,17.59,1323,264.6,61.4,15.99,93.96,21.27,6.557,2.286,178.2,44.73,12.97,4.77,hard
1516,273.2,55.16,17.66,1323,263,61.67,15.98,93.86,21.29,6.57,2.261,177.7,45.15,13.09,4.788,hard
1515,273.2,54.84,17.59,1324,263.8,60.85,16.02,95.91,21.51,6.503,2.301,176.9,45.28,13.05,4.838,hard
1517,274.8,54.12,17.6,1324,264,61.61,16.02,97.45,21.48,6.64,2.277,177.7,45.47,13.04,4.824,hard
1519,274.5,55.31,17.73,1324,264.8,61.66,16.1,97.89,21.36,6.521,2.288,177.7,45.5,13.18,4.821,hard
1521,275.9,56.19,17.69,1326,264.4,61.84,16.07,95.39,21.5,6.6,2.312,180.2,45.39,13.04,4.847,hard
1522,275.9,56.35,17.81,1329,264.7,61.26,16.05,98.6,21.37,6.647,2.315,179.3,45.35,13.11,4.816,hard
1520,274.7,55.6,17.54,1323,264.8,60.91,15.93,97.02,21.62,6.658,2.305,178,45.07,13.06,4.804,hard
1516,273.4,55.66,17.48,1329,263.9,60.91,15.92,98.37,21.66,6.63,2.313,176.7,45.06,13.07,4.774,hard
1513,273.2,54.97,17.55,1326,263.7,61.24,15.88,99.28,21.46,6.639,2.304,180.2,44.98,13.13,4.796,hard
1513,272.7,55.26,17.49,1324,263.7,61.33,15.93,96.63,21.39,6.668,2.28,178.4,45.33,13.19,4.721,hard
1512,273.5,55.19,17.58,1328,263.7,61.22,15.9,95.54,21.68,6.51,2.315,177.7,45.24,13.01,4.763,hard
1513,272.3,56.39,17.58,1321,263.9,61.01,15.93,99.41,21.42,6.735,2.307,179.3,45.73,13.17,4.775,hard
1514,274.9,55.28,17.61,1328,263.7,60.47,15.93,95.48,21.67,6.62,2.306,179.5,45.67,13.15,4.834,hard
1516,275.3,54.79,17.68,1326,264.5,61.33,15.95,95.43,21.33,6.543,2.314,179.3,45.74,13.21,4.839,hard
1517,276.1,55.55,17.62,1323,264,60.71,15.93,99.75,21.97,6.661,2.312,179.6,45.8,13.09,4.776,hard
1508,271.2,53.96,17.49,1319,262.3,60.13,15.87,98.98,21.48,6.641,2.327,177.7,45.53,13.02,4.803,hard
1505,271.6,54.92,17.43,1316,262.5,61.14,15.89,96.42,21.79,6.528,2.32,178.4,45.37,13.14,4.775,hard
1502,271.6,55.57,17.46,1320,262.7,60.52,15.86,97.13,21.72,6.641,2.304,178,45.36,12.94,4.831,hard
1504,272.2,55.34,17.48,1321,263.3,60.32,15.87,98.7,21.64,6.617,2.302,177.9,45.39,13.25,4.744,hard
1511,271.9,54.25,17.52,1318,263.2,59.58,15.84,102.2,21.73,6.503,2.29,177.4,44.88,12.99,4.788,hard
1515,272.2,55.01,17.47,1328,264.1,59.92,15.85,98.32,21.15,6.594,2.265,176.9,44.81,12.9,4.799,hard
1517,273.5,54.59,17.49,1330,264.8,60.3,15.85,97.1,21.23,6.52,2.284,178.1,44.41,12.88,4.835,hard
1520,274.3,53.38,17.61,1328,264.9,60.07,15.77,94.73,21.34,6.483,2.276,177.3,44.67,12.82,4.76,hard
1514,272.7,52.99,17.31,1322,263.1,58.91,15.72,95.38,21.08,6.45,2.271,177.4,44.48,12.61,4.757,hard
1512,272.9,53.84,17.3,1329,262.6,59.37,15.69,96.69,21.24,6.474,2.271,177.7,44.2,12.83,4.739,hard
1510,272.9,52.93,17.28,1325,263.9,59.04,15.65,92.93,20.86,6.372,2.296,175.4,43.78,12.59,4.691,hard
1511,272.1,53.51,17.26,1327,263.2,58.84,15.66,95.24,20.71,6.498,2.252,176.9,44.12,12.77,4.652,hard
1511,273,53.21,17.22,1330,263.3,58.79,15.79,95.01,20.91,6.564,2.253,176.8,44.25,12.78,4.76,hard
1512,272.1,53.84,17.32,1328,263.2,58.42,15.72,96.1,20.77,6.465,2.266,178.3,44.06,12.8,4.794,hard
1514,271.5,53.83,17.42,1329,263.8,58.36,15.77,97.83,21.04,6.367,2.26,175.2,44.41,12.74,4.765,hard
1517,273.2,53.53,17.48,1330,263.7,57.9,15.75,94.4,21.18,6.409,2.265,180.2,44.12,12.99,4.745,hard
1512,271.8,52.03,17.24,1324,262.9,57.58,15.64,97.35,20.34,6.389,2.267,177.8,44.48,12.73,4.695,hard
1507,271.5,52.39,17.18,1318,262.9,57.26,15.67,95.77,21.07,6.439,2.233,176,44.29,12.82,4.713,hard
1505,269.4,52.08,17.23,1321,261.8,57.09,15.65,95.41,20.86,6.392,2.24,177.2,44.41,12.81,4.689,hard
1501,268.4,51.23,17.22,1321,262.2,57.05,15.69,96.52,20.87,6.466,2.252,178.2,44.56,12.75,4.746,hard
1499,269.1,51.68,17.32,1314,260.2,56.48,15.76,99.58,20.84,6.456,2.266,178.4,44.81,12.74,4.732,hard
1489,266.7,50.56,17.38,1304,258,55.65,15.86,98.62,21.06,6.427,2.239,180.5,45,12.71,4.733,hard
1471,267,53.31,18.42,1319,262.8,59.04,17.32,102.1,21.34,6.542,2.208,181.5,45.05,12.82,4.742,hard
1470,283.1,57.97,20.27,1326,271.3,60.5,18.15,104.2,21.89,6.49,2.253,183,45.79,12.99,4.793,hard
1404,283,59.91,20.37,1299,269.5,59.4,18.14,99.88,21.77,6.563,2.225,182.3,46.7,13.07,4.755,hard
1347,279.7,58.77,20.58,1282,269.8,60.27,18.41,100.5,22.15,6.552,2.26,182.9,47.32,13.29,4.75,hard
1321,282.7,61.77,21.15,1268,274.2,61.89,18.97,101.6,22.01,6.608,2.227,183.6,47.37,13.1,4.739,hard
1309,291.5,63.38,21.54,1262,276.9,63.16,19.06,100.4,22.46,6.533,2.249,183.4,47.46,13.35,4.797,hard
1305,293,65.02,21.8,1253,277.6,63.98,19.36,97.7,22.48,6.716,2.243,182.5,48.34,13.32,4.789,hard
1310,301.4,68.46,22.74,1259,284.5,67.72,19.89,99.09,22.54,6.697,2.245,182.9,48.9,13.58,4.887,hard
1335,311.6,69.6,23.12,1271,287.8,68.12,19.96,97.84,22.53,6.79,2.279,184.1,48.77,13.82,4.956,hard
1356,314.8,70.8,23.41,1279,291,69.02,20.06,97.14,22.57,6.883,2.299,183.4,48.92,13.86,4.95,hard
1338,309.2,68.67,22.8,1264,284.7,67.28,19.71,95.45,22.41,6.825,2.28,182.8,48.37,13.58,4.958,hard
1307,302.4,67.1,22.48,1261,285.2,67.3,19.62,97.95,22.49,6.701,2.296,180,48.11,13.36,4.856,hard
1315,304,68.87,22.39,1266,286.4,67.81,19.64,95.92,22.38,6.657,2.275,180.1,47.53,13.34,4.924,hard
1327,305.5,69.78,22.36,1275,286.9,68.04,19.66,93.11,22.13,6.664,2.279,178.1,47.81,13.32,4.925,hard
1331,305.6,68.12,22.39,1279,288.6,68.15,19.73,91.63,22,6.705,2.276,176.8,47.34,13.3,4.879,hard
1343,307.7,69.29,22.53,1281,289.4,68.28,19.82,85.22,21.66,6.597,2.284,178.1,47.19,13.38,4.889,hard
1353,309.3,69.53,22.72,1287,291.7,69.12,20,89.38,21.64,6.659,2.245,178.5,47.13,13.39,4.871,hard
1364,313.5,71.01,22.71,1283,291.3,69.18,19.98,89.51,21.99,6.611,2.249,176.6,47.43,13.27,4.939,hard
1342,304.1,67.36,22.18,1269,284.6,66.32,19.61,86.03,21.83,6.543,2.246,176.8,46.96,13.3,4.841,hard
1320,298.9,67.07,21.94,1269,284.3,66.34,19.51,88.09,21.45,6.561,2.241,176.9,46.84,13.09,4.837,hard
1321,298.2,66.55,21.84,1265,282.4,66.31,19.39,88.22,21.78,6.549,2.235,176,46.47,13.15,4.913,hard
1327,297.9,64.24,21.7,1269,279.7,64.19,18.8,86.72,21.8,6.46,2.245,175.3,46.38,13.11,4.786,hard
1357,286.6,60.15,20.5,1304,270.7,60.13,18.04,87.36,21.43,6.53,2.22,174.5,45.49,12.77,4.794,hard
1437,282.6,57.74,19.88,1326,267.7,58.24,17.22,89.19,21.48,6.349,2.195,173.5,45.51,12.76,4.704,hard
1512,282.1,55.66,18.92,1344,269,56.83,16.68,90.57,21.47,6.346,2.188,174.2,45.86,12.79,4.584,hard
1540,282.8,55.56,18.33,1346,268.9,56.63,16.45,94.54,21.37,6.431,2.199,173.7,45.76,12.74,4.728,hard
1551,283.9,56.17,18.05,1343,268.8,57.47,16.1,97.71,21.98,6.529,2.251,177,46.26,13.24,4.804,hard
1539,277.6,54.49,17.63,1334,266.4,57.71,16.14,98.16,21.95,6.538,2.29,178.8,45.72,13.06,4.822,hard
1533,278.4,54.72,17.63,1333,267.3,58.03,16.19,100.4,21.19,6.531,2.259,176.1,44.5,13.02,4.824,hard
1537,279.5,54.61,17.89,1339,269,58.77,16.3,96.52,20.92,6.47,2.257,176.4,43.7,12.9,4.774,hard
1539,282.4,55.28,18.04,1341,269.3,59.99,16.35,98.39,20.78,6.381,2.241,174.2,43.4,12.73,4.725,hard
1540,281.4,56.22,18.04,1335,268.9,59.96,16.42,99.9,20.43,6.425,2.236,172.5,43.12,12.68,4.768,hard
1542,283.3,56.24,18.21,1342,271.1,59.84,16.54,92.59,20.38,6.316,2.218,173.6,42.78,12.72,4.746,hard
1551,287.6,58.29,18.63,1347,272.8,61.82,16.68,97.52,20.04,6.313,2.221,172.2,43.22,12.65,4.759,hard
1561,290.9,57.8,18.48,1343,270,59.67,16.3,97.47,20.66,6.289,2.217,173.8,42.58,12.57,4.699,hard
1541,281.1,54.88,17.85,1340,267.9,58.58,16.07,92.69,20.62,6.264,2.207,170.6,42.47,12.33,4.646,hard
1538,279.5,56.68,17.79,1340,267.5,58.11,16.11,96.6,20.1,6.15,2.195,173.6,42.78,12.53,4.599,hard
1536,280,55.68,17.84,1344,267,58.43,16.07,102.7,20.12,6.175,2.198,173.4,42.97,12.4,4.572,hard
1536,281,56.22,17.74,1338,266.7,58.57,16.07,99.27,20.33,6.212,2.176,174.5,42.76,12.31,4.6,hard
1536,279.8,56.31,17.73,1339,266.7,57.91,16,97.65,20.24,6.272,2.184,175.5,43.61,12.43,4.629,hard
1542,281.5,56.72,17.64,1338,268.5,57.83,15.98,96.21,20.64,6.265,2.204,174.3,43.24,12.74,4.659,hard
1556,285.1,56.88,17.84,1343,269.8,59.6,16.19,94.48,20.57,6.351,2.207,174.6,43.34,12.76,4.76,hard
1562,283.5,57,17.66,1354,269.7,57.86,16.11,94.98,20.58,6.362,2.243,174.2,42.95,12.58,4.717,hard
1546,279.1,53.22,17.35,1341,268.1,58.04,16.01,88.94,20.66,6.316,2.252,173.8,42.76,12.48,4.655,hard
1540,279.5,53.02,17.29,1342,266.9,57.89,16.02,89.78,20.36,6.248,2.223,172.3,42.65,12.24,4.68,hard
1536,277.5,53.29,17.36,1339,266.6,58.4,16.02,87.6,20.24,6.304,2.219,171.5,42.36,12.4,4.661,hard
1534,278.5,54.04,17.25,1341,266.7,58.13,15.98,90.15,20.4,6.377,2.231,173.3,42.44,12.44,4.651,hard
1530,277.5,54.13,17.24,1336,265.5,58.63,16,91.02,20.31,6.251,2.217,173.1,42.55,12.36,4.665,hard
1529,277,55.08,17.39,1334,264.2,57.96,16.09,87.96,20.29,6.285,2.201,172.8,42.39,12.33,4.654,hard
1513,275,54.9,18.06,1305,261,59.8,17,87.57,20.46,6.399,2.177,176.5,44.46,12.91,4.767,hard
1440,270.4,57.98,18.63,1289,257.5,60.35,17.12,96.34,21.54,6.674,2.28,180.4,45.02,13.13,4.743,hard
1403,269.3,58.6,18.68,1275,257,59.54,16.97,98.97,21.02,6.844,2.297,180.1,44.76,13.02,4.768,hard
1391,266.6,56.26,18.56,1279,254.8,60.27,16.85,98.43,21.31,6.6,2.245,180.5,44.84,12.98,4.687,hard
1400,267.3,58.4,18.51,1279,255.3,60.44,16.81,97.37,21.31,6.721,2.259,179.6,44.81,12.94,4.712,hard
1403,267.1,56.5,18.45,1277,255.5,59.41,16.7,96.11,20.98,6.525,2.272,176.9,44.56,12.88,4.706,hard
1412,268.9,57.24,18.48,1278,255.9,59.72,16.69,97.56,21.41,6.63,2.261,176.6,45.22,13.16,4.673,hard
1420,269.9,57.37,18.57,1286,257,59.21,16.65,97.42,21.53,6.649,2.243,176.3,45.56,13,4.824,hard
1435,272.5,55.56,18.33,1285,253.6,58.45,16.3,95.38,21.75,6.51,2.267,176.5,45.4,13.03,4.695,hard
1415,261.5,55.75,17.54,1277,251.4,57.68,16.15,94.47,21.89,6.47,2.235,174.5,45.29,12.85,4.694,hard
1411,261.5,54.92,17.45,1275,251,56.91,16.02,102.2,21.54,6.483,2.256,173.8,45.31,12.8,4.64,hard
1415,260.8,54.49,17.49,1280,251.6,56.97,15.99,90.85,21.52,6.537,2.229,172.9,45.65,12.69,4.754,hard
1418,261.1,54.03,17.38,1276,251.1,57.19,15.93,101.8,22.19,6.537,2.241,173,45.72,12.92,4.667,hard
1421,261.5,54.63,17.4,1279,250.5,56.59,15.92,97.75,21.74,6.503,2.244,173.2,45.95,12.97,4.71,hard
1427,262.4,54.33,17.58,1279,251.7,57.51,16,95.26,22.17,6.49,2.258,173.1,45.74,12.92,4.687,hard
1433,264.3,55.94,17.63,1282,252.5,57.33,15.99,96.69,22.15,6.572,2.23,172.9,45.87,12.98,4.692,hard
1430,261.9,52.97,17.14,1278,249.5,55.7,15.72,97.62,21.88,6.482,2.244,174,45.73,12.73,4.64,hard
1419,258,52.79,17.03,1273,249.5,56.18,15.64,98.4,21.68,6.524,2.206,172.8,45.53,12.5,4.634,hard
1421,259.9,53.51,16.94,1273,249.9,56.57,15.67,98.34,21.95,6.456,2.202,172.2,44.95,12.61,4.605,hard
1424,259.5,51.66,17,1274,249.5,56.52,15.63,94.97,21.86,6.326,2.236,172.3,44.2,12.55,4.611,hard
1425,260.2,52.84,17.05,1277,250.2,55.88,15.59,95.5,21.54,6.443,2.225,172.1,44.42,12.56,4.609,hard
1429,259.8,52.63,17.08,1277,250.5,56.21,15.62,95.77,21.48,6.409,2.2,171.3,44.53,12.55,4.644,hard
1437,263.4,53.33,17.12,1284,251.7,56.46,15.6,97.53,21.49,6.406,2.223,171.5,44,12.64,4.664,hard
1445,264.7,53.15,17.19,1283,252,55.9,15.42,94.88,21.2,6.425,2.223,171.6,43.73,12.45,4.574,hard
1437,260.7,52.6,16.7,1281,250.9,54.81,15.37,98.15,21.47,6.318,2.207,170.7,43.37,12.2,4.484,hard
1438,259.7,52.1,16.61,1281,250.8,55.34,15.34,95.62,21.22,6.338,2.2,170,42.57,12.31,4.525,hard
1441,259.4,53.08,16.69,1285,251.5,55.04,15.35,93.13,20.61,6.313,2.199,170.3,42.97,12.33,4.499,hard
1445,261.4,52.74,16.67,1276,251.9,55.1,15.23,93.47,20.86,6.241,2.208,170.5,42.55,12.28,4.554,hard
1446,261.3,51.41,16.68,1281,251.8,55.07,15.29,96.83,20.89,6.231,2.19,170.5,42.48,12.11,4.561,hard
1450,261.8,51.86,16.75,1287,251.9,55.36,15.27,93.61,20.67,6.363,2.172,170.2,42.65,12.16,4.551,hard
1456,264.4,51.89,16.93,1285,252.4,55.25,15.21,90.07,20.72,6.287,2.196,171.4,42.94,12.33,4.527,hard
1453,262.4,50.73,16.51,1281,250.8,55.04,15.09,96.39,20.44,6.327,2.189,169.4,42.32,12.03,4.454,hard
1450,261.7,51.27,16.41,1283,251.2,54.59,15.08,93.84,20.66,6.367,2.178,170,42.31,12.07,4.475,hard
1450,260.6,51.37,16.39,1280,251.4,53.63,15.04,96.05,20.6,6.287,2.207,169.2,42.09,11.96,4.454,hard
1453,261.1,52.19,16.39,1288,251.3,54.73,15.02,93.41,20.18,6.3,2.197,169.4,41.93,12.06,4.475,hard
1453,262.6,51.82,16.46,1284,252.1,53.63,15.04,93.77,20.36,6.214,2.178,168.8,41.94,12.04,4.46,hard
1457,262.5,51.62,16.49,1286,252.1,54.17,15.07,97.57,20.76,6.108,2.174,168.1,42.24,12.05,4.467,hard
1462,263.6,51.78,16.57,1288,253.3,54.25,15.09,95.16,20.52,6.305,2.188,169.6,41.98,11.96,4.476,hard
1465,263.3,52.18,16.44,1287,252.6,53.89,14.94,95.62,20.61,6.364,2.188,169.8,41.84,11.87,4.435,hard
1455,260.4,50.31,16.36,1281,251.2,54.34,14.93,92.3,20.61,6.216,2.19,168.9,41.7,11.79,4.393,hard
1454,261,51.09,16.35,1282,251.1,53.82,14.91,96.96,20.34,6.256,2.16,167.9,41.53,11.72,4.384,hard
1456,260.2,50.72,16.29,1280,251.1,53.41,15,94.96,20.16,6.253,2.189,167.8,40.94,11.84,4.406,hard
1454,260.9,49.97,16.32,1284,251.5,54.44,14.89,92.57,20.75,6.269,2.195,168,41.73,11.88,4.41,hard
1457,261.9,50.62,16.35,1287,250.4,54.5,14.91,96.51,21.14,6.215,2.176,168.9,41.6,11.96,4.432,hard
1459,263.6,51.91,16.44,1285,251.8,53.82,14.94,94,20.33,6.204,2.161,168.1,41.57,11.85,4.462,hard
1463,263.8,51.68,16.48,1284,252.7,54.32,14.93,91.65,20.85,6.222,2.195,168.5,41.39,11.93,4.441,hard
1457,263,50.7,16.17,1283,251.5,53.78,14.86,97.54,20.33,6.261,2.199,166.4,41.02,11.86,4.347,hard
1453,261.4,51.75,16.14,1281,251.3,54.51,14.85,92.53,20.28,6.228,2.178,167.1,41.09,11.76,4.399,hard
1453,261.3,50.92,16.23,1283,251.7,53.94,14.87,92.34,20.71,6.193,2.186,166.9,41.07,11.76,4.35,hard
1453,259.8,51.31,16.19,1286,251.4,54.01,14.85,96.64,20.1,6.193,2.191,166.7,40.73,11.67,4.379,hard
1454,261.6,51.75,16.27,1281,251.6,54.09,14.85,97.55,20.41,6.269,2.19,167.3,41.15,11.81,4.385,hard
1456,262.3,51.11,16.22,1283,251.5,54.27,14.87,92.74,20.29,6.273,2.204,167.7,41.41,11.84,4.433,hard
1460,261.9,52.68,16.31,1289,253,54.84,14.78,95.67,20.86,6.352,2.204,167.3,41.39,11.82,4.392,hard
1462,264.3,51.66,16.19,1284,252.1,54.27,14.69,91.46,20.56,6.32,2.23,166.5,40.95,11.85,4.418,hard
1455,261.2,51.35,16.06,1291,251.7,55.24,14.76,92.07,20.43,6.284,2.203,167.3,40.59,11.79,4.395,hard
1455,260.5,50.57,16.06,1290,251.4,54.45,14.81,90.82,20.31,6.299,2.209,165.9,40.67,11.75,4.417,hard
1455,261.6,51.22,16.05,1280,251.9,54.7,14.82,91.66,20.63,6.274,2.209,166.3,40.73,11.77,4.389,hard
1456,262.2,51.28,16.08,1289,252,55.24,14.78,95.45,20.34,6.236,2.221,165.9,40.95,11.77,4.347,hard
1454,261.3,51.84,16.09,1286,251.1,53.92,14.92,95.88,20.64,6.301,2.206,167.5,41.12,11.77,4.352,hard
1438,258.9,51.54,16.43,1273,249.1,54.44,15.19,95.62,20.74,6.267,2.183,168,42.44,12.1,4.444,hard
1432,258.4,53.35,16.66,1269,249.3,54.06,15.16,98.52,21.05,6.435,2.213,170,43.22,12.33,4.485,hard
1434,258.2,50.63,16.43,1270,249.2,53.88,15.01,96.42,21.47,6.43,2.236,168.4,43.4,12.17,4.502,hard
1437,258.1,51.5,16.36,1279,250,53.66,14.99,97.19,21.58,6.436,2.214,169.4,42.86,12.18,4.48,hard
1441,259.3,50.56,16.35,1277,249.9,53.67,15.02,92.87,21.6,6.451,2.23,169.6,42.84,12.16,4.468,hard
1442,258.1,50.2,16.33,1275,250.3,53.09,14.94,97.43,21.18,6.394,2.226,170.4,42.46,12.11,4.458,hard
1442,256.7,50.05,16.31,1278,249.3,53.56,14.89,95.83,20.84,6.428,2.213,168.4,41.96,12.15,4.442,hard
1445,259.2,50.54,16.38,1279,250.5,53.55,14.89,98.06,21.1,6.36,2.241,170.4,42.69,12.05,4.431,hard
1448,259.1,50.27,16.4,1279,250.6,53.83,14.94,95.26,20.83,6.386,2.232,170.5,42.39,12.26,4.52,hard
1449,259.9,51.99,16.22,1277,250.3,53.1,14.85,96.33,21.17,6.447,2.257,169.3,41.91,11.93,4.489,hard
1440,258.4,50.47,16.14,1278,249.5,53.21,14.83,98.29,20.89,6.388,2.237,169.5,42.2,11.98,4.431,hard
1441,258.1,50.04,16.13,1277,249.4,53.01,14.79,98.84,21.12,6.44,2.219,168.4,41.85,12.02,4.446,hard
1443,257.7,51.03,16.18,1277,249.4,52.58,14.82,96.18,20.85,6.305,2.205,168.1,42.39,12.1,4.459,hard
1443,257.5,50.83,16.11,1277,249.5,52.84,14.82,101,20.85,6.41,2.26,170.7,41.94,11.94,4.473,hard
1444,257.6,49.41,16.13,1278,250.6,53,14.82,93.14,20.85,6.385,2.247,171,42.14,11.92,4.365,hard
1447,259.1,50.55,16.28,1282,250.3,52.56,14.89,98.57,20.82,6.473,2.246,169.7,42.38,12.21,4.497,hard
1449,259.6,49.45,16.39,1281,250.6,52.96,14.86,95.62,21.01,6.439,2.222,171.2,42.1,12.03,4.46,hard
1447,258.3,49.81,16.17,1278,249.3,52.67,14.77,94.98,21.2,6.429,2.261,169.1,41.82,12.06,4.456,hard
1442,258.2,49.2,16.07,1278,249.8,52.77,14.82,96.53,20.93,6.358,2.21,168,41.8,11.89,4.444,hard
1442,257.2,50.32,16.19,1282,249.7,52.79,14.88,98.15,20.94,6.397,2.234,167.5,42.14,11.83,4.335,hard
1445,257.8,49.53,16.24,1279,249.7,53.47,14.92,96.29,21.11,6.264,2.202,171,42.14,11.91,4.383,hard
1446,258.1,49.76,16.24,1285,249.9,53.13,14.92,97.78,20.82,6.35,2.198,170.2,42.44,11.86,4.424,hard
1447,258.8,50,16.33,1285,249.1,52.46,14.96,98.2,20.67,6.303,2.198,169.9,42.28,11.94,4.268,hard
1447,259.6,50.65,16.39,1282,248.6,52.57,14.97,96.23,21.1,6.265,2.158,170.2,43.03,11.81,4.319,hard
1448,260.4,50.91,16.36,1271,248.2,52.03,14.9,97.98,21.12,6.31,2.16,168.5,42.83,11.95,4.289,hard
1435,255.6,50.19,16.17,1264,246.3,52.2,14.85,96.27,21.46,6.316,2.191,170,43.26,11.85,4.326,hard
1428,254,51.22,16.27,1264,246.4,52.94,15.04,98.24,21.53,6.333,2.201,170.1,43.01,12.12,4.439,hard
1428,256.7,51.5,16.52,1266,247.6,53.09,15.27,97.46,20.94,6.452,2.214,165.8,41.25,11.85,4.387,hard
1428,256.7,51.26,16.78,1269,250,53.79,15.51,98.39,20.24,6.385,2.214,161.9,39.96,11.91,4.441,hard
1434,260,52.12,17.08,1273,252.5,55.17,15.63,100.3,19.93,6.447,2.203,161,38.95,11.84,4.422,hard
1437,261.8,52.45,17.19,1278,253.2,54.73,15.74,91.46,19.38,6.295,2.202,159.1,38.53,11.63,4.388,hard
1443,262.9,52.72,17.24,1284,254.6,55.4,15.74,93.94,19,6.178,2.176,157.7,38.06,11.64,4.379,hard
1443,262.2,51.9,17.05,1276,253.1,55.54,15.58,93.42,19.37,6.23,2.181,158.3,38,11.45,4.248,hard
1434,260.2,52.72,16.9,1273,252.1,53.77,15.41,91.88,19.11,6.138,2.169,156.8,37.67,11.43,4.286,hard
1433,259.6,51.08,16.52,1273,248.8,52.32,14.83,93.02,18.75,6.138,2.155,155.5,37.06,11.26,4.197,hard
1433,254.8,50.31,15.87,1275,248.4,51.7,14.49,94.56,18.7,6.04,2.149,159.4,37.57,11.2,4.223,hard
1445,257.7,49.12,15.59,1276,250.8,51.18,14.5,87.79,19.44,6.094,2.143,160,38.42,11.19,4.244,hard
1452,257.2,48.89,15.63,1282,250.7,51.23,14.62,86.43,19.75,6.229,2.202,164.3,38.89,11.37,4.325,hard
1453,259.4,48.1,15.86,1285,250.1,50.96,14.68,86.72,19.6,6.321,2.212,163.4,39.36,11.33,4.256,hard
1453,258.7,47.28,16.02,1275,250.5,51.73,14.67,88.63,19.98,6.21,2.226,165.2,39.25,11.51,4.312,hard
1442,257.1,47.26,15.84,1276,249.5,50.64,14.72,88.78,19.24,6.195,2.184,163.4,39.27,11.37,4.255,hard
1442,257.7,47.55,15.89,1278,249.4,51.78,14.79,86.47,19.7,6.223,2.213,165,39.15,11.31,4.294,hard
1443,256.5,48.29,16.04,1275,249.3,51.92,14.89,87.13,19.77,6.163,2.217,163.3,39.27,11.49,4.198,hard
1437,257.3,48.55,16.11,1268,246.7,52.15,15.06,90.99,20.43,6.237,2.16,165.7,40.67,11.8,4.292,hard
1406,253.7,49.6,16.6,1257,245.1,53.29,15.33,92.39,21.13,6.636,2.236,171.9,42.29,11.97,4.392,hard
1399,252.3,50.64,16.72,1259,245,53.4,15.32,98.89,21.48,6.53,2.241,172,42.71,12.16,4.349,hard
1411,254.7,50.94,16.87,1261,247.1,53.49,15.39,96.34,21.04,6.475,2.223,170.6,42.87,12.19,4.391,hard
1412,254.1,51.65,16.6,1263,246.1,53.35,15.3,99.29,21.74,6.542,2.232,169.1,43.41,12.11,4.373,hard
1410,252.3,50.76,16.5,1267,245.8,53.37,15.24,94.83,22.09,6.582,2.278,169.1,44.25,12.39,4.392,hard
1409,251.9,51.26,16.5,1262,246,53.28,15.29,96.68,22.12,6.586,2.265,171.1,43.99,12.32,4.477,hard
1410,251.4,50.84,16.51,1264,245.9,53.07,15.23,96.22,22.28,6.667,2.276,169.8,44.21,12.27,4.415,hard
1409,252.5,51.15,16.53,1265,246.4,53.5,15.3,96.55,22.27,6.564,2.262,170.7,44.98,12.33,4.39,hard
1412,253.3,49.88,16.54,1265,246.5,52.76,15.3,99.07,22.54,6.581,2.286,169.4,44.32,12.37,4.454,hard
1415,253.8,50.21,16.63,1267,247.2,53.57,15.32,94.03,22.42,6.57,2.288,169.4,44.42,12.38,4.446,hard
1420,254.8,50.63,16.62,1269,246.7,53.71,15.13,96.29,22.04,6.654,2.315,169.3,44.5,12.48,4.422,hard
1411,251.3,49.18,16.3,1260,245.5,52.69,15.05,100.1,22.33,6.652,2.284,168.5,43.78,12.22,4.389,hard
1403,251.3,48.81,16.16,1261,244.8,51.99,14.99,96.86,22.02,6.518,2.251,167.6,44.07,12.2,4.351,hard
1405,249.2,49.69,16.18,1261,245.6,52.23,15.2,102.1,22.39,6.648,2.276,167.4,43.58,12.39,4.414,hard
1402,249.8,49.41,16.35,1256,245,51.08,15.27,99.5,22.27,6.701,2.276,168.5,43.65,12.27,4.44,hard
1399,250,50.37,16.28,1258,245.4,52.04,15.24,96.97,22.49,6.706,2.299,170,43.78,12.22,4.381,hard
1402,249.5,50.37,16.33,1264,245.8,51.81,15.2,100.5,22.16,6.644,2.282,168,44,12.29,4.443,hard
1406,252.7,48.8,16.35,1261,247.2,52.11,15.19,96.94,22.13,6.63,2.273,168.2,44.51,12.33,4.514,hard
1413,251.5,48.47,16.38,1268,247.5,52.39,15.17,97.44,22.85,6.718,2.327,169.3,44.29,12.51,4.453,hard
1407,250.1,49.41,15.98,1264,246.3,51.82,15.05,97.03,22.39,6.777,2.291,166.7,43.7,12.3,4.405,hard
1399,249.6,47.73,15.91,1258,245,51.44,14.99,102,22.29,6.637,2.279,166.6,43.28,12.15,4.44,hard
1397,248.2,47.31,15.93,1262,245.6,52.2,14.98,99.9,22.24,6.588,2.289,166.4,43.19,12.19,4.367,hard
1396,249.4,48.89,15.89,1266,245.4,52.36,14.98,98.57,22.36,6.637,2.27,165.8,43.01,12.04,4.365,hard
1394,248.7,47.12,15.82,1257,245.6,52.18,15.06,99,22.16,6.624,2.277,165.9,43.24,12.08,4.374,hard
1394,250.2,47.93,15.94,1261,246.8,52.3,15.15,95.79,22.09,6.546,2.28,166.1,43.1,12.19,4.387,hard
1396,248.8,48.61,15.98,1261,246.2,52.68,15.12,97.83,21.9,6.689,2.304,166.4,43.05,12.2,4.363,hard
1397,250.6,48.8,16.08,1264,247,52.52,15.09,94.26,21.91,6.736,2.283,167.4,42.95,12.1,4.423,hard
1396,249,49.13,15.79,1264,246.4,51.78,15,96.2,22.51,6.621,2.297,165.4,42.92,12.14,4.353,hard
1388,246.1,47.42,15.63,1265,245.4,52.04,14.97,94.76,22.1,6.576,2.263,163.9,42.74,12.01,4.339,hard
1386,248.1,47.42,15.65,1262,246,51.98,14.92,95.06,21.74,6.571,2.302,164.3,42.5,11.93,4.346,hard
1389,245.6,48.57,15.58,1262,246.3,51.44,14.86,94.21,21.77,6.569,2.273,164.5,41.83,11.8,4.341,hard
1396,246.7,47.38,15.44,1270,247.7,51.98,14.91,95.95,21.5,6.528,2.263,162.5,41.2,11.59,4.316,hard
1405,250.4,46.93,15.51,1272,248.4,51.9,14.88,94.84,21.46,6.39,2.253,162.5,40.57,11.49,4.317,hard
1408,251.6,46.54,15.6,1278,249,51.75,14.93,94.8,20.82,6.42,2.252,163.2,40.05,11.46,4.279,hard
1413,253.6,47.75,15.67,1274,250.4,52.12,14.92,91.46,21.06,6.462,2.28,164.6,40.18,11.57,4.3,hard
1412,252.9,47.75,15.43,1273,249.5,52.43,14.78,94.26,21.05,6.443,2.229,162.6,39.3,11.33,4.207,hard
1403,248.8,47.74,15.36,1269,248.2,51.95,14.83,93.27,20.62,6.388,2.236,160.9,39.58,11.39,4.244,hard
1401,249.3,45.48,15.4,1279,248.6,51.87,14.8,91.76,20.82,6.437,2.244,163.1,39.5,11.34,4.205,hard
1404,250.6,48.33,15.38,1276,249.3,51.8,14.82,98.47,21.06,6.285,2.263,161,39.44,11.25,4.283,hard
1402,250.9,48.07,15.45,1278,249.8,51.71,14.93,94.46,20.95,6.371,2.234,162.4,39.66,11.41,4.197,hard
1407,250.4,48.61,15.64,1272,248.7,52.86,15.13,93.03,20.93,6.299,2.22,162.3,40.36,11.44,4.197,hard
1400,249.9,48.94,16.05,1266,248,53.67,15.3,98.9,21.46,6.598,2.219,164.1,41.46,11.9,4.34,hard
1393,250.2,49.63,16.24,1264,248,53.04,15.3,98.59,21.54,6.622,2.24,166.9,42.01,11.91,4.354,hard
1387,248.5,47.65,15.89,1264,246.8,53.27,15.3,96.41,21.7,6.52,2.243,164.3,41.95,11.84,4.299,hard
1384,247.7,49.01,16,1258,246.5,53.83,15.27,97.92,21.74,6.57,2.277,165.3,42.19,12.07,4.299,hard
1387,248.9,48.22,16.12,1263,247.1,53.21,15.36,96.37,22.07,6.6,2.252,164.7,42.72,11.93,4.346,hard
1390,249.8,49.27,16.14,1268,248,53.82,15.41,97.45,21.85,6.507,2.272,163.7,42.71,11.93,4.375,hard
1391,249.2,48.78,16.18,1268,248.1,53.46,15.37,100.9,22.08,6.681,2.249,165.6,42.46,12.25,4.355,hard
1396,251.7,49.24,16.27,1270,249.7,54.5,15.47,97.28,22.37,6.623,2.289,165.4,43.07,12.06,4.438,hard
1405,253.5,49.83,16.38,1276,250.3,54.08,15.52,97.73,22.95,6.677,2.294,165.8,43.36,12.32,4.427,hard
1409,253.5,50.88,16.19,1275,249.6,53.54,15.36,98.91,23.04,6.611,2.297,166.4,43.6,12.14,4.461,hard
1401,251.9,49.19,16.12,1275,249.4,54.27,15.36,97.02,22.02,6.572,2.289,163.6,43.32,12.01,4.369,hard
1403,251.8,48.64,16.06,1273,249,53.68,15.35,101.3,22.37,6.617,2.278,164.4,42.73,12.03,4.386,hard
1406,252.5,49.95,16.19,1275,250.3,54.18,15.42,94.17,22.3,6.61,2.285,165.8,42.9,11.89,4.366,hard
1408,251.7,49.44,16.25,1279,250.3,54.52,15.41,96.04,22.51,6.639,2.241,165.9,42.69,12.01,4.399,hard
1412,253,49.97,16.27,1280,250.5,55.37,15.45,98.23,22.3,6.515,2.287,166.6,42.33,12.13,4.413,hard
1417,253.6,50.31,16.39,1283,251.5,54.65,15.56,100.5,22.05,6.691,2.262,165.9,42.76,12.13,4.422,hard
1422,256.5,49.81,16.44,1285,252,54.59,15.51,100.8,21.96,6.624,2.3,166.1,42.81,12.13,4.414,hard
1421,255.1,49.82,16.2,1284,251.3,54.75,15.45,100.8,22.54,6.583,2.276,163.5,42.61,12.01,4.402,hard
1418,253.5,50.03,16.21,1285,250.8,54.34,15.47,97.76,21.97,6.536,2.298,164,42.42,11.97,4.326,hard
1420,254.7,51.01,16.26,1278,252,54.67,15.52,97.43,22.2,6.574,2.284,164.3,42.58,11.91,4.375,hard
1421,254.2,51.71,16.31,1285,251.2,53.95,15.52,100.3,21.98,6.649,2.263,165.5,42.14,11.78,4.39,hard
1422,256,50.81,16.41,1289,251.9,53.72,15.51,102.4,21.89,6.619,2.296,165.7,42.43,12.02,4.444,hard
1427,256.9,50.17,16.44,1290,251.1,54.86,15.57,96.84,22.23,6.586,2.283,166.4,42.58,12.14,4.504,hard
1431,255.4,51.49,16.56,1291,253,54.04,15.63,100.9,21.95,6.509,2.283,166.3,42.41,12.18,4.443,hard
1435,258.7,50.84,16.59,1292,252.9,53.74,15.62,101.2,22.58,6.712,2.313,166.5,42.9,12.17,4.464,hard
1431,256.2,51.62,16.4,1289,251.6,54.15,15.48,99.83,22.17,6.626,2.284,165.7,42.44,12.06,4.382,hard
1432,255.3,50.66,16.42,1292,252,54.07,15.57,102.3,22.21,6.637,2.294,165.5,42.34,12.06,4.404,hard
1436,255.5,50.38,16.5,1293,252.2,54.4,15.54,94.89,22.08,6.585,2.313,165.6,42.43,11.97,4.408,hard
1440,256.6,50.84,16.56,1296,252.3,54.61,15.52,101.1,21.92,6.679,2.295,165.3,42.6,12.03,4.448,hard
1443,257.2,50.51,16.51,1293,252.5,53.8,15.51,99.49,22.08,6.717,2.321,165.8,42.82,11.97,4.419,hard
1444,258.2,50.5,16.6,1295,253.5,54.24,15.61,98.45,22.23,6.611,2.289,166.3,42.93,12.08,4.425,hard
1450,259.8,51.21,16.71,1298,254.1,54.81,15.68,100.6,22.12,6.634,2.308,167.2,43.19,12.08,4.441,hard
1450,258.2,52.47,16.58,1299,253.6,54.52,15.55,99.18,22.02,6.778,2.326,167.1,42.81,12.12,4.446,hard
1447,259,50.93,16.56,1295,253.2,54.21,15.55,96.32,22.01,6.573,2.299,166.5,42.68,11.99,4.422,hard
1448,257.9,51.54,16.51,1298,252.9,54.13,15.56,98.09,22.01,6.673,2.299,167.4,43.1,12.07,4.408,hard
1451,258.6,50.91,16.61,1297,253.4,54.26,15.54,100.5,22.23,6.593,2.303,166.5,43.26,12.06,4.436,hard
1452,260.1,52.2,16.58,1287,253.9,55.09,15.49,98.18,21.96,6.504,2.305,166.2,42.85,12.04,4.398,hard
1455,259.7,52.28,16.59,1299,253.8,54.17,15.55,98.9,22.46,6.769,2.314,168,43.36,12.16,4.501,hard
1457,261.2,50.43,16.7,1300,254.9,54.82,15.58,101.8,22.21,6.745,2.319,167.7,43.23,12.3,4.461,hard
1462,262,51.3,16.74,1303,254.6,54.95,15.56,97.28,22.16,6.614,2.321,168.5,43.12,12.08,4.466,hard
1457,259.2,50.06,16.57,1299,254.6,54.19,15.51,97.07,22.05,6.574,2.311,166.8,42.73,11.9,4.336,hard
1458,259.8,50.48,16.56,1299,253.9,54.83,15.53,97.59,21.98,6.624,2.319,168.4,42.35,12.05,4.445,hard
1460,261.2,51.2,16.61,1302,254.3,54.2,15.54,100.1,21.91,6.56,2.328,167.1,42.51,11.97,4.401,hard
1459,260.1,51.91,16.6,1299,253.7,54.01,15.55,100.8,21.89,6.539,2.295,167.6,42.62,11.97,4.396,hard
1461,260.1,52.21,16.63,1299,254.2,54.23,15.6,100.6,21.9,6.671,2.339,167,42.88,12.11,4.47,hard
1462,260.7,51.86,16.74,1303,255.3,54.93,15.65,97.76,22.01,6.572,2.301,168.3,42.81,12.02,4.413,hard
1466,260.7,52.14,16.78,1303,254.5,54.62,15.69,97.14,21.79,6.642,2.327,167.9,42.93,12.24,4.427,hard
1469,262.3,52.87,16.7,1301,254.3,54.77,15.51,97.95,22.05,6.652,2.305,166.2,42.55,11.96,4.453,hard
1462,260.1,52.15,16.58,1300,254,54.2,15.49,99.58,22.01,6.51,2.314,166.8,42.48,11.95,4.436,hard
1460,259.7,50.25,16.59,1296,253.6,53.96,15.51,98.17,21.86,6.576,2.328,166.9,42.39,11.92,4.45,hard
1461,259.2,50.15,16.66,1299,253.6,54.2,15.49,97.34,21.83,6.629,2.287,165.9,42.27,12.02,4.387,hard
1461,258.9,51.5,16.57,1301,254,54.13,15.5,96.02,22.09,6.603,2.306,166.9,42.24,11.93,4.379,hard
1460,260.8,50.78,16.63,1303,254.3,54.17,15.58,100.9,21.76,6.56,2.356,167.2,42.22,11.85,4.414,hard
1462,261.1,52.17,16.66,1302,253.6,54.46,15.55,102,21.89,6.624,2.314,167.5,42.34,12.18,4.403,hard
1464,261.2,51.63,16.63,1300,253.6,54.22,15.59,102.1,21.88,6.679,2.301,167.2,42.3,12.06,4.462,hard
1466,262.3,50.86,16.79,1298,254.1,54.43,15.59,99.2,21.73,6.608,2.325,166.4,42.68,11.98,4.435,hard
1461,260.3,51.16,16.43,1300,253,53.95,15.47,95.13,21.72,6.614,2.314,165,41.86,12,4.36,hard
1457,259.1,51.53,16.4,1297,252.6,53.97,15.46,101.4,21.5,6.518,2.3,164.2,42.05,11.88,4.408,hard
1455,257.9,51.61,16.39,1292,252.8,53.53,15.41,95.84,21.64,6.523,2.292,165.4,41.97,11.84,4.371,hard
1455,258,50.34,16.43,1296,252.5,54.3,15.48,93.26,21.44,6.606,2.317,165.5,41.63,11.84,4.369,hard
1454,259.6,51.32,16.42,1295,252.5,54.39,15.46,100.6,21.78,6.528,2.306,162.9,41.68,11.87,4.371,hard
1454,260.1,50.94,16.45,1296,253.1,54.12,15.49,99.18,21.59,6.527,2.327,166.2,42.28,11.96,4.386,hard
1456,260.4,51.56,16.51,1298,253.3,54.76,15.46,99.29,21.86,6.679,2.316,166,41.74,11.86,4.409,hard
1459,259.2,50.93,16.55,1298,253.5,54.45,15.5,98.35,21.72,6.589,2.322,166,41.99,11.98,4.388,hard
1460,261,51.14,16.61,1294,253.3,54.65,15.43,98.17,22.25,6.677,2.366,166.1,41.69,11.78,4.344,hard
1456,258,51.21,16.35,1296,251.8,53.58,15.41,100.7,21.68,6.666,2.338,164.7,41.86,11.78,4.352,hard
1451,259.4,49.95,16.39,1291,251.8,53.55,15.35,98.09,21.42,6.604,2.319,164.7,41.55,11.75,4.401,hard
1451,257.7,50.44,16.38,1292,252.5,54.03,15.37,97.99,21.43,6.552,2.3,165.4,41.24,11.75,4.379,hard
1451,257.2,50.53,16.32,1293,252.7,53.47,15.35,100.3,21.41,6.576,2.324,165.1,41.51,11.77,4.357,hard
1452,258,50.69,16.26,1291,252.3,53.76,15.32,97.8,21.9,6.603,2.311,164.7,41.52,11.78,4.302,hard
1451,257.6,51.61,16.37,1291,252.7,54.37,15.42,98.5,21.98,6.565,2.32,166.6,41.59,11.84,4.363,hard
1454,258.9,51.33,16.47,1291,253.4,53.57,15.42,98.83,21.47,6.563,2.335,165.5,41.7,12.01,4.416,hard
1457,259.7,50.33,16.53,1296,253.4,54.24,15.44,98.12,21.75,6.588,2.324,165.8,41.93,11.82,4.418,hard
1459,261.1,50.82,16.51,1294,253.3,54.22,15.36,100.9,21.95,6.618,2.316,164.3,41.42,11.79,4.286,hard
1453,258.6,49.31,16.25,1291,252.2,54.82,15.27,97.03,21.76,6.558,2.32,163.6,41.47,11.67,4.37,hard
1449,260,49.95,16.25,1291,252.6,54.04,15.3,98.13,21.88,6.604,2.34,163.5,41.02,11.88,4.293,hard
1448,256.4,50.41,16.24,1288,252.8,53.69,15.21,98.52,21.58,6.6,2.327,164.9,41.01,11.79,4.341,hard
1447,257.6,49.48,16.16,1288,251.6,53.1,15.16,98.74,21.58,6.552,2.322,165.4,41.07,11.83,4.329,hard
1448,258.4,49.82,16.25,1296,252.9,53.5,15.24,98.08,21.57,6.617,2.316,163.8,40.63,11.63,4.318,hard
1456,258,50.59,16.21,1295,253.5,53.45,15.2,95.73,21.31,6.537,2.303,164.1,40.49,11.65,4.299,hard
1457,260.6,51.44,16.27,1295,253.6,53.43,15.21,96.38,21.35,6.659,2.357,164.4,40.38,11.78,4.339,hard
1460,260.6,50.63,16.29,1288,253.5,53.22,15.22,98.25,21.18,6.525,2.335,164.1,40.57,11.66,4.266,hard
1454,258.5,50.85,16.11,1295,252.9,53.54,15.21,98.4,21.33,6.615,2.301,163.1,40.16,11.41,4.224,hard
1446,257.3,49.95,16.2,1283,251,53.97,15.38,97.05,21.63,6.534,2.272,163.7,41.22,11.7,4.243,hard
1431,256.3,49.66,16.36,1280,249.5,54.36,15.36,100.9,21.84,6.631,2.289,165.4,41.9,11.71,4.282,hard
1432,256.3,49.82,16.42,1285,250.6,53.87,15.33,99.52,22.34,6.7,2.309,163.8,42.23,12.04,4.271,hard
1437,255.5,49.35,16.4,1292,251,54.28,15.35,100.7,22.23,6.706,2.357,164.9,42.85,12.02,4.335,hard
1444,257.9,50.81,16.42,1292,251.8,54.64,15.38,98.6,22.27,6.755,2.352,166.3,42.97,12.1,4.378,hard
1445,259.3,51.89,16.54,1291,252.7,54.11,15.45,98.14,22.39,6.77,2.357,166.8,42.45,11.86,4.366,hard
1449,261.3,51.13,16.59,1295,252.5,54.31,15.37,96.79,22.43,6.67,2.341,165.7,42.92,12.07,4.39,hard
1447,258,51.68,16.26,1294,252.6,54.43,15.3,98.3,22.14,6.756,2.334,165.9,42.54,12.03,4.374,hard
1443,257.8,49.76,16.24,1288,251.7,54.65,15.28,99.36,22,6.713,2.337,164.6,42.14,11.82,4.314,hard
1443,257.3,49.89,16.26,1290,252.1,54.5,15.27,95.63,21.97,6.758,2.357,166.5,41.99,11.79,4.323,hard
1445,256.6,51.06,16.23,1290,252,53.81,15.25,97.33,22.25,6.757,2.335,165.1,41.59,11.7,4.336,hard
1444,259,49.32,16.24,1291,253,53.97,15.17,96.68,22.15,6.723,2.343,164.7,41.4,11.89,4.305,hard
1454,262.4,51.45,16.25,1297,253.7,54.74,15.11,95.56,22,6.727,2.366,163,40.97,11.71,4.341,hard
1456,261.7,51.85,16.25,1298,253.7,55.57,15.21,96.35,21.82,6.721,2.362,163.5,41.15,11.78,4.339,hard
1461,261.8,51.63,16.33,1298,255.2,55.84,15.27,94.63,21.74,6.681,2.334,163.9,40.85,11.6,4.392,hard
1461,262,50.51,16.16,1300,254.1,54.99,15.17,93.65,21.42,6.668,2.327,162.4,40.26,11.56,4.326,hard
1454,259.2,51.08,16.03,1300,253.8,54.79,15.21,92.17,21.69,6.525,2.341,163.7,40.78,11.49,4.218,hard
1448,257.6,50.33,16.21,1294,251.6,54.22,15.36,90.47,21.89,6.592,2.266,165.9,40.99,11.74,4.296,hard
1434,257.2,52.8,16.35,1281,249.8,54.75,15.37,97.63,21.73,6.737,2.315,166,41.69,11.85,4.268,hard
1433,257.7,51.34,16.4,1281,250.2,53.92,15.3,96.1,21.98,6.783,2.33,165.7,42.38,11.94,4.317,hard
1439,257.6,50.7,16.46,1287,250.8,53.72,15.39,94.74,22.65,6.758,2.357,165.7,42.62,12.11,4.397,hard
1445,258.4,52.33,16.51,1291,251.8,54.27,15.42,99.93,22.72,6.784,2.345,168.7,42.91,12.25,4.414,hard
1450,258.9,52.4,16.62,1291,252.1,53.64,15.44,97.36,22.47,6.795,2.35,168.1,43.61,12.16,4.445,hard
1456,260.2,52.05,16.59,1292,252.2,54.32,15.32,102.3,22.46,6.781,2.338,169.1,43.66,12.08,4.37,hard
1449,257.9,51.33,16.46,1294,251.4,53.9,15.37,98.48,22.75,6.831,2.348,168.2,43.65,12.06,4.336,hard
1450,258.3,52.2,16.43,1289,251.9,54.3,15.38,96.06,22.61,6.769,2.356,168.6,43.63,12.05,4.426,hard
1453,258.3,51.97,16.55,1297,252.1,54.76,15.34,101.3,22.51,6.763,2.354,166.9,43.67,12.05,4.387,hard
1454,259.6,51.61,16.51,1296,252.2,54.28,15.37,100.7,22.42,6.838,2.337,167.9,43.37,12.03,4.388,hard
1459,260.3,51.87,16.67,1302,253.3,54.14,15.39,97.9,22.96,6.804,2.317,168.5,43.8,12.33,4.436,hard
1463,261.4,53.35,16.68,1299,252.8,54.17,15.47,102.7,22.62,6.813,2.36,169.6,43.72,12.27,4.401,hard
1465,262.1,53.05,16.76,1305,253.3,54.5,15.5,103.4,22.74,6.868,2.391,169.8,43.93,12.18,4.451,hard
1469,262.6,52.52,16.92,1304,253.8,54.37,15.48,97.69,23.05,6.72,2.367,170.1,44.03,12.28,4.472,hard
1409,248.9,47.72,15.56,1246,245.5,51.62,14.81,101.3,21.79,6.632,2.318,165.1,42.1,12.06,4.473,rest
1411,251.2,48.55,15.81,1248,246.1,51.85,14.93,100.6,21.93,6.683,2.295,165.5,42.86,12.21,4.44,rest
1416,252.3,49.04,15.68,1253,245.5,51.52,14.76,101.4,22.6,6.68,2.334,165.8,42.68,12.12,4.44,rest
1402,247.7,48.12,15.38,1247,244.9,50.84,14.75,102,22.34,6.763,2.298,165.5,42.42,11.83,4.423,rest
1401,247.2,47.63,15.44,1248,244.6,50.78,14.82,98.62,22.5,6.714,2.325,163.3,42.64,12.2,4.397,rest
1405,247.5,47.75,15.61,1251,244.5,51.59,14.79,99.2,22.41,6.699,2.326,165.6,42.91,12,4.408,rest
1406,248.7,48.57,15.54,1246,245.8,51.15,14.83,99.73,22.47,6.737,2.35,165.4,42.49,12.11,4.429,rest
1409,249.6,47.66,15.6,1250,246.1,51.15,14.81,99.65,22.39,6.714,2.346,166.5,42.62,12.08,4.435,rest
1416,251.2,48.37,15.68,1261,246.8,52.02,14.81,100.5,22.54,6.709,2.312,166.4,42.52,11.98,4.471,rest
1422,252.1,48.66,15.73,1257,247.2,51.55,14.81,101.7,22.16,6.604,2.327,166.6,42.26,12.11,4.437,rest
1429,253.3,48.46,15.88,1259,247.8,51.97,14.83,98.53,22.2,6.602,2.339,165.1,42.35,11.94,4.427,rest
1420,252.3,46.86,15.53,1262,246.6,51.05,14.76,99.51,22.37,6.657,2.292,163.8,41.72,11.95,4.38,rest
1418,250.2,46.54,15.5,1255,247.6,51.07,14.76,97.45,22.15,6.674,2.346,164.7,41.98,11.85,4.406,rest
1419,252.5,47.56,15.5,1259,247.4,51.51,14.74,100.2,21.88,6.643,2.328,164.5,42.02,11.86,4.392,rest
1416,250.6,49.63,15.35,1252,246.1,51.37,14.63,98.76,21.95,6.585,2.317,164.8,41.84,11.63,4.413,rest
1412,251.5,47.51,15.44,1254,245.6,50.98,14.71,97.4,21.88,6.619,2.321,163.8,41.33,11.8,4.425,rest
1416,250.6,48.41,15.43,1252,246.5,51.36,14.67,100.3,21.67,6.504,2.324,165.9,41.71,11.81,4.397,rest
1420,251.7,48.24,15.58,1254,247,51.24,14.76,97.69,21.75,6.586,2.318,164.6,41.41,11.79,4.418,rest
1426,253.2,48.8,15.75,1254,247.4,51.65,14.73,96.59,21.76,6.661,2.325,164.6,41.66,11.98,4.444,rest
1425,253.7,49.08,15.62,1249,246.8,51.32,14.62,96.83,21.61,6.661,2.34,166.5,41.09,11.85,4.417,rest
1412,249.2,48.06,15.32,1251,245.7,51.21,14.57,98.42,21.65,6.634,2.318,163.8,41.23,11.6,4.386,rest
1409,248.9,47.05,15.37,1246,246.3,51.67,14.53,98.56,21.49,6.623,2.329,164.8,41.2,11.78,4.37,rest
1413,250.6,47.62,15.45,1254,246.8,51.72,14.54,99.25,21.49,6.671,2.352,164.1,41.04,11.79,4.442,rest
1414,251.7,48.16,15.35,1252,246.9,51.3,14.7,100.4,21.68,6.609,2.341,163.4,40.85,11.79,4.443,rest
1415,252.7,47.68,15.44,1255,247.2,51.19,14.69,91.79,21.62,6.58,2.343,163.9,40.42,11.81,4.41,rest
1419,252,47.58,15.45,1257,247.4,51.47,14.73,88.76,21.29,6.566,2.363,163.5,40.45,11.78,4.455,rest
1421,252.1,47.55,15.5,1256,247.5,51.54,14.76,91.49,21.25,6.596,2.363,164.9,40.41,11.72,4.425,rest
1423,253.2,48.12,15.54,1257,247.5,51.3,14.75,86.61,21.04,6.561,2.358,162.6,40.65,11.7,4.365,rest
1417,252,48.32,15.37,1256,247.6,51.72,14.69,89.07,21.11,6.581,2.338,164.2,40.45,11.59,4.353,rest
1413,250.7,47.88,15.35,1255,247.1,51.68,14.73,86.59,21.27,6.518,2.365,164.6,40.26,11.6,4.335,rest
1414,251.7,47.16,15.4,1257,247.8,52.12,14.78,88.04,20.81,6.503,2.354,163.1,40.46,11.64,4.407,rest
1415,250.8,47.6,15.37,1259,247.9,52.2,14.73,85.62,21.07,6.622,2.324,163.3,40.14,11.66,4.319,rest
1415,250.4,47.4,15.42,1260,247,51.84,14.78,87.56,21.02,6.486,2.326,163.5,40.19,11.86,4.368,rest
1415,251.9,47.98,15.47,1256,248.8,52.79,14.82,88.75,20.79,6.594,2.322,164.5,40.39,11.65,4.408,rest
1418,253.2,47.75,15.53,1261,249.1,53.26,14.89,90.79,21.03,6.598,2.342,164.5,40.4,11.73,4.426,rest
1419,253.3,47.52,15.46,1264,249,52.94,14.79,83.2,20.81,6.621,2.329,164.3,40.25,11.36,4.292,rest
1410,249.6,47.84,15.27,1256,246.4,52.27,14.56,89.22,20.91,6.578,2.317,162.5,40.28,11.61,4.394,rest
1395,247.9,47.33,15.12,1247,245,50.89,14.49,89.57,21.07,6.578,2.338,163.8,40.25,11.48,4.376,rest
1390,246.7,47.32,15.07,1233,243.7,51.37,14.5,89.16,21.14,6.558,2.341,162.7,40.19,11.59,4.362,rest
1384,245.8,47.29,14.97,1230,242.4,50.56,14.38,88.12,20.58,6.536,2.347,164.2,39.91,11.55,4.325,rest
1377,245.3,47.81,14.99,1228,242.1,50.46,14.4,84.83,20.84,6.603,2.329,163.8,40,11.53,4.411,rest
1376,245.4,46.3,15.01,1224,242,51.27,14.44,85.18,20.71,6.594,2.341,165.5,40.04,11.56,4.417,rest
1377,245.3,47.96,15.03,1226,241.7,51.61,14.41,84.44,20.57,6.576,2.337,163,40.05,11.62,4.401,rest
1377,245.6,47.02,14.93,1222,241,51.37,14.41,89.88,21.08,6.554,2.35,163.6,39.96,11.63,4.33,rest
1371,242.9,46.47,14.92,1230,241.6,51.37,14.43,92.87,20.73,6.508,2.32,164.7,40.06,11.52,4.332,rest
1375,243.9,46.05,14.86,1234,242.6,51.26,14.45,89.02,21.04,6.448,2.336,163.2,40.14,11.6,4.298,rest
1379,245,46.6,14.98,1236,243.1,51.46,14.53,91.28,21.04,6.499,2.358,164.9,40.08,11.48,4.353,rest
1384,245.3,46.72,15.02,1242,244,51.22,14.61,86.68,21.12,6.571,2.357,163.3,39.98,11.71,4.332,rest
1390,246.7,46.74,15.09,1248,245.2,51.27,14.68,86.9,20.67,6.607,2.357,163.9,39.84,11.52,4.364,rest
1397,248.6,48,15.24,1253,246.8,51.55,14.83,90.77,20.54,6.559,2.349,165.6,40.32,11.61,4.358,rest
1404,250.2,48.26,15.4,1259,248.4,51.83,14.89,87.9,20.6,6.552,2.337,165.1,40.46,11.66,4.373,rest
1414,252.1,49.06,15.44,1262,248.7,52.1,14.89,90.14,20.75,6.501,2.326,165.7,40.82,11.53,4.292,rest
1405,247.9,47.97,15.35,1260,247.8,51.68,14.96,89.74,21.13,6.457,2.294,166.2,41.67,11.84,4.307,rest
1399,249.4,48.16,15.53,1256,247,53.26,15.07,95.66,21.18,6.76,2.384,170.1,42.72,12.11,4.376,rest
1394,247.8,48.96,15.6,1255,246,53.23,15.16,93.14,21.66,6.716,2.301,170.4,42.52,12.04,4.398,rest
1395,248,48.31,15.73,1253,247.2,52.9,15.11,88.17,21.64,6.798,2.377,171,42.4,12.13,4.419,rest
1395,249.5,49.95,15.85,1257,245.6,54,15.21,94.79,21.58,6.646,2.373,171.9,42.98,12.24,4.47,rest
1394,249,49.5,15.99,1255,246.3,53.49,15.27,93.59,21.48,6.8,2.364,171.7,42.77,12.26,4.405,rest
1400,250.2,48.73,16.13,1259,247.3,54.08,15.27,94.7,21.74,6.693,2.366,171,43.01,12.39,4.493,rest
1410,252.8,50.88,16.13,1265,248.3,53.41,15.18,97.25,21.62,6.85,2.394,173.7,43.24,12.26,4.416,rest
1409,250.2,48.96,15.78,1262,248.4,52.89,15.16,93.43,21.77,6.794,2.37,170.1,42.84,12.29,4.479,rest
1416,251.3,50.21,15.82,1265,248.8,53.33,15.2,92.9,21.95,6.755,2.403,169.7,43.5,12.34,4.455,rest
1421,253.2,49.83,15.8,1273,250.1,53.45,15.14,96.07,22.21,6.837,2.394,171,44.29,12.3,4.561,rest
1427,253.3,49.53,15.89,1268,249.9,53.33,15.15,93.77,22.85,6.845,2.383,171.9,44.33,12.47,4.538,rest
1427,252.3,49.07,15.96,1271,250.5,53.43,15.17,92.39,22.49,6.86,2.433,169.9,44.46,12.66,4.568,rest
1430,253.3,49.59,16.05,1274,250.5,53.67,15.2,93.29,22.22,6.965,2.431,169.9,44.76,12.64,4.649,rest
1434,256.3,50.4,16.07,1276,251.4,53.79,15.25,93.73,22.91,6.928,2.448,172.1,45.34,12.63,4.66,rest
1438,257,50.78,16.02,1274,251.6,53.77,15.15,92.97,22.78,6.913,2.439,171.8,44.71,12.65,4.66,rest
1431,254.9,49.29,15.89,1273,250.5,53.76,15.08,94.3,22.6,6.958,2.418,170.5,44.73,12.53,4.663,rest
1432,254.9,48.7,15.88,1271,250,53.46,15.08,92.95,22.41,6.94,2.424,170.3,45.05,12.68,4.638,rest
1434,255.3,49.44,15.93,1275,251.2,53.54,15.14,92.45,22.78,6.879,2.398,170.8,45.12,12.53,4.653,rest
1436,256.1,50.47,15.95,1275,251.7,53.45,15.07,89.54,22.84,6.93,2.445,171.4,44.79,12.58,4.629,rest
1438,255,49.52,15.97,1279,251,53.49,15.18,93.8,22.97,6.947,2.398,171.2,45.16,12.69,4.627,rest
1442,257.4,50.22,16.06,1279,251.7,53.18,15.16,93.22,22.97,6.886,2.432,170.2,45.05,12.64,4.655,rest
1447,258,51.55,16.2,1278,253.4,53.26,15.23,93.67,22.78,6.943,2.419,170.6,45.15,12.62,4.659,rest
1451,260,50.9,16.29,1281,253.3,53.88,15.17,94.29,23.11,6.986,2.454,173.3,45.02,12.67,4.695,rest
1445,255.9,49.78,16.05,1279,252.3,53.91,15.08,94.46,22.75,6.863,2.413,171,44.91,12.53,4.601,rest
1446,258.4,50.06,16.05,1276,252,53.19,15.12,91.71,22.64,6.87,2.368,170.2,44.84,12.4,4.602,rest
1447,258.2,48.4,16.09,1282,252.2,54.13,15.14,97.46,22.93,6.868,2.383,170.1,44.43,12.54,4.624,rest
1448,258.2,49.53,16.18,1280,252.1,54.04,15.16,96.64,22.66,6.876,2.416,171.7,44.6,12.65,4.637,rest
1449,258,50.03,16.19,1280,251.9,54.14,15.18,89.4,23.1,7.001,2.461,172,44.87,12.61,4.638,rest
1450,258.7,51,16.23,1279,251.8,53.93,15.14,98.18,22.45,6.847,2.428,171.7,45.06,12.73,4.682,rest
1452,259.2,50.89,16.42,1282,252.3,54.03,15.15,97.42,22.54,6.925,2.428,172.9,45.57,12.81,4.735,rest
1455,260.4,49.97,16.4,1285,251.9,53.73,15.2,92.46,22.83,7.054,2.452,172.5,45.17,12.72,4.742,rest
1458,261.5,51.84,16.47,1287,253.6,53.84,15.18,94.8,22.7,6.842,2.415,172.1,45.28,12.79,4.681,rest
1456,259.5,51.36,16.22,1276,251.5,52.49,15.05,93.52,22.9,6.884,2.434,172.1,45.14,12.66,4.699,rest
1448,259.5,49.75,16.14,1275,251.9,53.27,15.01,90.27,22.85,6.914,2.413,171.5,44.98,12.69,4.751,rest
1446,258.1,50.81,16.25,1275,251.1,53.05,15.05,88.59,22.76,6.968,2.431,171.7,45.31,12.66,4.678,rest
1447,257.6,50.28,16.28,1269,251.3,52.89,15.01,96.68,22.64,6.889,2.44,172.8,45.15,12.59,4.649,rest
1447,258.1,49.43,16.2,1275,251,53.3,15.04,92.55,23.11,6.767,2.431,171.9,45.01,12.74,4.666,rest
1449,258.1,51.45,16.26,1273,251.1,54.16,15.03,91.34,23.03,6.975,2.41,173.8,45.29,12.69,4.715,rest
1452,259,50.77,16.35,1275,252.7,53.13,15.08,98.34,22.63,6.929,2.409,174,44.94,12.63,4.727,rest
1453,259.6,50.28,16.47,1276,251.9,53.68,15.07,94.71,22.71,6.885,2.411,174,45.34,12.81,4.753,rest
1457,262.1,51.05,16.47,1276,252.4,53.39,15.13,94.64,23.08,6.884,2.405,173.5,45.78,12.92,4.731,rest
1460,262.6,50.8,16.55,1279,253,53.6,15.07,94.96,23.04,6.863,2.406,172.1,45.35,12.88,4.682,rest
1453,260.2,51.26,16.26,1280,251.7,53.84,14.96,94.46,22.61,6.847,2.407,171.9,45.16,12.65,4.673,rest
1450,259.2,51.79,16.24,1274,251.4,53.21,15.03,94.02,23.07,6.772,2.426,172.7,45.39,12.62,4.744,rest
1449,258.6,50.88,16.18,1273,251.3,52.83,14.97,97.68,22.78,6.848,2.404,172.5,45.28,12.76,4.708,rest
1448,259.4,51.11,16.27,1277,251.3,53.51,14.96,90.78,22.63,6.917,2.385,172.7,45.2,12.55,4.703,rest
1447,258.9,50.15,16.29,1272,250.8,53.27,15.01,91.82,23.01,6.918,2.423,172.8,44.83,12.6,4.712,rest
1449,258.5,50.48,16.35,1279,251.4,53.48,14.99,93.19,23.12,6.87,2.42,173,45.27,12.78,4.724,rest
1452,259.8,52.52,16.44,1274,252,54.08,15.02,92.55,23.1,7,2.419,173.4,45.35,12.9,4.781,rest
1454,261.6,50.87,16.47,1276,252.7,53.7,15.07,94.55,22.63,6.927,2.419,175,45.77,12.77,4.773,rest
1457,262.8,51.17,16.56,1276,252,53.81,15.07,95.24,23.17,6.908,2.432,176.3,45.98,13,4.756,rest
1457,263.4,51.49,16.37,1279,251.8,53.4,14.94,95.88,22.86,7.001,2.418,172,45.45,12.7,4.734,rest
1447,259.3,51.23,16.2,1274,250.5,52.93,14.97,96.23,23.1,6.871,2.401,171.9,45.43,12.7,4.649,rest
1445,259,49.76,16.17,1274,251,53.1,14.91,93.17,22.49,6.803,2.393,172.8,45.1,12.8,4.711,rest
1445,258.3,50.95,16.25,1274,251.3,52.86,14.93,94.6,22.55,6.942,2.373,172.3,45.6,12.81,4.743,rest
1446,259.2,51.02,16.24,1274,250.7,52.72,14.93,93.99,22.3,6.79,2.437,174.1,45.07,12.8,4.774,rest
1446,258.5,50.39,16.22,1277,251.1,53.67,14.91,96.05,22.56,6.72,2.391,173.2,45.23,12.69,4.739,rest
1449,259.8,51.06,16.33,1273,251.7,53.17,14.99,91.86,22.5,6.755,2.392,174,45.46,12.74,4.741,rest
1452,261.1,50.19,16.39,1276,252.5,53.04,15.05,95.52,22.67,6.827,2.398,173.3,45.32,12.86,4.715,rest
1454,262.2,52.48,16.53,1276,251.9,53.44,15,96.61,22.47,6.823,2.382,174.6,45.09,13.05,4.737,rest
1459,263,51.17,16.62,1280,252.5,53.79,14.98,95.14,22.41,6.836,2.405,174.1,45.32,12.87,4.763,rest
1451,261.3,49.48,16.26,1276,250.5,53.24,14.88,91.95,22.52,6.84,2.398,173.1,44.71,12.69,4.685,rest
1446,258.6,49.45,16.13,1274,250.6,53.11,14.88,94.91,22.46,6.838,2.378,173.2,44.62,12.76,4.68,rest
1446,259.5,50.43,16.22,1274,250.9,53.19,14.89,94.19,22.48,6.748,2.402,173.8,45.09,12.75,4.708,rest
1447,260.3,49.95,16.2,1278,250.3,53.24,14.86,90.41,22.26,6.773,2.381,172.6,44.66,12.72,4.623,rest
1445,258.8,50.86,16.27,1271,251,52.52,14.9,95.22,22.56,6.764,2.363,174.8,45.2,12.78,4.679,rest
1449,259.3,50.4,16.26,1276,251.8,53.08,14.94,92.59,23.08,6.778,2.374,173.7,44.96,12.75,4.705,rest
1453,262.4,51.6,16.39,1281,251.8,52.69,15,93.87,22.58,6.82,2.404,174.6,45.42,12.9,4.689,rest
1455,261.8,51.58,16.43,1275,252,53.84,15,95.37,22.39,6.799,2.391,175.8,45.23,12.92,4.67,rest
1458,261.4,51.19,16.54,1277,251.7,53.11,14.96,91.8,22.86,6.812,2.395,175.2,45.52,12.94,4.691,rest
1448,259,50.65,16.23,1273,249.5,53.26,14.82,96.65,22.8,6.807,2.392,172.6,44.56,12.83,4.682,rest
1433,257,50.4,16.14,1263,248.2,53.2,14.83,94.22,22.41,6.751,2.364,173.4,45.15,12.72,4.679,rest
1436,257.2,49.78,16.29,1267,248.7,53.36,14.94,93.36,22.38,6.76,2.385,173.8,45.06,12.79,4.675,rest
1436,257.9,51.05,16.37,1264,248.5,54.11,14.92,96.16,22.55,6.819,2.378,173.7,44.99,12.71,4.639,rest
1434,257.7,50.42,16.39,1269,249.3,53.38,14.98,95.34,22.37,6.909,2.356,174.4,45.37,12.66,4.634,rest
1437,258.2,50.92,16.5,1271,249.2,53.82,15.01,91.6,22.49,6.751,2.382,174.1,45.21,12.83,4.664,rest
1445,259.9,51.96,16.6,1276,250.9,54.14,15.07,94.5,22.54,6.805,2.381,174.4,45.1,12.85,4.72,rest
1451,261.7,51.94,16.6,1272,251.5,53.8,14.98,94.16,22.53,6.737,2.388,174.2,45.61,12.73,4.684,rest
1444,258.4,51.19,16.28,1267,249,52.84,14.87,94.73,22.46,6.757,2.377,173.5,45.51,12.73,4.648,rest
1436,255.7,51.39,16.15,1265,248.6,53.04,14.78,92.33,22.42,6.77,2.361,173.1,44.94,12.66,4.652,rest
1432,255.9,50.88,16.17,1264,248.1,52.23,14.82,91.27,22.37,6.825,2.378,172.4,45.69,12.68,4.653,rest
1435,257.1,50.65,16.2,1265,248.5,52.6,14.75,97.43,22.48,6.823,2.392,173.3,45.45,12.78,4.643,rest
1438,257.3,51.42,16.17,1265,249.4,53.4,14.76,92.81,22.55,6.834,2.36,171.5,45.3,12.77,4.639,rest
1441,257.4,50.54,16.27,1271,249.2,53.26,14.86,94.38,22.54,6.792,2.395,171.7,45.56,12.78,4.697,rest
1443,258.3,51.51,16.36,1269,248.9,53.42,14.86,94.16,22.53,6.858,2.414,172.6,45.06,13.05,4.648,rest
1445,259.8,51.92,16.37,1269,250.1,53.49,14.84,94.76,22.51,6.737,2.381,173,45.63,12.82,4.688,rest
1443,259.6,50.12,16.2,1267,249.6,52.46,14.69,95.34,22.77,6.724,2.393,172.9,45,12.54,4.638,rest
1434,257.6,50.23,16.01,1258,247.9,52.31,14.73,88.46,22.18,6.683,2.419,170.6,44.56,12.63,4.641,rest
1435,256.5,50.44,16.01,1262,248.2,52.2,14.69,92.85,22.39,6.785,2.357,171.2,44.85,12.69,4.677,rest
1433,257.2,50.72,16.03,1260,247,52.74,14.65,95.07,22.01,6.71,2.357,169.8,44.1,12.55,4.612,rest
1433,256,50.62,16.06,1260,247.5,52.32,14.68,89.03,22.01,6.741,2.391,170.5,44.05,12.47,4.609,rest
1433,257,50.58,16.07,1256,247.3,52.42,14.66,92.66,21.77,6.67,2.349,170.1,43.71,12.48,4.587,rest
1436,256.6,49.27,16.07,1262,247.2,52.39,14.69,91.06,22.31,6.691,2.353,170.2,43.92,12.54,4.671,rest
1438,255.7,50.65,16.22,1261,248.1,53.2,14.68,90.21,21.71,6.655,2.368,170.7,43.04,12.13,4.529,rest
1442,258.5,49.36,16.25,1265,248.9,53.4,14.77,93.64,20.87,6.468,2.294,170.1,42.73,12.1,4.534,rest
1441,258.8,49.55,16.22,1263,247.6,52.51,14.63,89.09,20.9,6.395,2.332,168,41.2,12.02,4.444,rest
1434,257,50.39,15.95,1261,246.3,51.92,14.5,90.37,20.7,6.504,2.322,167.4,41.66,12.01,4.458,rest
1428,254.3,49.42,15.91,1250,245.3,51.75,14.54,92.14,20.72,6.478,2.291,168.4,41.97,11.96,4.48,rest
1426,254.4,48.92,15.8,1247,245.7,52.45,14.51,89.63,20.53,6.554,2.318,168.1,41.56,11.81,4.455,rest
1426,254.9,49.55,15.87,1253,245.8,51.88,14.56,90.72,20.95,6.514,2.309,167.5,41.46,12.08,4.487,rest
1432,256.1,49.95,16.02,1257,247.1,52.2,14.65,88.88,20.64,6.485,2.326,169.1,42.12,11.94,4.452,rest
1435,255.4,51.76,16.06,1261,247.3,52.79,14.7,91.6,20.45,6.497,2.333,168,41.6,12.04,4.481,rest
1440,256.9,50.29,16.19,1259,248.5,52.9,14.74,86.32,20.87,6.508,2.316,168.3,41.96,12.1,4.52,rest
1444,259,51.01,16.31,1263,248.2,52.22,14.73,91,20.69,6.54,2.352,168.7,42.13,11.91,4.501,rest
1437,256.2,50.32,15.96,1235,243.2,52.1,14.35,89.69,21.04,6.472,2.331,168.2,41.89,12.09,4.5,rest
1400,251.3,49.14,15.64,1223,241.7,51.59,14.22,91.64,20.51,6.449,2.315,165.6,41.66,11.83,4.43,rest
1387,249.4,48.12,15.56,1210,238.9,50.91,14.07,86.79,20.64,6.494,2.313,166.1,41.4,11.91,4.448,rest
1375,249,49.01,15.45,1205,237.2,51.07,14.04,86.11,20.36,6.415,2.305,166.2,41.55,11.94,4.477,rest
1374,248,48.02,15.54,1205,237.1,50.93,14.11,86.47,20.45,6.469,2.319,167.2,41.98,11.93,4.507,rest
1375,248.2,49.48,15.61,1212,238.1,50.77,14.05,90.41,20.66,6.502,2.309,165.7,41.95,12.04,4.442,rest
1382,249.4,49.37,15.55,1213,238.3,51.08,14.22,87.78,20.52,6.395,2.281,167.8,41.78,12.04,4.518,rest
1391,250.6,49.02,15.85,1227,240.8,51.22,14.37,93.13,20.87,6.525,2.325,168.2,42.17,12.09,4.53,rest
1410,253.8,50.76,16.01,1245,245,52.31,14.58,89.8,20.72,6.441,2.324,169.3,42.19,12.07,4.496,rest
1436,257.9,50.9,16.1,1261,247.1,52.89,14.66,87.22,20.39,6.393,2.315,165.4,41.59,11.78,4.459,rest
1440,257.7,50.53,16.1,1258,247.1,51.61,14.67,94.96,20.29,6.348,2.323,168.7,41.53,11.84,4.469,rest
1437,256.9,51.6,16.21,1258,246.8,52.51,14.8,91.97,20.75,6.466,2.346,168.4,42.29,12.18,4.485,rest
1438,257.2,51.99,16.39,1254,247.4,52.94,14.77,88.55,20.7,6.463,2.322,170.2,42.54,12.18,4.524,rest
1437,257.9,50.93,16.37,1255,246,52.25,14.7,90.92,20.75,6.55,2.347,169,42.92,12.28,4.55,rest
1437,256.2,51.35,16.31,1254,246.2,52.92,14.67,87.39,20.99,6.534,2.353,170.3,42.99,12.33,4.539,rest
1437,257.1,50.45,16.2,1248,245.3,52.4,14.61,90.78,21.19,6.507,2.346,172,43.1,12.24,4.566,rest
1432,256.5,49.06,16.09,1231,240.8,50.85,14.37,88.55,21.66,6.589,2.369,172,43.88,12.56,4.64,rest
1395,250.9,50.72,16.13,1217,239.2,51.05,14.45,96.81,21.56,6.726,2.373,173.5,44.99,12.73,4.596,rest
1393,249.6,49.39,15.95,1226,241,51.12,14.49,88.4,21.92,6.719,2.373,172.6,44.89,12.53,4.606,rest
1413,251.8,51.67,16.04,1241,243.4,51.17,14.54,92.43,22.14,6.712,2.358,168.2,44.64,12.44,4.616,rest
1427,253.7,51.23,16.07,1252,243.6,51.95,14.52,87.97,21.83,6.73,2.335,170.9,44.52,12.48,4.653,rest
1432,255.9,51.28,16.13,1247,244.1,51.8,14.51,87.24,21.98,6.674,2.357,169.9,44.07,12.49,4.584,rest
1430,255.6,49.87,16.05,1245,243.8,51.78,14.48,89.93,21.65,6.615,2.355,169.6,44.48,12.6,4.656,rest
1429,255.7,51.1,16.17,1242,243.1,51.77,14.59,89.66,22.04,6.674,2.356,170,44.06,12.56,4.595,rest
1427,256.7,50.77,16.25,1247,243.9,51.77,14.69,90.85,22.19,6.652,2.346,170.8,44.31,12.51,4.628,rest
1434,257.2,50.84,16.42,1253,244.2,52.24,14.68,90.37,21.89,6.575,2.397,171.6,45.06,12.48,4.627,rest
1432,256.5,50.2,16.18,1252,244.3,51.99,14.59,90.31,22.53,6.764,2.363,171.4,44.2,12.44,4.635,rest
1430,254.8,49.18,16.2,1253,243.3,52.48,14.64,89.37,22.01,6.662,2.356,169.4,44.71,12.6,4.607,rest
1427,255,49.92,16.18,1250,243.5,52.16,14.61,90.4,21.98,6.712,2.393,168.8,44.1,12.51,4.607,rest
1427,255.6,50.1,16.26,1247,244,51.35,14.7,91.53,21.88,6.7,2.349,171.7,44.98,12.61,4.638,rest
1430,256.7,50.71,16.23,1251,243.7,52.04,14.62,89.95,21.82,6.704,2.377,170.3,44.87,12.52,4.633,rest
1430,257,51.6,16.24,1251,244.3,51.99,14.64,89.7,22.06,6.723,2.363,169.8,44.32,12.62,4.634,rest
1435,255.9,51.42,16.26,1250,244.6,52.03,14.64,92.77,22.13,6.669,2.342,170.8,44.85,12.61,4.663,rest
1436,256.5,50.86,16.36,1255,244.5,52.1,14.69,90.54,22.36,6.723,2.399,171.5,45.29,12.66,4.655,rest
1431,255.5,51.46,16.13,1249,244.1,52.06,14.58,94.22,21.97,6.685,2.34,170.5,44.27,12.63,4.608,rest
1426,255,50.34,16.13,1248,244,51.75,14.59,91.59,22.16,6.682,2.37,170.8,45.14,12.51,4.59,rest
1426,254.5,49.97,16.15,1251,243.8,51.56,14.59,88.07,21.85,6.635,2.356,169.6,44.61,12.58,4.613,rest
1427,254,49.65,16.13,1243,243.7,51.63,14.56,94.53,22.32,6.669,2.361,170.2,44.57,12.45,4.599,rest
1427,254.6,48.95,16.12,1249,244.1,51.21,14.63,92.6,22.17,6.75,2.353,169.6,44.24,12.47,4.612,rest
1429,255,49.19,16.15,1248,243.5,51.54,14.59,94.26,21.99,6.702,2.366,169.8,44.56,12.48,4.671,rest
1431,256.1,48.85,16.22,1251,244.6,52.3,14.65,90.23,22.3,6.709,2.358,171.2,44.56,12.62,4.657,rest
1434,257.3,49.48,16.27,1252,244.3,51.39,14.64,90.46,21.9,6.629,2.352,170.3,44.52,12.44,4.577,rest
1427,255.6,51.26,15.95,1249,243.7,51.49,14.52,89.79,22.14,6.661,2.352,169.4,44.36,12.54,4.585,rest
1426,253.6,49.24,15.91,1251,243.4,51.53,14.51,91.68,21.97,6.633,2.363,168.7,43.94,12.4,4.584,rest
1427,255.8,49.61,15.94,1248,243.5,51.13,14.5,91.88,21.86,6.696,2.327,169.4,44.08,12.39,4.564,rest
1427,254.2,49.74,15.95,1251,243.6,52.3,14.55,90.71,21.78,6.625,2.348,168.3,43.46,12.5,4.523,rest
1428,254.7,50.36,15.99,1250,243.7,52.18,14.55,90.11,21.47,6.581,2.344,168.2,43.6,12.46,4.557,rest
1429,256.2,50.08,16.05,1251,244.6,51.61,14.53,93.52,21.81,6.601,2.351,169.5,43.56,12.48,4.628,rest
1433,256.6,50.62,16.13,1254,244.8,52.59,14.57,90.88,21.66,6.681,2.374,169.8,44.02,12.43,4.61,rest
1437,257.4,49.67,16.23,1254,245.2,51.3,14.59,92.64,21.6,6.591,2.343,169.5,43.83,12.33,4.673,rest
1432,255.5,48.67,15.91,1257,244.3,51.56,14.43,88.94,21.78,6.627,2.332,168.1,43.59,12.23,4.587,rest
1428,255.7,49.25,15.94,1255,243.9,51.99,14.44,94.61,21.61,6.596,2.335,169.6,43.28,12.18,4.566,rest
1428,255,49.56,15.87,1252,243.8,51.37,14.54,90.86,21.69,6.522,2.347,167.7,43.19,12.49,4.577,rest
1428,253.4,49.83,15.93,1253,244.3,51.9,14.47,90.14,21.49,6.63,2.336,169.2,43.3,12.33,4.517,rest
1429,254.2,50.81,15.88,1252,244.8,51.12,14.55,87.97,21.52,6.609,2.324,169.1,43.26,12.33,4.55,rest
1431,254.4,50.22,15.91,1253,244.9,51.4,14.53,89.79,21.51,6.528,2.354,169.4,43.46,12.24,4.603,rest
1434,256.9,50.24,16.09,1257,245.1,52.27,14.53,91.89,21.84,6.562,2.316,169.7,43.61,12.59,4.598,rest
1436,256.8,51.07,16.15,1253,245.4,51.4,14.56,90.42,21.91,6.64,2.351,169.3,43.96,12.65,4.634,rest
1440,257.9,49.97,16.21,1254,245.3,52.34,14.57,91.37,21.38,6.607,2.353,171.3,43.87,12.47,4.6,rest
1433,256.1,49.69,15.88,1248,244.4,51.84,14.54,91.26,21.77,6.481,2.329,170.9,43.56,12.47,4.623,rest
1429,254.7,49.35,16.02,1250,244.3,52.43,14.53,89.72,21.42,6.623,2.342,169.9,44.04,12.41,4.564,rest
1426,254.2,49.28,15.96,1248,244.1,51.6,14.52,95.55,21.61,6.636,2.327,171.5,44.09,12.45,4.592,rest
1429,255,50.44,16.01,1257,244.2,52.09,14.49,91.84,21.43,6.581,2.339,172,44.32,12.53,4.562,rest
1431,255.8,49.87,16.05,1252,244.4,51.8,14.53,90,21.98,6.589,2.337,170.2,44.09,12.62,4.685,rest
1431,255.4,49.83,16.04,1253,244.1,52.51,14.54,92.26,21.81,6.591,2.355,172.8,44.58,12.59,4.597,rest
1435,256.5,51.12,16.13,1256,244.7,51.57,14.63,89.59,21.91,6.591,2.333,171.6,44.6,12.56,4.629,rest
1438,258.1,51.46,16.27,1257,245.7,51.3,14.68,94.99,21.77,6.71,2.312,171.9,44.96,12.65,4.656,rest
1441,258.8,51.3,16.16,1259,245.1,51.81,14.55,91.42,22.53,6.701,2.358,172.7,44.48,12.65,4.606,rest
1434,255.6,50.41,16.05,1253,244.7,51.49,14.5,92.94,21.91,6.599,2.357,171.8,44.95,12.56,4.597,rest
1434,256.1,49.78,16.05,1247,245.3,51.68,14.54,92.21,21.74,6.679,2.339,171.4,44.9,12.73,4.586,rest
1435,256.4,49.5,16.08,1251,244.2,52.22,14.55,92.09,21.63,6.628,2.346,172.6,45.01,12.54,4.624,rest
1437,256.9,50.35,16.1,1253,244.6,51.61,14.56,94.98,22.07,6.717,2.331,171.7,44.8,12.64,4.588,rest
1437,257.6,49.43,16.14,1257,245.1,52.07,14.59,92.35,22.1,6.639,2.34,174.2,45.2,12.63,4.689,rest
1440,258.4,50.44,16.28,1256,245,51.73,14.67,90.93,22.3,6.685,2.353,173.6,45.28,12.77,4.686,rest
1442,259.1,50.23,16.29,1264,246.2,52.28,14.74,92.78,22.16,6.813,2.329,173,45.55,12.81,4.644,rest
1447,260.4,52.11,16.38,1259,245.9,52.03,14.6,94.35,22.14,6.704,2.338,174.2,45.55,12.81,4.653,rest
1441,256.6,50.44,16.08,1260,244.7,51.58,14.56,91.17,22.37,6.731,2.348,173.3,45.19,12.73,4.701,rest
1438,256.5,50.19,16.12,1257,244.5,51.69,14.62,92.14,22.34,6.734,2.336,173,45.43,12.75,4.613,rest
1440,257.9,50.5,16.12,1258,245.2,51.22,14.56,90.25,21.93,6.593,2.317,173.2,45.17,12.76,4.648,rest
1441,258.1,51.67,16.17,1260,245,51.54,14.54,93.46,21.89,6.663,2.288,172.9,45.16,12.7,4.672,rest
1442,258.2,49.17,16.19,1253,245.4,51.55,14.61,94.66,22.06,6.628,2.319,172.4,45.33,12.68,4.646,rest
1443,257.2,50.02,16.27,1260,245.9,52.39,14.62,87.58,22.12,6.616,2.351,172.7,46.11,13.21,4.643,rest
1445,259.5,51.28,16.39,1257,245.3,52.28,14.66,95.27,22.06,6.635,2.335,175,45.71,12.83,4.707,rest
1450,260.5,50.72,16.39,1259,245.2,52.44,14.6,91.38,22.2,6.717,2.359,172.7,46.12,13.04,4.666,rest
1441,258.1,50.28,16.1,1258,245.3,52.44,14.55,96.06,22.33,6.578,2.32,172,45.61,12.75,4.645,rest
1442,257.5,49.68,16.21,1257,244.3,52.29,14.56,95.76,21.84,6.592,2.345,172.2,45.75,12.86,4.653,rest
1441,258.2,49.38,16.18,1256,245.2,51.73,14.62,92.23,22.19,6.683,2.336,175,45.5,12.96,4.696,rest
1442,259.6,50.7,16.17,1256,245.1,52.23,14.59,93.81,21.73,6.625,2.324,172,45.66,12.89,4.701,rest
1443,258.2,50.86,16.23,1256,245.5,51.3,14.62,93.98,21.89,6.685,2.314,173.4,45.75,12.94,4.719,rest
1446,258.7,50.86,16.28,1259,245.8,52.46,14.67,91.43,22.23,6.685,2.338,172.8,45.8,12.92,4.681,rest
1449,260.1,52.33,16.44,1264,246.4,51.77,14.71,89.91,22.26,6.695,2.313,173.2,46.01,13.05,4.794,rest
1449,259.8,51.22,16.28,1256,245.4,52.03,14.56,92.76,22.62,6.647,2.337,172.3,46.16,12.93,4.675,rest
1441,256.7,49.83,16.18,1252,245.1,51.91,14.54,91.6,22.18,6.722,2.333,173,45.68,12.76,4.722,rest
1441,256.8,51.18,16.19,1256,245.3,52.63,14.54,90.37,22.43,6.624,2.367,174.1,46.3,12.98,4.667,rest
1438,257.3,50.37,16.21,1251,244.4,51.89,14.55,95.25,22.18,6.698,2.349,171.4,45.88,12.86,4.718,rest
1437,256.7,50.11,16.22,1260,244.4,52.4,14.61,89.42,21.92,6.663,2.341,171.7,46.15,12.88,4.698,rest
1438,256.6,50,16.23,1260,244.7,52.71,14.6,91.23,21.86,6.769,2.341,173.7,45.78,12.98,4.765,rest
1443,257.6,49.88,16.32,1264,245.9,52.42,14.71,92.03,21.99,6.616,2.343,173.3,46.35,13.08,4.754,rest
1447,258.3,50.67,16.42,1261,247.4,52.7,14.7,91.05,22.26,6.699,2.322,173.8,46.3,12.97,4.719,rest
1448,259.6,51,16.33,1262,246.8,52.38,14.65,88.85,22.08,6.656,2.322,172.1,45.76,12.91,4.651,rest
1442,258.1,50.81,16.14,1264,246.1,51.47,14.59,88.62,22.09,6.634,2.318,171,46,12.85,4.703,rest
1441,257.6,51.08,16.11,1260,246.1,52.43,14.63,88.12,22.06,6.581,2.322,171.3,45.77,13.06,4.735,rest
1441,257,51.07,16.22,1261,247.1,51.88,14.6,89.91,21.56,6.656,2.33,171.7,45.74,12.92,4.711,rest
1441,258.7,50.99,16.18,1260,247.1,51.92,14.6,86.01,21.89,6.656,2.362,172.7,46.11,12.84,4.713,rest
1443,256.2,51.3,16.25,1260,247.2,52.39,14.65,90.8,22.08,6.632,2.341,171.9,45.6,12.96,4.692,rest
1445,257.6,50.86,16.28,1259,247.5,52.48,14.67,90.89,21.84,6.599,2.326,171.5,46.08,12.77,4.732,rest
1447,259,49.55,16.34,1261,248.1,52.83,14.71,87.47,21.98,6.617,2.337,173.9,45.83,12.97,4.708,rest
1450,260.2,50.58,16.36,1264,247.7,52.51,14.63,92.12,22.02,6.678,2.341,174.3,46.01,12.98,4.654,rest
1443,258.7,50.33,16.16,1263,246.6,52.02,14.62,88.89,21.48,6.569,2.323,173.6,45.53,12.79,4.654,rest
1442,257.8,49.17,16.13,1267,246.9,52.35,14.59,88.6,22.37,6.618,2.343,172.2,45.45,12.75,4.637,rest
1442,257.2,50.85,16.12,1262,246.7,52.59,14.64,91.63,21.92,6.581,2.311,173.1,45.73,12.9,4.709,rest
1442,257.7,50.5,16.2,1267,246.8,52.09,14.64,88.61,21.94,6.492,2.33,170.8,45.48,12.69,4.702,rest
1443,258.7,50.41,16.15,1264,247.4,52.88,14.63,90.41,22,6.563,2.338,172.7,45.66,12.96,4.723,rest
1446,257.6,51.01,16.22,1263,248,51.7,14.74,90.39,21.84,6.657,2.318,172.9,45.59,12.91,4.662,rest
1447,258.6,51.25,16.33,1270,247.4,52.19,14.74,89.37,22.07,6.684,2.313,171.8,45.44,12.78,4.694,rest
1450,258.6,51.94,16.34,1270,248.4,52.72,14.7,93.73,21.87,6.625,2.345,173.7,45.52,12.9,4.705,rest
1451,259.9,50.92,16.19,1264,247.7,51.96,14.62,90.64,22.15,6.698,2.322,172,44.98,12.83,4.674,rest
1446,257.8,51.17,16.13,1259,248.2,52.69,14.58,91.79,21.3,6.659,2.288,171.6,45.34,12.61,4.669,rest
1445,258.8,50.14,16.13,1266,247.6,52.74,14.6,88.87,21.33,6.578,2.337,171.2,44.9,12.78,4.705,rest
1446,258.1,50.02,16.16,1266,248,52.08,14.69,94.13,21.34,6.493,2.318,172,45.04,12.73,4.652,rest
1446,258,50.03,16.19,1269,248.1,52.95,14.73,90.08,21.7,6.593,2.326,172.9,45.08,12.68,4.624,rest
1448,258.9,51.32,16.2,1268,247.7,52.85,14.71,92.29,21.52,6.513,2.342,172.1,44.68,12.71,4.665,rest
1452,259.2,51.8,16.27,1272,248.3,52.61,14.73,88.05,21.51,6.557,2.342,173.3,44.96,12.7,4.702,rest
1453,259.7,50.96,16.36,1271,249.1,52.41,14.71,88.37,21.82,6.539,2.33,173.1,44.92,12.94,4.706,rest
1456,261.2,52.56,16.31,1273,249.7,52.81,14.72,90.41,21.68,6.641,2.331,173.7,44.67,12.76,4.679,rest
1450,257.7,51.14,16.2,1268,248.9,53.05,14.65,88.97,21.55,6.518,2.31,172.1,44.81,12.59,4.652,rest
1449,258.2,50.43,16.15,1269,248.6,52.1,14.63,88.82,21.62,6.621,2.301,171.4,45,12.8,4.66,rest
1449,258.5,50.31,16.16,1268,248.8,52.4,14.67,94.04,21.43,6.477,2.311,171.9,44.79,12.77,4.676,rest
1450,259.8,51.05,16.22,1268,248.6,52.37,14.66,86.88,21.41,6.537,2.298,171.4,44.73,12.68,4.664,rest
1450,259.1,50.44,16.22,1271,249.2,53.33,14.69,92.08,21.33,6.455,2.306,171.9,44.7,12.66,4.704,rest
1454,260.1,50.3,16.31,1274,249.6,52.51,14.66,91.28,21.48,6.549,2.316,172.5,44.68,12.68,4.681,rest
1455,261.6,51.05,16.31,1278,249.7,53.07,14.77,90.92,21.42,6.58,2.337,172.2,44.75,12.53,4.689,rest
1458,262,51.65,16.39,1274,250,53.17,14.76,92.83,21.3,6.555,2.322,173.8,44.39,12.73,4.687,rest
1455,261.1,51.1,16.13,1272,248.9,52.62,14.71,88.53,21.77,6.442,2.316,170.9,44.37,12.61,4.636,rest
1450,259.1,50.86,16.23,1275,249.3,52.83,14.67,92.16,21.29,6.487,2.317,172.5,44.18,12.62,4.649,rest
1450,260.3,50.35,16.2,1278,249.9,52.74,14.74,88.64,21.23,6.548,2.289,173.2,44.51,12.68,4.627,rest
1451,260.1,50.54,16.25,1273,249.3,52.25,14.75,88.92,21.01,6.468,2.278,172.8,44.3,12.45,4.684,rest
1451,260.4,51.31,16.16,1268,249.3,52.61,14.7,90.73,21.11,6.483,2.307,172.5,44.68,12.5,4.704,rest
1450,259.4,51.58,16.3,1270,250,53.06,14.73,88.92,21.38,6.558,2.305,171.8,44.59,12.52,4.654,rest
1453,260.2,50.82,16.29,1275,250,53.22,14.71,87.26,21.02,6.598,2.3,173.3,43.87,12.61,4.687,rest
1457,260.9,51.02,16.34,1270,250.2,52.91,14.77,89.31,21.42,6.599,2.279,174.2,44.8,12.82,4.659,rest
1459,262.4,50.59,16.42,1275,250.8,53.41,14.84,93.45,21.34,6.522,2.297,174.4,44.78,12.69,4.749,rest
1462,263.5,51.4,16.33,1278,250.8,53.19,14.75,92.88,21.67,6.585,2.33,173.3,44.83,12.68,4.611,rest
1452,260.5,50.04,16.16,1276,250.2,53.54,14.7,86.62,21.17,6.497,2.316,172.4,44.78,12.53,4.691,rest
1452,260.6,50.28,16.15,1274,250,52.28,14.71,91.9,21.08,6.499,2.304,172.5,44.27,12.63,4.633,rest
1450,261.1,51.14,16.18,1275,250.1,52.86,14.76,88.65,21.48,6.562,2.303,173.1,44.49,12.63,4.709,rest
1451,261.7,51.47,16.13,1272,250.2,52.96,14.74,90.01,21.43,6.457,2.314,173.2,44.89,12.67,4.666,rest
1451,260.4,51.5,16.19,1274,250.3,53.71,14.78,91.94,21.14,6.497,2.329,172.9,44.83,12.63,4.667,rest
1453,260.9,50.72,16.25,1277,251.1,52.37,14.79,92.18,21.34,6.462,2.325,173.4,45.04,12.64,4.699,rest
1455,260.3,52.18,16.26,1281,251.3,53.59,14.84,90.74,21.29,6.517,2.344,173.4,44.44,12.73,4.687,rest
1458,262,51.8,16.39,1278,251.1,53.34,14.86,92.84,21.38,6.577,2.302,173.6,44.7,12.65,4.705,rest
1459,263.2,51.68,16.45,1280,251.8,53.59,14.83,91.76,21.46,6.516,2.325,173.5,44.64,12.82,4.677,rest
1455,261.9,51.13,16.16,1274,250.8,53.51,14.76,91.42,21.6,6.517,2.323,174.4,44.5,12.65,4.703,rest
1451,260.2,50.55,16.07,1274,250.2,52.96,14.72,90.29,21.93,6.56,2.328,172.8,44.15,12.54,4.678,rest
1450,260.1,49.94,16.17,1275,251.3,52.81,14.75,89.96,21.4,6.549,2.315,170.5,44.66,12.75,4.668,rest
1451,259.7,50.67,16.09,1276,251,53.28,14.79,91.4,20.91,6.526,2.307,172.4,44.31,12.66,4.683,rest
1450,261.8,51.61,16.18,1281,250.5,53.08,14.78,87.85,21.23,6.507,2.317,172.3,44.97,12.69,4.692,rest
1452,260.7,49.82,16.22,1281,250.7,53.9,14.84,91.98,21.77,6.611,2.285,171.9,45.04,12.57,4.732,rest
1454,260.7,51.12,16.25,1278,251.7,53.23,14.87,96.43,21.03,6.496,2.305,173.9,44.73,12.84,4.666,rest
1457,262.2,51.69,16.34,1277,252.3,53.58,14.91,93.09,21.34,6.557,2.338,173.6,45.08,12.7,4.679,rest
1459,262.7,52.79,16.43,1282,252.2,53.68,14.98,85.96,21.78,6.643,2.32,174.2,44.84,12.67,4.745,rest
1462,262.1,52.11,16.47,1280,251.9,52.97,14.87,92.01,21.62,6.63,2.337,174,44.68,12.8,4.717,rest
1454,259.9,50.96,16.14,1279,251.8,53.17,14.81,91.83,21.22,6.541,2.315,173.3,44.49,12.58,4.623,rest
1452,260,51.67,16.15,1274,251.8,53.23,14.84,89.48,21.56,6.519,2.292,172.7,44.32,12.84,4.702,rest
1452,260.2,50.95,16.19,1280,251.3,53.57,14.87,90.14,21.35,6.576,2.297,173.9,44.7,12.87,4.661,rest
1452,260.4,49.85,16.2,1273,251,53.37,14.84,89.1,21.25,6.545,2.318,173.2,44.5,12.67,4.673,rest
1452,261.1,51.26,16.23,1280,251.3,53.42,14.89,89.75,21.42,6.587,2.306,172.3,44.97,12.66,4.707,rest
1455,262.2,50.01,16.23,1280,252.6,53.51,14.93,90.28,21.47,6.525,2.295,173.4,45,12.76,4.72,rest
1458,264.2,50.22,16.35,1286,252.2,53.46,14.98,94.05,21.65,6.571,2.316,174,45.03,12.78,4.733,rest
1460,264.2,51.53,16.47,1289,253.4,54.25,15.04,89.32,21.27,6.545,2.337,175.1,45.29,12.79,4.723,rest
1464,262.8,52.19,16.49,1285,252.7,53.27,14.93,93.41,21.36,6.64,2.345,172.8,44.66,12.63,4.708,rest
1455,261.2,51.09,16.23,1279,251.4,53.53,14.87,91.34,21.38,6.464,2.309,173.6,44.75,12.76,4.692,rest
1453,259.9,52.02,16.22,1280,252.3,53.3,14.87,90.58,21.48,6.557,2.305,173.5,44.52,12.61,4.651,rest
1455,260.4,52.01,16.24,1281,252.5,53.08,14.92,87.46,21.32,6.472,2.327,172.9,45.1,12.65,4.614,rest
1455,259.8,52.05,16.22,1279,252.2,53.86,14.86,92.41,21.67,6.464,2.3,173.7,44.74,12.74,4.598,rest
1455,261.2,50.89,16.26,1278,251.8,53.61,14.97,91.11,21.58,6.533,2.352,173.4,44.83,12.78,4.645,rest
1458,262.8,51.4,16.39,1285,252.9,54.06,14.95,88.34,21.85,6.568,2.318,174.1,44.45,12.8,4.749,rest
1461,263.4,51.63,16.38,1284,253.3,54.06,14.98,92.05,21.48,6.529,2.308,174.3,45.22,12.9,4.69,rest
1464,264.2,52.68,16.53,1286,253.5,53.76,15.04,93.74,21.54,6.506,2.337,174.7,45,12.73,4.726,rest
1460,262.7,50.86,16.2,1283,252,54.1,14.84,88.38,21.29,6.565,2.3,173.7,44.67,12.73,4.639,rest
1455,259.8,52.02,16.22,1280,252,53.52,14.9,88.85,21,6.48,2.294,172.8,44.54,12.72,4.693,rest
1455,260.6,50.77,16.27,1284,252.2,53.3,14.96,91.17,21.15,6.471,2.294,171.8,44.65,12.54,4.658,rest
1457,261.7,50.43,16.25,1283,252.5,53.75,14.93,86.79,21.41,6.545,2.307,173.9,44.69,12.71,4.68,rest
1458,260.3,51.62,16.29,1281,252.1,53.78,14.97,91.06,21.42,6.648,2.305,174.1,44.65,12.83,4.723,rest
1458,261.3,51.33,16.37,1280,253,53.72,14.96,88.72,21.33,6.475,2.298,174.7,45.03,12.82,4.642,rest
1461,262.5,52.71,16.4,1284,253.2,53.83,14.99,90.73,21.31,6.553,2.292,173.8,44.9,12.88,4.629,rest
1466,264,52.01,16.59,1281,254.2,54.33,15.02,88.03,21.3,6.458,2.299,172.9,45.58,12.82,4.71,rest
1465,263.7,51.47,16.5,1282,253.3,53.78,14.89,91.36,21.78,6.452,2.315,174.3,45.07,12.62,4.614,rest
1456,259.2,50.92,16.19,1286,252.8,53.26,14.89,89.94,21.39,6.502,2.299,172.7,44.59,12.62,4.698,rest
1454,260.6,50.93,16.28,1285,252.4,53.62,14.97,92.39,21.3,6.435,2.295,173.2,44.91,12.61,4.657,rest
1455,262.6,50.57,16.25,1284,252.4,53.98,14.88,88.15,21.42,6.48,2.302,172.6,44.16,12.6,4.654,rest
1455,260.6,51.35,16.29,1280,252.6,54.05,14.93,90.56,20.68,6.556,2.275,173.2,44.55,12.7,4.666,rest
1455,260.2,51.36,16.25,1287,252.8,53.66,14.96,93.16,21.33,6.443,2.311,173.8,44.38,12.6,4.619,rest
1457,262.8,52.66,16.44,1288,253,53.82,14.95,91.71,21.62,6.466,2.288,174.2,45.03,12.86,4.608,rest
1459,262.9,52.32,16.45,1288,253.6,54.39,14.98,91.34,21.1,6.472,2.321,174.3,44.59,12.77,4.695,rest
1464,263.3,52.61,16.49,1285,253,53.5,14.91,88.38,21.84,6.478,2.296,173,44.9,12.55,4.676,rest
1454,260.9,50.3,16.18,1284,252.6,53.81,14.87,90.62,21.36,6.432,2.267,172,44.56,12.44,4.638,rest
1470,262.8,50.73,16.59,1286,253.5,54.25,15,90.25,20.83,6.448,2.283,171.8,44.05,12.82,4.612,easy
1472,265.3,51.96,16.57,1287,253.3,54.11,15,90.2,21.22,6.411,2.272,173.3,44.48,12.72,4.637,easy
1473,264.2,52.35,16.59,1293,253.6,53.99,15.05,92.89,21.02,6.403,2.279,172.2,45.05,12.82,4.719,easy
1475,264.4,53,16.75,1291,254.6,54.76,15.09,87.74,21.16,6.512,2.265,173.9,44.8,12.82,4.688,easy
1476,264.8,52.82,16.65,1292,254.1,53.77,15,89.39,20.72,6.471,2.298,171.1,44.57,12.58,4.663,easy
1470,264.3,53.03,16.48,1292,254,53.86,15.05,89.73,21.49,6.445,2.282,172.1,44.05,12.55,4.686,easy
1470,262.6,51.73,16.49,1293,253,53.66,15.07,90.06,20.85,6.391,2.277,172.9,44.83,12.65,4.598,easy
1470,263.6,53.44,16.56,1291,253.8,53.42,14.97,89.86,20.71,6.377,2.282,171.8,44.4,12.77,4.728,easy
1470,265.7,52.91,16.62,1288,253.7,54,15.01,88.24,20.67,6.388,2.296,172.3,44.58,12.67,4.641,easy
1470,264.8,52.14,16.65,1291,253.7,54.23,15.07,87.4,20.76,6.371,2.305,172.8,44.59,12.72,4.65,easy
1472,264.4,52.09,16.65,1292,254.1,54.32,15.08,89.37,20.83,6.462,2.278,172.5,44.8,12.71,4.712,easy
1473,266.7,52.46,16.8,1290,254.3,54.16,15.12,89.54,20.96,6.43,2.275,174.2,44.83,12.69,4.69,easy
1477,266,52.85,16.85,1288,253.9,54.69,15.09,88.18,20.9,6.455,2.276,174.4,44.9,12.75,4.67,easy
1471,264.2,51.87,16.59,1285,253.1,54.2,14.98,88.94,21.02,6.418,2.265,174.1,44.4,12.52,4.656,easy
1470,264.7,52.01,16.56,1288,253.6,53.93,15.02,90.65,21.06,6.439,2.268,172.4,44.8,12.7,4.708,easy
1467,262.6,52.57,16.53,1285,253.3,52.97,15,91.24,21.25,6.441,2.267,174.2,44.52,12.69,4.682,easy
1469,264.1,51.21,16.54,1296,253.6,52.98,15.04,91.36,20.44,6.425,2.251,172.8,44.14,12.42,4.65,easy
1474,265.5,52.7,16.62,1292,254.8,52.69,15.01,92.78,20.5,6.324,2.276,172.6,43.16,12.33,4.624,easy
1476,265.1,50.88,16.68,1291,254.9,52.53,15.09,88.69,20.13,6.372,2.25,172.9,43.77,12.61,4.653,easy
1476,264.2,52.34,16.73,1289,254.7,52.87,15.17,86.42,20.37,6.262,2.237,171.9,44.33,12.6,4.643,easy
1465,263.5,53.88,17.21,1273,251.4,54.1,15.43,94.12,20.86,6.462,2.245,177,45.23,13.02,4.707,easy
1452,262.9,53.02,17.18,1272,251.6,54.06,15.29,93.45,20.8,6.517,2.277,177,45.34,12.85,4.698,easy
1452,261.1,51.07,17.04,1279,251.1,54.03,15.23,92.86,21.27,6.536,2.305,175.3,45.6,12.96,4.678,easy
1457,262.3,52.5,16.96,1281,252.3,54.36,15.3,94.31,21.49,6.597,2.299,176.7,46.41,12.96,4.709,easy
1458,262.4,53.18,17.08,1284,251.9,54.4,15.34,88.57,21.7,6.587,2.286,175.7,46.36,12.84,4.804,easy
1458,265.3,51.43,17.01,1285,252,54.15,15.29,94.68,21.72,6.538,2.334,175.7,46.69,13.12,4.741,easy
1462,263.8,52.55,17.05,1290,252.4,54.25,15.32,94.57,21.12,6.552,2.312,176.2,46.63,13.11,4.832,easy
1464,264.6,53.04,17.1,1288,252.8,53.92,15.41,91.81,21.9,6.584,2.323,176.6,46.56,13.15,4.846,easy
1467,264.3,53.53,17.13,1288,253.4,54.3,15.39,92.55,22.25,6.72,2.332,176.4,46.85,13.34,4.811,easy
1470,266.3,54.37,17.23,1285,252.8,54.29,15.32,91.67,21.97,6.668,2.32,175.4,46.58,13.27,4.807,easy
1463,263.4,51.92,16.98,1282,251.7,53.72,15.25,92.19,22.03,6.511,2.34,175.6,46.74,12.99,4.781,easy
1463,262.7,52.5,16.96,1287,252.4,54.28,15.25,88.12,21.86,6.539,2.281,175,46.54,13.09,4.81,easy
1464,262.5,53.67,17,1281,253.4,54.76,15.34,90.61,21.8,6.612,2.33,175.9,46.62,13.19,4.864,easy
1465,264.3,52.12,17.07,1281,253.2,53.58,15.23,94.54,21.96,6.627,2.337,175.4,46.54,13.26,4.823,easy
1468,261.6,53.14,17.12,1289,253.3,55.3,15.33,91.82,21.8,6.527,2.34,175.6,46.67,13.29,4.837,easy
1469,264.4,52.97,17.16,1289,254.2,54.57,15.34,95.28,22.13,6.628,2.323,174.8,46.6,13.24,4.839,easy
1471,265.6,51.47,17.21,1291,254,53.99,15.35,92.37,21.98,6.512,2.309,176.3,46.49,13.22,4.817,easy
1474,265.7,52.85,17.24,1285,254.4,54.76,15.31,93.23,21.81,6.567,2.319,176.7,46.58,13.08,4.843,easy
1472,264.6,53.39,17,1285,253.8,53.99,15.25,92.12,21.71,6.541,2.309,174.8,46.56,13.11,4.783,easy
1470,264.5,52.66,17,1290,253.6,53.61,15.28,88.82,21.76,6.575,2.311,174.4,46.23,13.17,4.824,easy
1472,264.9,54.12,16.9,1293,254,53.88,15.24,96.83,21.56,6.576,2.267,174.7,45.98,12.87,4.778,easy
1473,264.3,53.43,16.95,1290,254.8,53.99,15.26,93.39,21.53,6.525,2.308,174.1,46.15,13.01,4.741,easy
1472,264.5,53.41,17,1287,253.8,54.25,15.28,89.21,21.75,6.43,2.308,174.3,45.92,12.98,4.764,easy
1474,264.9,53.43,17.04,1290,254.1,53.92,15.29,89.7,21.45,6.49,2.32,175.2,46.34,13.18,4.808,easy
1478,266.1,52.79,17.17,1296,254.7,53.83,15.33,92.38,21.48,6.559,2.301,174.8,46.42,13.07,4.829,easy
1478,266.5,51.77,17.13,1298,254.3,54.61,15.34,89.63,21.84,6.565,2.334,174,46.32,13.16,4.771,easy
1478,265.1,53.45,16.94,1294,254.3,54.63,15.22,92.65,22.12,6.567,2.294,174.2,46.27,12.97,4.784,easy
1471,264.2,51.61,16.86,1288,253.6,53.89,15.24,92.54,21.72,6.491,2.305,172.7,45.99,13,4.713,easy
1472,265.6,52.95,16.79,1290,253.9,54.25,15.23,92.79,21.39,6.525,2.293,173.2,46.13,12.91,4.692,easy
1473,264.6,53.7,16.9,1291,254.7,54.7,15.27,93.36,21.5,6.5,2.306,173.9,46.15,12.78,4.715,easy
1472,265.2,52.17,16.91,1290,254.3,53.74,15.26,87.58,21.56,6.557,2.318,173.1,45.6,12.92,4.747,easy
1476,265.7,53.38,17.04,1294,255.2,53.99,15.28,90.83,21.76,6.558,2.31,175.3,45.47,12.93,4.724,easy
1477,265.3,53.18,17.05,1295,254.2,53.91,15.39,92.97,21.64,6.572,2.267,175.7,45.72,12.95,4.746,easy
1480,265.7,53.25,17.14,1296,254.9,54.28,15.43,91.07,21.09,6.493,2.287,174.3,46.05,13.04,4.763,easy
1478,265.7,52.05,16.91,1296,254.4,54.31,15.23,92.57,21.45,6.556,2.277,175.4,45.72,12.84,4.698,easy
1473,264.3,52.19,16.83,1287,253.9,54.15,15.23,88,21.42,6.388,2.268,171.7,45.63,12.84,4.693,easy
1472,264.3,51.65,16.85,1290,254.6,54.37,15.25,87.06,22.08,6.435,2.282,171.7,45.5,12.73,4.687,easy
1472,265,51.96,16.85,1288,254.6,54.76,15.28,92.73,21.26,6.449,2.278,173.4,45.35,12.68,4.688,easy
1474,266.1,51.83,16.87,1293,254.4,54.18,15.25,88.94,21.85,6.498,2.271,173.2,45.38,12.6,4.696,easy
1475,265,51.75,16.84,1292,254.5,54.3,15.32,92.51,21.61,6.374,2.266,173.1,44.98,12.86,4.654,easy
1478,266.6,52.41,16.92,1298,255.7,54.25,15.36,90.04,21.66,6.47,2.269,173.9,45.28,12.75,4.726,easy
1481,267.1,52.12,17.03,1302,255.6,54.07,15.31,92.01,21.52,6.508,2.264,173.2,44.92,12.68,4.68,easy
1477,265.4,52.11,16.67,1296,254.6,53.81,15.2,90.24,21.48,6.465,2.258,172.7,45.01,12.81,4.62,easy
1473,264.4,52.45,16.65,1294,255,54.75,15.23,91.71,21.14,6.388,2.289,171.6,44.85,12.58,4.557,easy
1473,263.7,51.08,16.67,1289,255.4,53.67,15.18,89.94,21.48,6.368,2.277,172.2,44.64,12.61,4.631,easy
1473,265.3,51.52,16.63,1287,255.1,53.38,15.23,90.98,21.41,6.333,2.241,171.3,44.63,12.58,4.62,easy
1472,263.8,51.98,16.63,1291,255.4,53.76,15.2,91.85,21.29,6.324,2.256,170.5,44.14,12.58,4.588,easy
1473,264,52.3,16.69,1293,255,53.63,15.22,89.5,21.22,6.277,2.278,170.7,44.53,12.63,4.629,easy
1475,264.9,51.16,16.76,1296,255.8,53.9,15.24,92.04,21.17,6.376,2.266,171.5,44.14,12.67,4.662,easy
1476,266,51.7,16.75,1290,255.2,54.46,15.19,89.7,21.43,6.42,2.266,171,44.12,12.6,4.606,easy
1469,264.4,51.09,16.51,1290,255.1,53.92,15.12,89.51,21.14,6.314,2.24,170.1,43.58,12.46,4.545,easy
1466,262.2,51.77,16.43,1288,254.5,54.2,15.15,90.49,21.02,6.384,2.26,170.9,43.72,12.36,4.564,easy
1466,263.4,50.72,16.47,1291,255.3,53.77,15.18,90.98,21.11,6.324,2.248,169.2,43.21,12.26,4.598,easy
1466,263.8,51.43,16.34,1294,255,54.4,15.14,89.18,21.3,6.367,2.234,169.2,43.05,12.22,4.461,easy
1465,262.8,51.51,16.44,1296,255.2,54.24,15.15,90.96,21.01,6.286,2.237,169.6,43.06,12.25,4.542,easy
1467,264.1,51.9,16.46,1293,255.9,54.07,15.22,91.61,20.82,6.341,2.25,169.4,43.41,12.33,4.524,easy
1469,264.8,52.02,16.54,1296,255.9,54.68,15.18,85.65,21.02,6.399,2.274,171.1,43.32,12.4,4.578,easy
1470,264.6,52.87,16.51,1292,255.5,54.32,15.16,89.83,21.28,6.493,2.258,169.8,43.71,12.39,4.474,easy
1464,262.9,51.42,16.26,1287,255.5,53.96,15.1,89.67,21.14,6.35,2.277,168.2,43.51,12.13,4.516,easy
1461,262.2,52.11,16.31,1295,254.8,54.24,15.09,91.29,21.08,6.372,2.265,168.4,42.89,12.27,4.536,easy
1459,263,50.67,16.29,1284,255.4,53.86,15.13,94.26,20.94,6.339,2.254,168.5,43.09,12.24,4.506,easy
1459,262.3,49.38,16.31,1288,255.7,54.33,15.15,89.24,21.06,6.389,2.244,167.7,42.91,12.24,4.487,easy
1459,264.4,50.23,16.3,1296,255.2,54.69,15.13,88.98,21.09,6.422,2.256,168.9,43.61,12.17,4.486,easy
1460,263.2,51.97,16.41,1291,254.9,54.16,15.17,89.65,21.15,6.486,2.226,168.8,43.19,12.23,4.53,easy
1463,263.8,51.15,16.36,1294,256.8,54.44,15.22,88.29,21.08,6.413,2.263,169.9,42.92,12.38,4.543,easy
1466,264,51.54,16.48,1294,256.3,54.89,15.26,93.48,21.27,6.414,2.273,169.2,43.19,12.44,4.546,easy
1465,262.5,52.92,16.36,1292,255.8,53.95,15.13,87.64,20.94,6.438,2.277,169.1,43.06,12.2,4.515,easy
1458,261.7,51.21,16.22,1289,255.7,53.42,15.11,89.44,21.2,6.362,2.259,168.6,43.08,12.32,4.48,easy
1457,261.8,51.53,16.26,1294,255.7,54.18,15.14,90.47,20.82,6.419,2.273,169.4,42.72,12.18,4.508,easy
1457,261.7,52.19,16.26,1292,255.6,54.18,15.14,90.44,21.4,6.363,2.253,170.2,43.09,12.19,4.548,easy
1459,261.6,51.02,16.33,1293,255.1,54.28,15.11,87.59,20.71,6.473,2.235,169.6,42.88,12.18,4.475,easy
1458,261.3,51.4,16.29,1291,256.6,54.88,15.15,91.09,20.83,6.346,2.251,170.3,43.08,12.22,4.5,easy
1461,263.9,51.9,16.4,1297,256.3,54.23,15.25,89.62,20.97,6.403,2.279,168.3,43.26,12.33,4.52,easy
1463,262.2,51.77,16.57,1292,256.6,55.3,15.28,90.89,21.04,6.457,2.244,170.7,43.51,12.23,4.561,easy
1466,264.8,52.63,16.59,1300,257,54.5,15.24,92.69,21.29,6.49,2.247,170.4,43.33,12.31,4.506,easy
1463,263.6,51.51,16.44,1293,256.4,54.4,15.24,88.56,21.08,6.363,2.273,170.3,43.38,12.3,4.475,easy
1461,262.5,51.3,16.43,1292,256,54.13,15.23,88.82,20.82,6.371,2.236,169.9,43.54,12.34,4.501,easy
1461,263.8,52.31,16.41,1298,256.1,54.3,15.17,87.63,21.53,6.492,2.258,170.4,43.58,12.32,4.507,easy
1463,262.7,51.72,16.51,1300,255.8,54.22,15.24,91.94,21.29,6.357,2.265,169.9,43.51,12.47,4.552,easy
1464,262.7,52.96,16.55,1305,256.4,54.46,15.16,89.97,20.83,6.449,2.258,172.9,43.23,12.34,4.552,easy
1466,262.7,52.81,16.55,1297,256.9,54.47,15.22,87.79,20.91,6.394,2.297,172.6,43.79,12.28,4.527,easy
1469,264.6,53.04,16.57,1302,258.3,54.64,15.27,87.3,21.29,6.408,2.284,170.5,43.59,12.46,4.563,easy
1472,265.6,52.6,16.75,1300,257.2,54.32,15.28,90.49,21.52,6.46,2.303,172.1,44.19,12.51,4.596,easy
1476,266.3,51.74,16.68,1297,258.3,55.21,15.22,91.92,21.19,6.525,2.301,171.4,43.88,12.47,4.585,easy
1472,266,51.89,16.64,1299,257.7,54.87,15.27,93.03,21.07,6.506,2.3,172,44,12.53,4.58,easy
1472,265.1,51.48,16.63,1298,257.4,54.85,15.3,91.35,21.11,6.526,2.304,171.5,43.91,12.5,4.637,easy
1473,265.8,51.81,16.73,1303,257.5,54.38,15.32,90.94,21.52,6.519,2.311,172.2,43.92,12.55,4.617,easy
1474,265.4,52.44,16.74,1303,258.6,55.15,15.31,86.28,21.5,6.529,2.302,172.6,44.21,12.46,4.622,easy
1475,266.7,53.39,16.73,1304,258.4,54.86,15.36,89.47,21.29,6.548,2.273,173.4,44.31,12.44,4.646,easy
1480,266.2,52.34,16.85,1306,258.9,55.25,15.33,88.53,21.35,6.452,2.309,173.2,44.36,12.69,4.591,easy
1481,268,53.42,16.88,1306,258.3,55.33,15.37,89.87,21.65,6.49,2.318,173.9,44.3,12.54,4.639,easy
1485,268.6,53.51,16.95,1301,259.2,54.63,15.32,94.11,21.75,6.529,2.303,173.7,44.71,12.68,4.646,easy
1479,266.8,52.66,16.81,1302,258.8,54.74,15.3,88.9,21.82,6.604,2.333,173,44.08,12.64,4.62,easy
1481,267,52.29,16.78,1304,258.8,54.77,15.34,89.48,21.4,6.471,2.304,173.2,44.6,12.65,4.619,easy
1482,267.7,53.36,16.9,1302,258.9,55.14,15.4,94.29,21.41,6.493,2.318,172.7,44.56,12.6,4.656,easy
1483,268.3,51.79,16.92,1303,258.9,54.69,15.41,90.74,21.14,6.569,2.313,174,44.53,12.59,4.66,easy
1484,268.5,52.57,16.98,1303,258.6,55.65,15.35,93.69,21.17,6.603,2.326,173.6,45.25,12.65,4.676,easy
1487,269.6,52.49,17.04,1310,259,55.19,15.44,89.7,21.53,6.561,2.315,175,45.08,12.89,4.732,easy
1489,270.8,53.87,17.02,1310,259.9,55.53,15.47,94.05,21.48,6.567,2.309,172.6,44.88,12.78,4.715,easy
1492,269.9,53.68,17.08,1310,260.3,55.47,15.47,93.92,21.46,6.539,2.324,174.6,44.96,12.79,4.67,easy
1490,270.5,53.67,17.02,1306,259.9,54.55,15.4,91.09,21.6,6.588,2.338,175.5,45.01,12.65,4.705,easy
1488,268.6,52.87,16.94,1309,258.9,54.83,15.4,92.28,21.61,6.565,2.312,176.4,44.8,12.7,4.678,easy
1488,268.6,53.92,16.93,1309,260,55.33,15.42,92.8,21.43,6.544,2.327,174.2,45.35,12.74,4.738,easy
1490,268.6,53.99,17.06,1309,260.5,54.98,15.44,91.47,21.4,6.589,2.344,175.1,45.03,12.78,4.651,easy
1491,269.7,53.45,17.12,1305,259.8,55.36,15.45,89.49,21.49,6.514,2.339,175.1,44.85,12.85,4.735,easy
1491,270.2,52.78,17.07,1305,259.9,55.14,15.47,90.71,21.7,6.581,2.327,175.4,45.04,12.71,4.682,easy
1494,270,52.87,17.15,1306,260.4,55.85,15.48,91.51,21.78,6.601,2.335,174.7,45.26,12.9,4.769,easy
1497,270.7,53.91,17.19,1309,260.2,55.78,15.53,93.27,21.72,6.56,2.322,176.2,45.56,12.77,4.77,easy
1498,271.8,52.15,17.23,1309,261.2,55.81,15.53,91.75,21.5,6.607,2.342,176,44.95,12.81,4.782,easy
1494,270.5,52.67,17.06,1300,260.1,55.23,15.47,91.96,21.5,6.623,2.325,174.2,45.16,12.62,4.721,easy
1491,270.2,54.75,16.98,1306,259.8,54.96,15.47,92.25,21.69,6.548,2.352,174.9,44.97,12.53,4.737,easy
1489,269.3,53.95,16.99,1309,260.2,54.9,15.49,88.71,21.24,6.499,2.322,174,44.55,12.69,4.715,easy
1490,267.9,53.45,16.98,1310,259.8,55.35,15.48,90.27,21.04,6.608,2.327,175.9,44.86,12.72,4.68,easy
1493,268.9,53.55,17.07,1307,259.8,55.06,15.51,88.85,21.72,6.519,2.339,175.4,44.98,12.88,4.703,easy
1493,271.1,54.26,17.06,1310,260.6,54.87,15.5,91.59,21.4,6.597,2.354,175.1,45.41,12.65,4.751,easy
1494,269.4,53.21,17.09,1308,260,56.13,15.53,94.18,21.45,6.623,2.337,176.8,45.14,12.84,4.763,easy
1495,270.5,54.67,17.11,1304,260.2,55.84,15.56,91.88,21.8,6.65,2.332,175.7,44.97,12.81,4.756,easy
1497,270.4,53.57,17.14,1306,260.2,55.57,15.48,90.53,21.45,6.639,2.351,174.2,45,12.87,4.742,easy
1490,269,52.79,16.92,1307,259.1,55.76,15.42,92.25,21.54,6.615,2.317,174.4,44.37,12.73,4.684,easy
1490,268.2,53.2,16.96,1306,259.6,55.6,15.41,94.2,21.46,6.61,2.326,173.9,44.8,12.63,4.683,easy
1487,269.7,51.48,16.84,1304,259.4,55.81,15.39,90.96,21.47,6.56,2.333,174.6,45.04,12.68,4.652,easy
1487,268.2,53.02,16.85,1300,259.1,55.7,15.38,92.04,21.3,6.599,2.339,173.4,44.55,12.76,4.669,easy
1487,267.4,53.22,16.82,1307,259.6,54.8,15.46,93.93,21.65,6.594,2.354,174.2,44.93,12.77,4.713,easy
1489,269.4,51.92,16.96,1309,259.6,55.55,15.53,90.08,21.38,6.502,2.328,174.8,44.69,12.66,4.73,easy
1489,269.8,54.68,16.95,1307,260.2,56.06,15.53,91.57,21.28,6.541,2.349,174.5,44.67,12.79,4.773,easy
1491,269.1,53.27,16.99,1306,260.7,55.71,15.59,92.48,21.88,6.594,2.346,175,44.8,12.81,4.716,easy
1494,270.6,54.86,17.04,1306,260.1,55.84,15.53,93.77,21.39,6.612,2.333,175.9,45.24,12.85,4.694,easy
1488,268.2,52.71,16.87,1303,259.4,55.5,15.46,90.13,21.51,6.512,2.349,174.2,44.83,12.86,4.705,easy
1485,266.9,53.01,16.84,1307,259.8,55.26,15.47,91.9,21.55,6.59,2.351,172.1,44.7,12.64,4.676,easy
1485,268.7,52.75,16.85,1306,259.2,55.69,15.5,88.96,21.21,6.639,2.347,173.4,44.91,12.5,4.692,easy
1485,269,52.61,16.78,1303,259.4,55.5,15.5,94.59,21.34,6.634,2.341,174.3,44.41,12.66,4.723,easy
1485,268.4,51.49,16.84,1303,260.1,56,15.48,91.35,21.62,6.609,2.33,173.1,44.79,12.57,4.694,easy
1487,268.7,52.91,16.86,1308,259.8,55.56,15.53,90.74,21.26,6.6,2.331,174.8,44.8,12.71,4.67,easy
1488,269.1,53.32,16.95,1304,260.4,55.72,15.56,94.46,21.34,6.637,2.329,175,44.95,12.8,4.73,easy
1491,269.9,53.82,17.01,1305,260.5,55.96,15.57,91.53,21.83,6.679,2.352,174.1,44.52,12.88,4.715,easy
1488,268.2,53.61,16.8,1300,259.6,55.57,15.45,94.23,21.48,6.613,2.34,173.3,44.55,12.71,4.704,easy
1483,266.6,53.55,16.76,1305,260.1,55.95,15.52,94.87,21.52,6.636,2.335,174.3,44.43,12.67,4.697,easy
1484,266.5,53.42,16.76,1307,259.6,55.24,15.44,89.31,21.43,6.554,2.339,173.1,44.53,12.8,4.618,easy
1483,267.1,53.99,16.8,1304,260.3,55.64,15.51,94.01,21.05,6.618,2.334,174.5,44.59,12.55,4.684,easy
1483,268.5,52.17,16.87,1305,260.5,55.35,15.52,88.53,21.31,6.651,2.334,174.5,44.86,12.81,4.652,easy
1484,269,52.59,16.86,1306,260.2,55.61,15.52,92.27,21.51,6.569,2.357,174.3,44.48,12.68,4.66,easy
1488,269.8,53.59,16.92,1304,259.9,56.06,15.56,92.32,21.74,6.643,2.347,174,44.82,12.86,4.701,easy
1489,269.1,52.71,16.98,1310,260.9,56.23,15.62,89.71,21.58,6.64,2.356,175.4,44.98,12.68,4.697,easy
1492,271.7,53.04,17.05,1306,261,55.59,15.46,91.75,21.63,6.636,2.361,175.3,44.74,12.84,4.68,easy
1485,267.2,53.11,16.79,1308,259.5,55.57,15.47,90.09,21.1,6.575,2.284,174.8,44.48,12.77,4.69,easy
1484,268,52.99,16.86,1307,259.8,55.66,15.51,91.04,21.41,6.501,2.32,175.9,44.47,12.69,4.708,easy
1484,267.4,53.01,16.89,1311,260.2,55.94,15.53,91.33,21.41,6.56,2.32,175.2,44.38,12.65,4.686,easy
1485,268.3,53.64,16.85,1308,260.2,55.48,15.53,90.33,21.33,6.617,2.343,174.3,44.82,12.7,4.667,easy
1485,269,53.95,16.87,1309,260.6,55.23,15.51,90.85,21.24,6.554,2.332,173.2,44.8,12.72,4.695,easy
1487,269.1,54.6,16.96,1309,260.9,55.59,15.53,88.33,21.33,6.558,2.333,175.3,44.91,12.75,4.712,easy
1491,269.9,54.4,17.01,1308,260.7,56.01,15.62,93.58,21.63,6.567,2.318,175.2,44.86,12.81,4.713,easy
1493,270.8,52.99,17.12,1309,261.7,56.03,15.6,91.22,21.63,6.496,2.312,175.2,44.81,12.82,4.738,easy
1495,271.6,53.07,17.13,1309,261.4,56.28,15.54,92.82,21.45,6.566,2.323,175.5,44.94,12.92,4.67,easy
1489,269.3,51.91,16.86,1306,260.1,55.53,15.49,92.46,21.61,6.564,2.335,176,45.13,12.89,4.701,easy
1488,269.2,52.95,16.85,1303,260.3,56.25,15.53,91.3,21.82,6.555,2.342,176.2,44.65,12.77,4.701,easy
1488,268.4,53.1,16.88,1307,261.3,55.87,15.58,90.81,21.41,6.51,2.322,175.9,44.81,12.85,4.704,easy
1490,269.2,53.57,16.97,1312,260.3,55.42,15.56,93.41,21.61,6.561,2.336,176.1,45.15,12.77,4.752,easy
1490,271,52.83,16.96,1311,260.9,55.5,15.55,91.9,21.42,6.529,2.324,174.9,44.99,12.82,4.741,easy
1490,269.9,54.29,17.03,1312,260.8,55.73,15.6,90.86,21.67,6.646,2.327,175.4,45.25,12.91,4.728,easy
1494,270.9,53.48,17.12,1308,261.2,55.63,15.67,94.5,21.68,6.594,2.327,174.8,45.33,12.93,4.78,easy
1497,270,54.46,17.14,1314,261.3,56.33,15.64,90.17,21.77,6.616,2.332,173.6,45.42,12.92,4.801,easy
1497,271.2,53.81,17.16,1310,261.5,55.23,15.68,91.6,21.29,6.621,2.33,175.2,45.65,13,4.807,easy
1495,268.9,52.73,17.02,1310,260.8,55.7,15.59,91.81,21.8,6.665,2.307,174.9,45.3,12.84,4.778,easy
1491,269.8,53.54,17.12,1310,261.1,55.39,15.56,92.21,21.3,6.481,2.328,174.5,45.1,13.05,4.749,easy
1493,270.2,53.77,17.04,1308,261,56.49,15.54,91.28,21.46,6.531,2.33,175.2,45.01,12.96,4.787,easy
1494,270.9,52.75,17.09,1307,261.1,56,15.6,92.91,21.5,6.569,2.311,177.5,45.24,12.88,4.683,easy
1495,270.5,52.99,17.05,1310,260.5,55.93,15.59,91.62,21.47,6.537,2.299,176.5,45.07,12.93,4.799,easy
1496,270.6,52.14,17.15,1302,261.3,56.08,15.64,92.26,21.42,6.606,2.33,175.1,45.37,12.85,4.779,easy
1499,271.3,53.34,17.18,1311,261.6,56.36,15.64,92.76,21.62,6.642,2.315,177.5,45.43,12.88,4.843,easy
1503,271.9,55.42,17.24,1312,262.7,55.91,15.65,91.64,21.3,6.604,2.315,177.3,45.15,13.12,4.822,easy
1504,273.7,54.3,17.45,1317,263.1,56.01,15.68,94.09,21.55,6.629,2.327,176.7,46.1,12.97,4.861,easy
1502,273,53.45,17.11,1309,261.4,56.22,15.59,93.78,21.49,6.568,2.343,175,45.47,13,4.794,easy
1497,270,53.56,17.12,1311,261.1,56.47,15.6,94.58,21.39,6.53,2.342,176.3,45.38,12.93,4.764,easy
1496,270.9,53.97,17.17,1310,261.7,55.99,15.62,92.86,21.48,6.554,2.311,176.7,45.11,12.88,4.814,easy
1497,271.3,54.63,17.24,1305,261.4,56.45,15.67,93.69,21.67,6.582,2.323,176.3,45.31,13.07,4.797,easy
1497,270.2,53.47,17.16,1308,261.5,56.03,15.62,94.22,21.41,6.463,2.322,177.9,45.31,12.82,4.841,easy
1498,272.1,53.77,17.26,1309,262,56.25,15.66,92.5,21.49,6.582,2.341,175.3,45.39,13.22,4.804,easy
1500,272,53.71,17.31,1309,261.8,56.83,15.63,88.68,21.36,6.538,2.32,176.5,45.78,13.02,4.785,easy
1503,273.5,54.53,17.37,1313,261.8,56.06,15.74,94.9,21.22,6.521,2.329,177.2,45.71,12.83,4.849,easy
1504,272.7,53.98,17.34,1312,261.6,56.15,15.61,91.45,21.5,6.578,2.3,177.2,45.86,12.99,4.764,easy
1495,270.6,54.57,17.1,1308,260.6,55.84,15.55,93.44,21.52,6.508,2.309,175.8,45.18,12.99,4.841,easy
1495,270.2,53.1,17.11,1308,260.9,56.05,15.61,91.83,20.94,6.501,2.271,176,45.22,12.84,4.794,easy
1497,271.5,54.19,17.18,1312,261,55.79,15.64,89.64,21.48,6.519,2.315,176.6,45.63,13.11,4.791,easy
1495,270.4,53.97,17.19,1312,260.5,55.99,15.58,90.17,21.35,6.581,2.282,176.5,45.12,12.96,4.802,easy
1497,270.4,54.54,17.18,1309,261.5,56.17,15.64,91.67,21.24,6.511,2.27,174.9,45.66,13.03,4.796,easy
1497,271.3,53.57,17.26,1311,261.5,56.52,15.66,88.45,21.06,6.425,2.291,175.1,45.3,12.99,4.853,easy
1500,270.9,54.06,17.33,1316,261.8,56.4,15.61,93.44,21.54,6.535,2.294,175.8,45.42,13.02,4.869,easy
1502,273.2,53.94,17.49,1308,261.2,56.14,15.66,93.61,21.12,6.395,2.295,176,45.88,13.08,4.829,easy
1500,271.4,52.66,17.14,1313,261.1,55.96,15.53,89.65,21.02,6.555,2.271,174.2,45.16,13.09,4.802,easy
1493,270.4,53.65,17.04,1311,259.7,55.85,15.58,93.72,21.12,6.517,2.277,176,45.35,12.89,4.742,easy
1494,269.7,52.08,17.09,1306,260.1,55.42,15.53,91.09,21.21,6.519,2.277,174.8,45.35,12.99,4.807,easy
1493,270.3,52.45,17.07,1306,260,56.13,15.51,92.22,21.22,6.426,2.264,175.3,44.93,12.81,4.769,easy
1492,269.8,53.2,17.06,1310,260.3,55.4,15.5,92.93,20.88,6.455,2.275,175.3,45.07,12.98,4.851,easy
1493,269.2,53.27,17.17,1311,260.6,55.1,15.59,89.14,21.07,6.54,2.313,175.8,45.69,13.07,4.748,easy
1494,269.3,54.51,17.2,1307,260.9,56.23,15.6,89.95,21.02,6.479,2.259,175.9,45.23,12.96,4.818,easy
1496,271.1,54.3,17.32,1306,260.7,55.58,15.59,92.01,21.11,6.436,2.281,175.9,45.52,13.05,4.845,easy
1499,271.7,54.31,17.3,1309,261.9,55.99,15.63,91.03,21.2,6.476,2.305,176.5,45.43,13.03,4.79,easy
1496,271.5,53.68,17.07,1306,261.1,55.85,15.46,90.26,21.14,6.478,2.279,174.8,44.88,12.97,4.794,easy
1490,268.8,53.69,17.05,1305,259.8,55.96,15.49,91.39,21.13,6.485,2.254,176,45.26,12.82,4.812,easy
1489,270.1,54.09,17.1,1308,260.5,56.23,15.46,90.15,21.11,6.403,2.297,174.5,44.91,13.02,4.841,easy
1489,268.6,53.77,17.05,1311,259.3,56.01,15.53,94.42,21.28,6.49,2.277,173.2,44.82,12.87,4.737,easy
1488,268.5,53.08,17.1,1307,260.2,56.12,15.52,87.32,21.23,6.436,2.248,175.3,45.02,13.02,4.767,easy
1489,271.1,53.43,17.07,1306,260.8,56.01,15.53,89.7,20.88,6.399,2.3,174.1,45.08,12.91,4.791,easy
1492,270.6,54.65,17.12,1305,260.6,55.64,15.54,89.62,21.05,6.379,2.302,176.6,45.22,12.94,4.826,easy
1495,271.5,53.54,17.18,1309,260.6,56.17,15.57,90.69,21.45,6.459,2.296,177.1,45.29,13,4.878,easy
1496,270.8,54.14,17.28,1309,261.3,55.7,15.62,91.09,21.08,6.475,2.318,177.1,45.23,13.09,4.812,easy
1494,269.8,54.41,17.05,1307,260.8,55.12,15.51,92.75,21.39,6.462,2.277,175,44.84,12.82,4.768,easy
1488,268.7,53.51,16.92,1300,260.1,55.51,15.49,88.78,21.23,6.448,2.278,175.4,45.47,12.69,4.825,easy
1487,268.1,54.27,17.02,1302,260,56.24,15.48,88.02,21.11,6.459,2.283,175.1,44.55,13.02,4.843,easy
1487,270.1,53.2,17.12,1303,260,56.23,15.47,91.36,21.06,6.478,2.283,173.9,44.79,12.94,4.769,easy
1486,269.3,53.14,16.97,1306,260.4,55.79,15.48,89.94,20.83,6.49,2.281,176.4,44.59,13.01,4.768,easy
1488,269.8,52.67,17.04,1306,260.2,56.17,15.56,90.99,20.95,6.478,2.287,175.7,45.01,13.01,4.783,easy
1490,269.4,52.59,17.12,1308,260.1,56.18,15.53,89.87,21.07,6.462,2.305,176.6,45.58,12.85,4.853,easy
1493,271.1,53.12,17.14,1305,260.8,56.43,15.57,85.48,21.5,6.524,2.299,176.6,45.24,13.05,4.84,easy
1495,270.3,53.14,17.11,1309,259.9,56.06,15.51,93.13,21.03,6.398,2.307,176,45.01,12.94,4.835,easy
1487,268.1,53.07,16.95,1304,259.7,55.51,15.52,91.89,21.34,6.531,2.32,175.6,45.18,12.81,4.778,easy
1485,268.5,54.39,16.94,1305,260.5,56.26,15.44,91.91,21.06,6.494,2.28,175,44.88,12.78,4.761,easy
1485,268.1,54.25,16.93,1308,260,55.84,15.5,92.16,20.89,6.47,2.275,176,44.87,12.98,4.77,easy
1486,269,52.88,16.97,1306,260.1,55.25,15.53,91.18,20.83,6.538,2.308,174.9,45.39,12.99,4.747,easy
1488,268.9,53.65,17.04,1308,260,55.71,15.43,90.36,21.2,6.552,2.309,175.2,45.12,12.92,4.822,easy
1489,269.7,54.28,17.06,1306,260.7,56.01,15.56,92.38,20.99,6.427,2.279,176.8,44.9,12.9,4.761,easy
1492,268.7,52.99,17.05,1305,261.4,56.04,15.55,89.93,21.22,6.467,2.263,175,44.99,12.91,4.792,easy
1494,271,53.43,17.16,1312,261.1,56.5,15.61,90.52,21.18,6.438,2.29,175.2,45.33,12.98,4.824,easy
1495,272,52.78,17.1,1308,260.8,55.74,15.48,91.69,21.27,6.517,2.296,176.9,44.99,12.88,4.778,easy
1488,270.2,52.31,16.98,1306,259.4,55.12,15.49,90.1,21.29,6.506,2.298,173.5,44.75,12.99,4.789,easy
1488,269.5,53.57,16.99,1307,259.4,55.54,15.43,92.22,20.65,6.472,2.267,175.6,45.3,12.85,4.722,easy
1487,270.1,52.91,16.95,1305,259.9,55.1,15.5,90.58,20.83,6.452,2.283,177.6,44.66,12.94,4.775,easy
1489,269.3,53.03,17.01,1309,260.3,55.72,15.53,86.52,21.12,6.408,2.295,175.1,45.07,12.74,4.815,easy
1490,270,53.7,17,1307,260.2,56.04,15.5,92.63,20.86,6.538,2.287,175.2,45.03,12.92,4.79,easy
1492,270.3,54.01,17.11,1304,260.7,55.47,15.56,95.58,21.48,6.463,2.294,176.3,45.05,13.06,4.786,easy
1495,271.3,54.61,17.05,1304,261.3,56.32,15.57,93.33,21.41,6.484,2.277,175.1,45.22,12.89,4.821,easy
1497,270.1,54.32,17.14,1309,262,56.21,15.56,92.6,20.97,6.564,2.301,176.8,45.25,13.12,4.846,easy
1497,271.7,53.74,17.08,1305,260.4,56.01,15.51,90.47,21.27,6.459,2.253,175.1,44.85,12.72,4.761,easy
1492,269.7,52.96,16.98,1305,260.3,55.51,15.48,91.1,21.34,6.497,2.269,175.6,45.04,12.95,4.725,easy
1492,268.7,53.66,16.93,1307,260.4,55.28,15.46,92.39,21.26,6.459,2.268,175.4,44.98,12.86,4.764,easy
1492,269.7,52.71,17.06,1304,260,55.63,15.5,89.47,21.16,6.49,2.299,176.9,45.1,12.91,4.79,easy
1493,270.7,53.8,17.03,1311,260.9,56.09,15.49,89.18,20.73,6.501,2.285,175.6,44.97,12.86,4.734,easy
1495,270.6,53.57,17.03,1309,261.3,55.13,15.53,92.22,21.16,6.469,2.279,176.5,44.27,12.91,4.739,easy
1496,269.9,53.96,17.17,1312,260.9,55.79,15.5,89.51,21.07,6.46,2.304,174.9,45.16,12.87,4.833,easy
1499,271.4,54.94,17.17,1314,261.2,55.9,15.57,90.06,21.67,6.538,2.277,176,45.47,12.99,4.849,easy
1500,271.3,54.57,17.27,1310,261.7,55,15.67,92.59,21.36,6.41,2.29,177.3,45.37,12.96,4.81,easy
1498,270.2,53.33,17.07,1308,260.5,55.02,15.51,91.73,21.03,6.53,2.284,175.2,45.04,12.8,4.849,easy
1496,269.4,53.83,17.05,1309,260.9,55.17,15.48,92.19,20.94,6.404,2.285,176.3,45.06,12.88,4.778,easy
1494,270.3,54.03,17.04,1310,260.4,55.71,15.51,94.88,20.82,6.454,2.297,173.9,45.38,12.96,4.824,easy
1497,271.2,53.1,17.08,1306,260.9,56.28,15.52,95.59,21.63,6.463,2.293,175.9,45.67,12.96,4.827,easy
1498,270.1,53.2,17.12,1312,261.1,55.78,15.52,91.2,21.3,6.521,2.303,176.8,45.48,12.93,4.805,easy
1500,270.6,53.17,17.2,1310,261.1,56,15.58,90.96,21.19,6.524,2.301,174.3,45.13,12.95,4.838,easy
1502,273.7,53.74,17.18,1310,261.3,56.74,15.59,91.62,21.21,6.477,2.312,176.5,45.03,13.2,4.783,easy
1503,271.3,54.38,17.32,1312,261.2,55.93,15.66,93.7,21.19,6.475,2.304,177.8,45.32,13.23,4.816,easy
1505,272.9,54.69,17.27,1312,261.1,55.38,15.53,89.04,21.16,6.539,2.297,177.2,44.96,13.1,4.813,easy
1498,270.5,53.46,16.99,1310,260.8,55.49,15.47,88.65,21.49,6.527,2.289,175.9,44.63,12.97,4.742,easy
1498,269.2,52.9,17.03,1308,260.3,54.71,15.53,94.61,21.03,6.491,2.265,176,44.74,12.89,4.702,easy
1497,270.5,54.35,17.05,1310,260.5,55.34,15.5,86.99,20.77,6.374,2.296,174,44.31,12.68,4.739,easy
1498,270.4,53.76,17.1,1314,260.6,55.55,15.51,93.85,20.46,6.339,2.28,174.5,44.11,12.52,4.743,easy
1500,270.1,53.39,17.09,1309,260.7,55.75,15.52,93.47,20.58,6.381,2.268,176,44.21,12.66,4.755,easy
1501,268.9,53.29,17.17,1310,261.1,55.54,15.52,87.97,20.88,6.419,2.268,176.1,44.53,12.77,4.786,easy
1502,271.7,54.78,17.29,1311,260.9,56.44,15.54,90.3,20.66,6.403,2.293,176.8,44.94,12.98,4.808,easy
1504,272.1,53.29,17.4,1306,260.8,56.57,15.58,90.57,21.01,6.499,2.297,178.8,46.14,13.1,4.854,easy
1496,270.6,52.91,17.18,1306,259.8,55.26,15.5,90.5,21.06,6.564,2.331,178.3,46,13.21,4.875,easy
1494,268,53.62,17.06,1309,259.6,55.89,15.45,90.03,21.53,6.582,2.284,177.8,45.78,13.24,4.821,easy
1493,270.1,52.13,17.04,1305,260,55,15.47,88.5,21.66,6.507,2.331,176,45.98,13.06,4.783,easy
1493,269.4,53.36,17.1,1305,260,55.97,15.49,88.5,21.42,6.484,2.298,175.7,45.81,13.14,4.768,easy
1493,269.1,53.37,17.07,1310,259.2,55.51,15.44,93.98,21.38,6.554,2.28,175,45.5,13.03,4.798,easy
1495,269.7,53.7,17.11,1311,260.2,55.22,15.49,90.61,21.31,6.515,2.321,176,45.42,12.8,4.84,easy
1496,271.1,53.1,17.18,1303,260,55.25,15.49,90.74,21.16,6.414,2.284,177.2,45.47,13.06,4.799,easy
1499,270,54.11,17.24,1304,260,55.39,15.49,94.84,21.25,6.532,2.295,177.3,45.78,13.14,4.873,easy
1501,271.1,53.43,17.28,1309,260.7,55.27,15.41,92.83,21.27,6.48,2.323,176.6,45.56,13.04,4.84,easy
1488,268.3,52.05,16.91,1300,257.9,55.1,15.33,92.57,21.14,6.55,2.308,177.3,45.45,12.95,4.8,easy
1483,265.5,52.35,16.92,1299,258.4,55.17,15.37,93.52,21.39,6.501,2.262,176.4,45.29,12.93,4.822,easy
1488,267.8,52.03,17.02,1307,258.4,55.02,15.41,90.38,21.39,6.509,2.299,175.4,45.6,12.88,4.78,easy
1490,267.9,52.54,17.07,1302,258.7,55.81,15.4,92.96,21.34,6.404,2.292,176,45.47,13.21,4.797,easy
1491,269.8,53.06,17.09,1304,259.4,55.82,15.41,90.54,20.71,6.455,2.294,176.9,45.22,13.09,4.824,easy
1492,269.5,53.14,17.05,1306,260.3,55.39,15.5,89.96,21.08,6.58,2.28,178.3,45.72,12.81,4.828,easy
1494,269.9,54.76,17.1,1304,259.8,55.38,15.47,91.75,21.33,6.523,2.308,175.6,45.65,13.17,4.814,easy
1496,269.7,54.42,17.17,1310,260.1,56.11,15.46,87.34,21.14,6.506,2.301,177.1,45.52,13.13,4.839,easy
1498,271.3,53.23,17.1,1306,259.9,55.61,15.43,88.27,21.18,6.582,2.277,176.4,45.44,13.1,4.817,easy
1491,268.2,54.22,17,1303,258.6,55.06,15.38,92.18,21.24,6.508,2.296,176.5,45.21,13.01,4.797,easy
1489,267.5,52.63,16.89,1301,259.6,55.21,15.39,93.94,21.22,6.44,2.284,175.6,45.45,13,4.781,easy
1490,268.9,52.36,17.01,1303,259.7,55.87,15.39,94.46,21.17,6.555,2.298,174.9,45.09,13,4.778,easy
1490,268.3,52.96,17.05,1305,259.1,55.68,15.4,92.98,21.06,6.575,2.287,176.2,45.16,12.96,4.801,easy
1491,270.1,52.39,17,1310,260.1,55.13,15.47,92.25,21.05,6.54,2.316,176.4,45.48,13.02,4.754,easy
1492,269.5,52.33,17.09,1306,259.5,56.6,15.47,89.82,21.08,6.512,2.293,178.6,45.2,13.16,4.867,easy
1494,270.2,53.25,17.21,1307,260.1,55.94,15.5,94.69,21.06,6.528,2.293,176.3,45.49,13.05,4.82,easy
1499,272.3,52.78,17.22,1304,260.7,56.22,15.53,87.54,21.49,6.498,2.31,177.6,46,12.98,4.835,easy
1501,270.9,53.56,17.14,1303,260.3,55.64,15.44,88.99,21.53,6.586,2.314,178.6,45.74,13.11,4.808,easy
1492,270.2,52.76,17,1304,259.8,55.32,15.51,92.63,21.1,6.503,2.263,175.5,45.14,13.03,4.793,easy
1492,269.1,52.54,17.09,1307,259.4,55.62,15.53,94.42,21.34,6.436,2.315,176.2,45.38,13.02,4.752,easy
1495,270.4,53.01,17.09,1306,260.1,55.75,15.52,92.89,20.68,6.482,2.294,176.4,45.63,12.94,4.824,easy
1495,270.1,53.22,17.1,1303,260.2,56.02,15.54,92.95,20.8,6.429,2.297,176.6,45.67,13.06,4.788,easy
1494,269.1,53.11,17.07,1304,259.9,55.43,15.49,88.44,21.13,6.54,2.283,176.1,45.46,13.02,4.777,easy
1497,269.8,53.02,17.14,1305,260.7,56.52,15.57,93.59,21.09,6.497,2.31,177.3,45.58,13.06,4.858,easy
1498,270.6,53.14,17.36,1303,261.1,55.97,15.63,93.65,21.07,6.527,2.276,176.9,45.88,13.25,4.877,easy
1502,272.3,54.11,17.32,1308,261.5,55.97,15.63,94.6,20.97,6.473,2.304,178.5,45.91,13.02,4.818,easy
1498,270.2,53.64,17.04,1307,260.4,56.25,15.54,94.28,21.4,6.445,2.314,177,45.39,13.01,4.828,easy
1496,269.7,52,17.08,1309,260.2,55.66,15.54,88.1,21.63,6.454,2.296,176.7,45.64,13,4.873,easy
1497,270.8,52.39,17.09,1308,260.6,56.16,15.51,93.2,21.47,6.459,2.292,177.6,45.83,13.08,4.815,easy
1498,270.7,53.27,17.13,1307,260.4,55.15,15.54,89.81,21.33,6.508,2.285,176.3,45.38,13.07,4.782,easy
1499,271.3,53.13,17.08,1311,260.5,55.61,15.54,94.61,21.27,6.498,2.315,177.3,45.02,12.94,4.853,easy
1501,270,54.87,17.12,1309,260.9,55.22,15.59,90.13,21.28,6.522,2.307,178.3,45.36,13.06,4.849,easy
1504,271.8,54.98,17.33,1305,262.1,55.76,15.62,91.79,21.36,6.473,2.292,177.1,45.87,12.98,4.945,easy
1507,273.3,54.54,17.38,1313,261.2,56.01,15.62,94.38,21.19,6.461,2.31,178,45.29,12.93,4.897,easy
1503,272.4,54.14,17.06,1305,261.1,55.25,15.54,91.78,20.54,6.397,2.295,176.2,45.52,12.84,4.848,easy
1499,270,52.56,17.1,1304,260.8,55.99,15.51,92.46,21,6.511,2.281,177.2,45.14,12.97,4.857,easy
1500,272.1,51.65,17.05,1310,260.4,55.55,15.47,92.2,20.9,6.469,2.298,176.5,45.41,12.87,4.827,easy
1500,271,52.83,17.1,1310,260.8,55.78,15.52,90.97,21.26,6.462,2.289,176.6,44.61,12.97,4.795,easy
1501,270.8,52.99,17.12,1305,261.2,55.73,15.59,89.7,20.77,6.375,2.318,175,44.78,12.82,4.803,easy
1504,271.2,53.62,17.16,1305,260.8,55.7,15.55,88.41,20.86,6.358,2.296,176.4,45.2,12.89,4.811,easy
1505,272,54.6,17.13,1313,260.9,55.63,15.61,94.55,20.74,6.482,2.275,177.6,45.39,13.03,4.866,easy
1506,273.1,52.8,17.27,1312,261.5,55.62,15.62,88.6,21.15,6.434,2.312,178.6,45.05,12.97,4.863,easy
1508,273.7,55.55,17.26,1316,261.9,55.4,15.47,89.75,21.23,6.406,2.302,177.3,45.48,12.97,4.846,easy
1502,270,53.89,17.02,1306,261.2,55.28,15.39,93.92,20.91,6.422,2.263,175.3,45.22,12.9,4.827,easy
1501,271.2,53.22,17,1311,260.5,55.71,15.45,87.75,20.76,6.444,2.298,176.5,45.3,12.73,4.833,easy
1501,271.5,54,17.04,1310,260.4,55.67,15.45,94.86,20.88,6.391,2.291,177.2,44.97,12.95,4.836,easy
1502,271.1,54.49,17.1,1305,260.3,55.65,15.44,91.11,20.93,6.427,2.273,175,44.84,12.77,4.82,easy
1501,271.4,53.92,17.12,1305,260.1,55.44,15.46,89.26,20.69,6.358,2.272,175.6,45.31,13,4.803,easy
1504,272.7,54.68,17.15,1302,260.9,55.69,15.48,93.35,21,6.466,2.304,175.6,45.04,13.21,4.873,easy
1505,273.3,54.04,17.22,1311,261,55.1,15.46,92.51,21.01,6.427,2.284,177.6,45.31,12.92,4.838,easy
1507,273.6,52.73,17.22,1311,260.2,55.68,15.5,94.74,21.39,6.451,2.27,176.7,45.3,13.01,4.809,easy
1507,272.8,53.43,17.08,1310,260,55.25,15.38,92.88,20.75,6.539,2.298,176.5,44.66,12.95,4.845,easy
1500,270.4,52.67,16.98,1308,260.3,55.73,15.4,91.08,20.96,6.367,2.241,175.7,44.91,12.92,4.821,easy
1502,271.5,54.25,17.01,1309,260.2,55.71,15.37,87.58,21.02,6.43,2.254,176.6,45.06,12.92,4.831,easy
1502,270,53.66,17.01,1308,260.3,54.7,15.37,91.67,20.78,6.39,2.274,175.7,44.68,13.01,4.815,easy
1500,270.8,53.64,17.07,1308,259.8,55.28,15.39,87.62,20.76,6.451,2.251,176.7,44.81,12.9,4.812,easy
1503,271.1,53.09,17.12,1307,259.9,55.11,15.4,88.62,20.65,6.443,2.269,176.5,44.87,13.01,4.826,easy
1504,271.4,53.77,17.17,1305,260.5,55.23,15.49,91.83,21.29,6.444,2.292,175.2,45.34,13.08,4.829,easy
1507,272.2,54.09,17.21,1308,261.3,55.68,15.46,88.44,20.81,6.477,2.287,176.8,45.47,13.02,4.828,easy
1509,274,53.81,17.29,1306,260.8,55.62,15.44,91.02,20.99,6.382,2.321,177.5,45.31,12.98,4.866,easy
1505,272.3,53.36,17.09,1307,259.8,54.82,15.34,90.41,20.81,6.477,2.276,175,45.16,12.84,4.838,easy
1500,272,53.39,17.05,1307,259,55.82,15.38,89.96,21,6.393,2.291,176.8,45.57,12.89,4.802,easy
1499,271.5,53.18,17.04,1305,259.2,55.8,15.42,89.7,20.94,6.474,2.288,176.5,44.97,13.06,4.882,easy
1499,271.7,53.38,17.11,1303,259.4,55.49,15.41,92.98,21.08,6.419,2.289,175.7,45.19,13.01,4.762,easy
1500,270.7,53.18,17,1306,259.3,55.57,15.41,88.78,21.1,6.414,2.292,175.3,44.87,13.04,4.807,easy
1501,270.7,54.39,17.05,1310,259.5,55.81,15.45,92.33,20.79,6.446,2.299,178.2,45.16,13.14,4.858,easy
1505,272.3,54.04,17.23,1309,260,55.46,15.48,94.73,21.1,6.439,2.287,177.4,45.54,13.1,4.843,easy
1506,273.6,53.88,17.22,1305,260.4,55.43,15.45,91.32,20.81,6.441,2.283,177.2,45.42,13.06,4.788,easy
1529,279,57.43,17.88,1306,259.2,55.77,15.38,90.52,21.02,6.333,2.244,176.4,45.77,13.09,4.907,rest
1532,279.3,57.23,17.92,1311,259.5,55.68,15.29,93.22,20.99,6.318,2.263,176,45.67,13.28,4.82,rest
1527,279,56.62,17.75,1305,259.4,54.35,15.33,92.54,20.99,6.351,2.242,176.1,45.51,13.01,4.86,rest
1523,277.3,56.53,17.67,1309,259.1,55.47,15.3,91.86,20.83,6.396,2.285,176.5,45.42,12.99,4.859,rest
1522,276.7,56.11,17.75,1309,259,54.81,15.31,94.98,21.04,6.346,2.266,176.3,45.26,13.1,4.85,rest
1523,278.6,55.56,17.7,1305,258.9,55.15,15.25,89.28,21.16,6.358,2.266,177.3,45.83,13.03,4.825,rest
1523,277.5,56.6,17.65,1306,259.5,55.84,15.27,91.25,20.8,6.409,2.243,176.9,45.59,13.13,4.783,rest
1523,277,56.49,17.7,1299,259.2,55.24,15.26,90.79,21.14,6.414,2.254,177.6,45.67,13.02,4.851,rest
1524,278.1,56.22,17.77,1302,260,55.31,15.3,89.77,21.11,6.409,2.273,177.8,45.78,13,4.848,rest
1525,278.8,56.66,17.72,1307,259.3,55.64,15.32,94.81,20.77,6.343,2.247,177.1,45.92,13.17,4.856,rest
1523,276,55.87,17.55,1303,258.7,55.64,15.22,94.64,21.33,6.412,2.272,176.1,45.61,12.91,4.76,rest
1518,276.7,54.11,17.5,1304,257.8,55.7,15.25,91.04,21.17,6.388,2.243,177.2,45.4,13.04,4.768,rest
1516,274.6,55.96,17.47,1302,258.4,54.89,15.24,92.23,21.04,6.372,2.262,176.3,45.23,12.84,4.836,rest
1515,275.8,54.95,17.44,1304,258.8,54.92,15.23,93.89,20.95,6.288,2.234,174.9,44.93,12.93,4.78,rest
1515,276.4,55.86,17.38,1301,258,54.75,15.22,96.1,21.59,6.376,2.251,175.5,44.91,12.99,4.781,rest
1517,276.1,55.36,17.46,1302,258.7,54.85,15.3,95.77,20.91,6.413,2.277,175.6,45.46,12.95,4.845,rest
1519,277.4,55.58,17.57,1304,259,55.03,15.3,93.86,21.06,6.4,2.257,176.4,45.3,13.06,4.857,rest
1522,276.2,56.22,17.58,1304,258.8,54.9,15.28,92.98,21.08,6.464,2.236,175.1,45.44,12.98,4.771,rest
1517,275.5,55.87,17.38,1300,258.7,54.91,15.18,91.31,21.13,6.412,2.272,174.6,44.91,13.01,4.756,rest
1512,274,53.75,17.27,1300,258.9,54.95,15.23,92.83,20.97,6.398,2.237,174.9,44.58,13.04,4.78,rest
1511,275,53.57,17.35,1300,258,54.7,15.18,94.84,21.11,6.343,2.28,174.1,44.91,12.8,4.74,rest
1511,272.7,54.84,17.31,1294,258.3,54.88,15.2,93.95,20.96,6.352,2.272,174.5,44.47,12.7,4.744,rest
1508,272.9,54.42,17.3,1298,258.3,54.44,15.18,91.29,20.73,6.368,2.278,174.8,44.9,12.77,4.793,rest
1509,272.6,53.72,17.35,1300,257.4,54.81,15.19,92.5,20.76,6.368,2.228,175.4,44.69,12.68,4.699,rest
1507,274.6,55.23,17.29,1297,257,54.75,15.17,92.41,20.88,6.312,2.269,174.6,44.85,12.91,4.782,rest
1507,274.5,54.16,17.26,1298,256.9,54.59,15.11,92.21,20.65,6.482,2.241,174.3,44.74,12.76,4.733,rest
1499,271.2,53.55,17,1286,255.6,53.37,15.04,91.87,20.88,6.282,2.229,174.1,44.44,12.67,4.667,rest
1495,271.9,52.18,17.06,1289,255.8,54.06,15.03,92.7,20.94,6.333,2.281,172,44.21,12.45,4.69,rest
1491,270.9,54.92,16.98,1286,255.9,54.08,15.03,90.05,20.89,6.402,2.259,174.6,44.32,12.6,4.649,rest
1489,268.9,54.28,16.88,1282,255.7,54.23,15,89.84,20.71,6.303,2.25,173.3,44.06,12.61,4.673,rest
1486,269.5,52.29,16.96,1282,254.5,54.11,14.97,91.4,20.52,6.286,2.25,171.8,43.55,12.69,4.677,rest
1479,268.2,51.92,16.82,1270,252.1,53.01,14.77,90.8,20.61,6.333,2.221,173.7,43.61,12.65,4.704,rest
1454,263.8,53.13,16.55,1241,246.3,52.77,14.55,89.78,20.97,6.44,2.25,173.3,44.15,12.61,4.729,rest
1428,261.1,50.3,16.37,1231,246.2,52.23,14.43,88.74,20.56,6.335,2.276,172.4,44.19,12.41,4.696,rest
1421,259,50.22,16.25,1234,246.3,52.62,14.57,88.96,20.73,6.29,2.233,172.1,43.8,12.37,4.605,rest
1435,261.8,51.93,16.44,1263,251.9,53.56,14.83,90.13,20.38,6.338,2.238,169.9,43.52,12.44,4.618,rest
1463,266.2,51.75,16.64,1282,253.7,53.57,14.95,89.75,20.67,6.318,2.263,171.9,43.97,12.51,4.624,rest
1469,266.4,52.75,16.68,1278,254.1,53.65,14.96,92.81,20.9,6.335,2.261,172.8,43.12,12.35,4.676,rest
1466,266.1,52.39,16.73,1270,252.2,52.48,14.8,96.03,20.69,6.31,2.268,173.1,43.99,12.55,4.663,rest
1454,263.4,52.54,16.52,1256,250.1,52.98,14.72,91.1,20.63,6.267,2.23,172.7,43.78,12.51,4.6,rest
1442,262.8,52.57,16.58,1259,250.6,53.59,14.86,90.31,20.75,6.235,2.256,173.5,44.12,12.52,4.644,rest
1462,265.9,53.24,16.7,1271,252.4,53.37,14.89,93.3,20.6,6.242,2.275,172.3,43.57,12.48,4.641,rest
1462,264.9,52.02,16.54,1273,252.6,54.05,14.78,86.84,20.66,6.324,2.257,171.7,43.41,12.44,4.63,rest
1455,262.7,52.7,16.4,1255,248.1,52.43,14.6,91.31,20.75,6.373,2.244,173.1,43.61,12.4,4.666,rest
1429,259.3,50.92,16.3,1238,246,51.79,14.44,93.04,20.44,6.339,2.227,170.1,43.6,12.4,4.653,rest
1413,257.6,50.51,16.18,1227,244.3,52.33,14.43,91.6,20.48,6.284,2.249,171.3,43.65,12.47,4.561,rest
1411,257.7,50.84,16.25,1231,244.6,52.68,14.42,92.75,20.6,6.277,2.22,171.7,43.11,12.42,4.592,rest
1416,259.1,49.66,16.26,1236,244.6,51.61,14.44,91.39,20.34,6.192,2.223,170.4,43.65,12.39,4.599,rest
1418,258.9,52.52,16.27,1233,245.3,52.11,14.44,91.26,20.38,6.311,2.228,170,43.89,12.47,4.629,rest
1423,258.4,51.89,16.36,1233,245.9,52.07,14.45,90.8,20.39,6.308,2.272,171.6,43.49,12.52,4.621,rest
1415,258.4,51.68,16.16,1233,245.9,51.85,14.46,88.84,20.2,6.262,2.235,173.3,43.69,12.44,4.631,rest
1418,257.4,52.45,16.32,1248,248.1,53.02,14.66,89.58,20.93,6.388,2.258,173.7,43.57,12.49,4.664,rest
1444,262.7,52.66,16.62,1271,252.4,53.2,14.9,95.55,20.83,6.381,2.297,173.6,44.05,12.53,4.686,rest
1465,266.3,52.71,16.86,1276,253.8,54.15,14.95,91.77,21.01,6.359,2.234,174.4,44.09,12.64,4.69,rest
1471,266,53.25,16.92,1281,253.1,54.08,14.93,92.44,20.61,6.425,2.298,173.7,44.58,12.74,4.647,rest
1473,267,52.34,16.99,1277,254.2,54.29,15,92.5,20.88,6.365,2.287,174.6,44.27,12.9,4.766,rest
1476,269,52.24,17.01,1280,254.6,54.2,15.02,94.35,21.18,6.324,2.28,175.8,44.84,12.75,4.796,rest
1478,268.1,53.57,17.11,1281,254.4,52.88,15.01,93.58,20.94,6.489,2.307,175.8,44.75,12.95,4.738,rest
1475,268.7,52.23,16.93,1280,254.2,53.36,14.95,93.27,20.87,6.422,2.281,176.8,45.1,12.66,4.728,rest
1474,268.1,52.27,16.92,1282,254,54.62,15.02,91.53,21.33,6.46,2.263,176.1,44.56,12.98,4.686,rest
1473,266,53.96,17.07,1272,252.9,54.21,15.08,92.31,21.22,6.444,2.263,176.2,45.01,12.86,4.702,rest
1466,266.1,53.6,17.02,1277,252.7,53.5,15.07,95.99,21.11,6.364,2.248,176.6,45.57,12.9,4.657,rest
1469,266.8,54.38,17.05,1278,253.4,53.72,15.11,93.63,21.5,6.422,2.269,175.3,45.73,12.77,4.726,rest
1475,269.3,53.91,17.1,1281,254.9,54.7,15.09,95.37,21.54,6.484,2.265,176.1,45.92,12.87,4.722,rest
1481,268.3,53.83,17.21,1285,255.3,54.29,15.11,94.69,20.99,6.457,2.259,177.8,45.96,13.14,4.786,rest
1482,269,54.37,17.24,1281,254.7,54.16,15.1,92.46,21.21,6.498,2.276,176.8,46.21,13.02,4.686,rest
1477,268.6,52.8,17.01,1278,254.8,54.48,15.06,94.47,21.59,6.49,2.262,176.8,46.07,13.07,4.788,rest
1477,267.3,51.75,17.06,1281,254.7,54.55,15.05,93.99,21.59,6.464,2.302,176,46.35,12.97,4.793,rest
1480,268.7,53.85,17.15,1284,254.9,54.65,15.12,92.18,21.45,6.501,2.285,176.2,46.19,13.21,4.791,rest
1481,269.1,53.45,17.16,1284,254.7,54.17,15.11,94.8,21.68,6.477,2.27,176.3,45.99,13.05,4.721,rest
1473,268.4,53.77,17.3,1281,253.7,54.6,15.2,90.17,21.52,6.477,2.274,177.2,46.3,12.97,4.779,rest
1476,268.7,54.3,17.26,1282,254.1,55.08,15.21,95.96,21.62,6.48,2.27,177.6,46.53,13.24,4.759,rest
1484,270.1,54.79,17.48,1286,254.8,54.96,15.28,90.28,21.65,6.444,2.266,178,46.41,13,4.875,rest
1489,270.5,55.05,17.38,1288,255.2,54.02,15.17,94.2,21.63,6.589,2.302,177.5,46.01,13.32,4.773,rest
1483,269.8,54.9,17.28,1286,255.3,54.51,15.17,89.14,21.72,6.467,2.274,177.7,46.64,13.11,4.83,rest
1482,270.6,53.5,17.27,1286,255.1,54.18,15.16,90.97,21.64,6.489,2.268,178,46.59,13.11,4.842,rest
1484,271.3,54.19,17.26,1281,255.7,54.48,15.1,90.39,21.32,6.502,2.29,177,46.66,13.2,4.759,rest
1481,269.4,54.6,17.19,1272,252,54.08,14.82,95.07,21.3,6.562,2.267,177.9,46.47,13.1,4.774,rest
1444,262.2,50.98,16.72,1233,245,52.55,14.5,92.98,21.99,6.421,2.252,175.9,46.46,12.97,4.805,rest
1414,259.4,52.05,16.56,1228,244.3,52.73,14.42,92.7,21.68,6.509,2.279,177.1,46.66,13.32,4.779,rest
1416,260.9,51.85,16.66,1231,244.3,52.96,14.49,92.17,21.97,6.496,2.276,174.5,46.33,13.13,4.883,rest
1412,259.1,50.79,16.47,1232,245.4,52.65,14.57,90.98,21.61,6.386,2.288,174.3,46.54,13.15,4.803,rest
1428,261.7,53.01,16.71,1257,250.4,53.54,14.78,91.36,21.22,6.496,2.279,175.1,46.4,13.18,4.859,rest
1456,265.5,52.69,16.81,1272,252.7,53.15,14.87,90.02,21.33,6.48,2.288,175.6,45.73,13.08,4.847,rest
1461,266.9,53.05,16.83,1267,253,53.93,14.89,93.2,21.28,6.466,2.295,172.3,45.22,12.84,4.828,rest
1459,264.2,54.49,16.83,1266,251.5,53.61,14.85,96.23,21.39,6.415,2.266,172.7,45.16,12.98,4.847,rest
1459,266.1,54.23,16.89,1263,252.1,53.49,14.8,88.4,21.28,6.376,2.263,172.8,45.1,13.11,4.832,rest
1461,266.6,53.43,16.92,1274,252.9,54.47,14.9,90.5,21.1,6.385,2.281,172.3,45.22,12.95,4.82,rest
1467,266.2,53.64,16.88,1273,253,53.82,14.82,93.3,21.09,6.443,2.257,173,44.93,12.92,4.831,rest
1463,266.8,52.78,16.77,1272,252.1,53.73,14.87,88.36,20.9,6.418,2.276,174.6,44.68,12.84,4.851,rest
1462,265.8,52.36,16.78,1273,252.4,53.84,14.8,89.34,21.27,6.44,2.244,173.3,45.2,12.85,4.749,rest
1462,265.1,53.64,16.8,1271,252.1,54.13,14.86,94.23,20.89,6.389,2.251,173.4,44.95,12.88,4.801,rest
1462,266,52.25,16.7,1270,252.3,53.92,14.8,92.12,21.04,6.327,2.229,173.9,45.15,12.92,4.816,rest
1461,264,52.93,16.8,1273,253,53.66,14.87,93.49,20.83,6.372,2.242,173.8,44.7,12.9,4.829,rest
1464,266.1,52.93,16.82,1276,253.1,53.32,14.89,93.14,21.39,6.355,2.237,172.6,44.98,12.89,4.834,rest
1466,267.7,53.09,16.89,1275,253.6,54.22,14.84,91.27,20.86,6.294,2.257,173.6,44.64,12.89,4.808,rest
1462,264.3,52.4,16.62,1270,252.1,53.05,14.77,90.72,20.96,6.275,2.242,171.7,44.95,12.91,4.759,rest
1457,262.7,53.57,16.6,1278,252.3,53.32,14.81,93,20.97,6.313,2.242,173.1,44.62,12.71,4.762,rest
1456,264.1,52.36,16.61,1275,252.4,53.29,14.78,92.32,20.58,6.347,2.236,171.7,44.39,12.82,4.709,rest
1457,264.3,53.1,16.62,1268,252.3,53.44,14.71,89.5,20.83,6.343,2.223,171.6,44.12,12.82,4.725,rest
1456,264.1,51.52,16.63,1269,251.8,53.3,14.77,94.04,20.64,6.294,2.211,171.2,44.3,12.59,4.728,rest
1457,264,52.16,16.62,1271,252.2,53.39,14.72,89.47,20.56,6.346,2.237,172.1,43.93,12.81,4.77,rest
1459,265,52.3,16.73,1275,253.1,53.52,14.78,93.27,20.92,6.297,2.204,172.1,44.89,12.86,4.755,rest
1460,265.1,52.01,16.53,1269,251.8,53.37,14.71,88.16,20.74,6.315,2.239,170.9,44.21,12.73,4.744,rest
1450,263.1,51.82,16.41,1271,251.1,53.61,14.67,95.4,20.87,6.217,2.201,171.4,44.56,12.55,4.769,rest
1449,262.3,51.7,16.38,1272,251,52.3,14.65,92.63,20.6,6.264,2.195,170.8,43.92,12.59,4.708,rest
1448,263.1,50.81,16.39,1268,252.3,53.17,14.65,92.21,20.71,6.381,2.215,170.2,43.75,12.57,4.723,rest
1447,260.3,52.98,16.4,1270,250.9,52.95,14.67,93.05,20.37,6.267,2.195,171.3,43.66,12.59,4.73,rest
1448,260.8,52.12,16.41,1269,250.7,53.19,14.62,91.5,20.74,6.245,2.183,170.3,43.78,12.46,4.69,rest
1451,261.6,52.42,16.52,1269,251.9,52.72,14.64,87.64,20.84,6.285,2.188,169.2,43.97,12.52,4.705,rest
1453,264.1,53.42,16.55,1269,251.4,53.62,14.73,89.89,20.85,6.246,2.197,172.2,44.24,12.59,4.729,rest
1455,264.9,53.2,16.46,1266,251.8,53.11,14.61,91.77,20.64,6.316,2.198,170.4,43.89,12.59,4.702,rest
1444,260.7,50.51,16.21,1265,251.7,53.14,14.57,91.06,20.84,6.212,2.186,169.5,43.63,12.37,4.662,rest
1443,260.5,51.76,16.22,1265,250.4,53.31,14.53,90.29,20.49,6.28,2.188,170.8,43.87,12.45,4.652,rest
1444,261.7,50.53,16.27,1266,250.5,52.82,14.58,91.65,20.84,6.195,2.196,170.6,43.71,12.39,4.724,rest
1443,260.6,50.56,16.26,1267,251.2,53.59,14.55,91.6,20.62,6.221,2.188,169.6,43.85,12.54,4.706,rest
1446,260.5,50.93,16.29,1269,250.6,53.19,14.68,89.62,20.25,6.259,2.173,170.6,43.4,12.42,4.645,rest
1448,261.7,51.81,16.48,1271,251.5,53.12,14.64,88.25,20.52,6.3,2.145,170.4,43.85,12.82,4.743,rest
1452,262.8,52.01,16.45,1271,252.1,53.46,14.74,89.49,20.42,6.326,2.164,172.3,43.89,12.72,4.73,rest
1456,263.1,52.37,16.56,1274,251.9,53.16,14.69,94.04,20.58,6.351,2.209,171.1,43.51,12.53,4.685,rest
1448,262.4,50.86,16.26,1273,251.8,53.13,14.62,87.79,20.33,6.255,2.189,169,43.71,12.53,4.719,rest
1446,260.8,52.71,16.21,1267,251.1,52.61,14.6,90.37,20.91,6.189,2.155,170.4,43.87,12.39,4.733,rest
1446,260.2,51.81,16.26,1272,251.9,52.95,14.63,91.5,20.35,6.223,2.175,170.5,43.82,12.71,4.714,rest
1447,261.4,52.05,16.34,1271,251.6,53.35,14.67,91.28,20.1,6.19,2.18,170.2,43.65,12.44,4.724,rest
1447,262.4,50.84,16.35,1272,251.8,53.63,14.66,100.1,20.59,6.308,2.181,170.4,43.63,12.54,4.715,rest
1452,262.4,50.86,16.44,1276,252.4,53.65,14.73,88.59,20.9,6.175,2.183,170.1,43.74,12.63,4.662,rest
1454,263.6,51.23,16.51,1275,253.1,54.6,14.79,90.09,20.41,6.172,2.206,171.7,44.4,12.6,4.762,rest
1458,263.9,52.51,16.55,1280,252.7,53.46,14.75,93.93,20.62,6.28,2.202,169.9,44.31,12.59,4.67,rest
1450,262.7,51.66,16.32,1273,251.8,54.27,14.67,91.33,20.45,6.225,2.205,171.4,43.85,12.61,4.659,rest
1449,262.8,51.56,16.35,1272,251.4,53.24,14.68,89.92,20.69,6.254,2.18,168.8,44.17,12.56,4.703,rest
1450,261.7,51.5,16.26,1276,252.9,53.41,14.72,91.58,20.74,6.265,2.186,172.1,44.5,12.64,4.675,rest
1450,262.7,52.28,16.4,1274,252.4,52.78,14.77,90.16,21.19,6.283,2.214,170.4,44.64,12.64,4.704,rest
1453,262.7,52.46,16.42,1277,252.4,53.73,14.73,90.86,20.63,6.298,2.197,171.8,44,12.75,4.68,rest
1457,262.2,53.45,16.53,1280,253.6,53.58,14.83,91.89,20.85,6.204,2.209,172.7,44.76,12.72,4.75,rest
1460,263.8,51.89,16.63,1280,253.8,53.64,14.83,93.08,21.15,6.242,2.211,171.7,44.7,12.68,4.707,rest
1462,264.6,52.7,16.62,1274,253.9,53.97,14.79,91.41,21.22,6.335,2.183,171.8,44.53,12.7,4.695,rest
1455,262.9,50.79,16.34,1279,252.9,54.54,14.78,90.98,21.15,6.34,2.177,170.5,44.22,12.83,4.697,rest
1454,263.3,51.35,16.38,1275,252.6,53.41,14.76,87.31,21.27,6.359,2.213,172.3,44.71,12.73,4.685,rest
1456,262.2,51.81,16.42,1277,252.9,53.85,14.83,91.91,20.59,6.403,2.21,172.5,44.91,12.69,4.672,rest
1455,262.8,51.86,16.42,1280,253.3,53.64,14.83,92.89,20.67,6.238,2.208,172.7,44.39,12.76,4.723,rest
1457,263.4,51.58,16.47,1277,253.1,53.63,14.84,93.5,20.76,6.306,2.194,171.8,44.21,12.64,4.707,rest
1460,264.1,52.95,16.54,1283,254.6,54.12,14.88,89.99,20.49,6.317,2.217,172.4,44.31,12.54,4.755,rest
1461,263.7,52.71,16.63,1274,255,54.05,14.96,91.19,20.87,6.318,2.185,173.6,44.45,12.74,4.758,rest
1465,265.7,52.93,16.65,1280,254.2,53.67,14.86,88.18,20.9,6.274,2.218,172.2,44.23,12.77,4.687,rest
1458,263,51.75,16.4,1277,252.9,54.04,14.83,92.5,21.45,6.248,2.182,171.8,44.14,12.64,4.711,rest
1455,262.3,51.87,16.41,1279,254.1,53.13,14.84,94.07,20.82,6.316,2.231,170.7,43.94,12.55,4.718,rest
1456,262.9,52.05,16.4,1278,252.9,54.58,14.83,90.96,20.86,6.291,2.198,171.6,44.17,12.63,4.739,rest
1458,263.4,51.19,16.45,1284,254,54.16,14.89,91.37,20.75,6.307,2.21,171.4,44.18,12.58,4.638,rest
1457,262.5,52.03,16.5,1279,254.3,53.75,14.87,91.14,20.71,6.281,2.227,170.3,44,12.7,4.748,rest
1458,264.4,52.22,16.56,1283,253.7,54.21,14.92,90.67,21.06,6.28,2.205,171.3,43.78,12.67,4.693,rest
1461,264.2,52.88,16.59,1286,254.7,53.99,14.94,90.92,20.65,6.302,2.204,172,44.1,12.57,4.701,rest
1464,265.4,52.8,16.63,1278,254.1,53.71,14.9,92.6,21.19,6.251,2.183,172.3,43.67,12.48,4.702,rest
1458,263.3,50.82,16.44,1283,253.4,53.96,14.8,93.16,20.1,6.262,2.177,170.4,43.05,12.47,4.673,rest
1456,261.4,52.23,16.4,1283,253.8,54.02,14.86,96.1,20.34,6.163,2.188,170.6,43.12,12.42,4.654,rest
1457,263.3,52.68,16.44,1278,253.6,53.56,14.88,90.64,20.45,6.198,2.203,170.2,43.2,12.54,4.627,rest
1456,262.3,52.42,16.5,1280,253.5,53.29,14.86,89.36,20.26,6.226,2.214,170.6,43.05,12.38,4.666,rest
1457,263.6,52.13,16.43,1282,254.3,54.19,14.9,91.24,20.42,6.24,2.224,170,43.61,12.44,4.682,rest
1459,262,52.01,16.54,1282,254.1,53.85,14.85,88.02,20.54,6.184,2.203,169.4,43.64,12.41,4.651,rest
1462,264.7,52.66,16.62,1283,254.5,54.32,14.93,93.94,20.48,6.293,2.203,172,44.03,12.58,4.694,rest
1464,265,52.71,16.73,1284,255.2,54.62,14.99,90.85,20.92,6.334,2.233,172.1,44,12.72,4.725,rest
