A-DC1,A-DC2,A-DC3,A-DC4,A-DC5,A-DC6,A-DC7,A-DC8,B-DC1,B-DC2,B-DC3,B-DC4,B-DC5,B-DC6,B-DC7,B-DC8,condition
1268.000,256.500,89.280,24.470,1341.000,254.800,77.180,20.580,347.100,87.920,24.600,9.020,519.000,133.500,41.190,14.340,baseline
1263.000,254.800,88.790,24.420,1345.000,256.300,77.160,20.610,343.300,87.790,24.630,9.005,517.900,132.800,41.370,14.370,baseline
1264.000,256.400,89.040,24.440,1343.000,256.100,77.440,20.620,344.000,87.800,24.690,9.001,518.800,133.300,41.450,14.390,baseline
1267.000,256.400,89.280,24.520,1342.000,255.000,77.420,20.680,343.500,87.750,24.730,9.002,520.000,133.500,41.390,14.430,baseline
1269.000,257.800,89.290,24.600,1348.000,255.300,77.790,20.730,346.900,87.730,24.640,9.024,520.200,134.000,41.580,14.470,baseline
1274.000,259.200,89.870,24.850,1347.000,257.000,77.740,20.770,345.800,88.300,24.700,9.062,522.500,134.300,41.650,14.570,baseline
1280.000,260.400,90.410,24.940,1354.000,257.200,78.120,20.850,348.200,87.990,24.740,9.083,524.000,134.800,42.040,14.690,baseline
1284.000,260.900,91.370,25.190,1360.000,258.000,78.390,20.910,346.200,88.010,24.820,9.124,526.400,136.100,42.130,14.780,baseline
1291.000,263.900,91.800,25.330,1358.000,259.000,78.410,21.010,348.000,88.940,24.890,9.146,526.500,136.000,42.480,14.940,baseline
1297.000,264.600,92.670,25.500,1358.000,259.400,78.670,21.080,347.300,88.930,24.940,9.170,530.200,137.000,42.770,15.060,baseline
1304.000,265.700,92.190,25.500,1359.000,258.200,78.290,20.880,346.500,89.500,25.060,9.167,530.800,136.600,42.270,14.750,baseline
1288.000,261.600,91.080,25.020,1356.000,257.900,78.040,20.900,346.200,88.430,24.880,9.102,524.000,135.300,42.040,14.710,baseline
1287.000,260.100,90.940,25.070,1355.000,257.800,78.250,20.840,347.600,88.310,24.780,9.094,525.100,135.400,42.060,14.700,baseline
1290.000,262.400,91.620,25.140,1363.000,258.100,78.320,20.890,349.800,88.180,24.890,9.123,525.300,135.300,42.100,14.780,baseline
1291.000,260.600,91.290,25.150,1357.000,258.200,78.370,20.890,344.000,88.840,24.890,9.117,525.500,135.400,42.160,14.790,baseline
1294.000,262.700,91.450,25.320,1357.000,258.400,78.390,20.990,345.400,88.690,24.930,9.141,526.100,136.300,42.230,14.850,baseline
1298.000,263.500,92.380,25.470,1362.000,258.900,78.860,21.040,346.000,88.760,25.010,9.143,528.600,136.600,42.460,14.950,baseline
1301.000,264.200,92.170,25.680,1361.000,259.600,78.670,21.080,344.000,89.040,24.930,9.152,529.000,136.700,42.630,14.990,baseline
1306.000,266.300,93.080,25.730,1362.000,259.600,79.170,21.100,346.700,89.230,25.080,9.175,531.200,137.500,42.780,15.090,baseline
1312.000,267.900,93.620,25.940,1365.000,261.000,79.190,21.190,350.200,88.790,25.120,9.206,530.700,138.000,43.070,15.210,baseline
1316.000,268.000,93.590,25.800,1362.000,259.700,78.630,21.000,354.800,89.350,25.110,9.229,531.900,137.100,42.580,14.930,baseline
1302.000,264.200,92.210,25.470,1357.000,259.700,78.660,21.010,348.600,88.550,24.980,9.146,528.700,136.300,42.380,14.840,baseline
1301.000,264.200,92.670,25.470,1359.000,259.200,78.640,21.070,350.900,88.840,24.940,9.117,528.300,136.600,42.420,14.920,baseline
1305.000,265.100,92.900,25.590,1367.000,259.000,78.830,21.050,349.200,88.900,24.870,9.164,527.900,136.400,42.550,14.930,baseline
1304.000,266.300,92.480,25.600,1361.000,259.500,78.890,21.080,346.000,88.980,24.900,9.141,530.900,136.500,42.540,14.910,baseline
1307.000,265.500,93.260,25.710,1364.000,259.700,79.280,21.150,350.700,88.810,24.930,9.139,529.700,136.900,42.710,15.030,baseline
1311.000,267.100,93.560,25.960,1365.000,260.600,79.240,21.160,347.800,88.640,24.950,9.158,532.200,137.400,42.810,15.060,baseline
1317.000,268.100,93.740,26.060,1365.000,261.500,79.610,21.310,348.300,88.860,25.050,9.206,533.700,137.900,43.040,15.190,baseline
1322.000,269.000,94.740,26.310,1371.000,262.200,79.490,21.300,349.100,89.270,25.060,9.190,536.700,139.000,43.250,15.300,baseline
1324.000,269.400,94.100,25.970,1366.000,259.400,79.250,21.080,352.500,90.010,25.030,9.191,533.600,137.500,42.860,14.950,baseline
1308.000,265.900,92.910,25.640,1361.000,259.400,78.840,21.040,350.500,88.630,24.970,9.112,529.300,136.200,42.430,14.850,baseline
1304.000,265.600,92.840,25.650,1360.000,259.600,78.680,21.040,348.500,88.740,24.930,9.118,530.400,136.800,42.350,14.880,baseline
1307.000,266.100,93.020,25.640,1362.000,259.100,78.850,21.050,349.100,89.220,24.900,9.137,530.000,136.900,42.540,14.970,baseline
1306.000,265.600,93.070,25.630,1360.000,258.800,78.940,21.060,347.700,88.890,24.950,9.162,530.200,136.900,42.620,14.940,baseline
1308.000,264.700,93.560,25.720,1363.000,259.200,78.860,21.080,346.200,88.430,24.920,9.129,530.600,136.500,42.680,15.000,baseline
1311.000,266.500,93.810,25.930,1364.000,260.000,78.950,21.110,348.200,88.430,25.000,9.172,532.000,137.200,42.810,15.130,baseline
1315.000,268.100,94.180,26.070,1362.000,260.900,79.370,21.200,349.200,89.160,24.990,9.187,532.200,137.800,43.040,15.170,baseline
1320.000,269.600,94.430,26.180,1369.000,260.300,79.240,21.130,347.300,89.400,25.040,9.224,534.400,138.400,43.190,15.170,baseline
1314.000,267.100,92.770,25.780,1362.000,258.400,78.680,21.020,349.600,88.990,24.940,9.134,529.200,136.600,42.430,14.810,baseline
1300.000,265.200,92.420,25.520,1359.000,258.600,78.450,20.920,345.000,88.540,24.870,9.080,526.900,136.000,42.290,14.820,baseline
1297.000,262.900,92.280,25.460,1355.000,258.000,78.410,20.980,346.400,88.130,24.790,9.102,526.800,136.000,42.150,14.810,baseline
1299.000,265.100,92.100,25.560,1354.000,258.200,78.340,20.900,344.300,87.870,24.820,9.093,526.100,135.500,42.030,14.780,baseline
1297.000,263.600,92.320,25.460,1351.000,258.200,78.440,20.890,346.600,88.190,24.790,9.052,524.900,135.500,42.150,14.790,baseline
1299.000,264.600,92.730,25.610,1356.000,258.800,78.570,20.960,343.500,88.240,24.680,9.083,525.000,135.600,42.160,14.790,baseline
1304.000,265.400,92.830,25.670,1358.000,258.900,78.420,20.970,343.900,87.880,24.760,9.060,526.300,135.700,42.310,14.840,baseline
1307.000,265.300,93.140,25.860,1356.000,258.900,79.030,21.100,343.900,88.000,24.690,9.059,527.000,136.300,42.540,14.960,baseline
1313.000,267.700,93.990,26.070,1359.000,258.300,78.580,20.970,344.200,88.410,24.810,9.099,527.700,136.100,42.260,14.820,baseline
1300.000,263.100,92.180,25.390,1352.000,257.400,78.300,20.880,344.500,87.620,24.550,8.989,520.400,133.600,41.600,14.540,baseline
1291.000,261.400,91.840,25.350,1349.000,256.200,77.810,20.830,342.900,87.000,24.500,8.939,517.600,133.600,41.450,14.470,baseline
1289.000,261.500,91.830,25.340,1347.000,255.900,77.940,20.860,345.700,87.220,24.380,8.902,516.600,133.200,41.400,14.500,baseline
1289.000,261.700,91.850,25.370,1351.000,255.600,77.880,20.790,340.800,87.020,24.430,8.908,516.000,133.100,41.400,14.480,baseline
1289.000,262.300,91.850,25.410,1351.000,257.000,78.300,20.850,343.500,86.960,24.450,8.954,518.000,133.600,41.570,14.610,baseline
1295.000,264.200,92.300,25.550,1356.000,257.600,78.400,20.970,345.500,87.600,24.610,8.984,522.600,134.600,41.860,14.770,baseline
1300.000,265.100,92.910,25.730,1355.000,257.500,78.520,20.960,345.400,87.840,24.620,9.020,522.900,135.100,42.120,14.830,baseline
1304.000,265.700,93.300,25.930,1353.000,257.600,78.510,20.950,345.100,87.960,24.750,9.054,525.300,135.300,42.290,14.900,baseline
1306.000,265.000,93.090,25.500,1351.000,256.900,78.000,20.760,343.100,88.040,24.690,9.037,521.800,134.500,41.680,14.590,baseline
1288.000,261.300,91.650,25.280,1347.000,255.400,77.600,20.720,341.300,87.380,24.540,8.975,518.800,133.600,41.520,14.460,baseline
1286.000,260.300,91.110,25.130,1348.000,255.700,77.820,20.770,340.800,87.210,24.490,8.954,519.200,133.500,41.460,14.520,baseline
1286.000,261.100,91.390,25.260,1344.000,256.200,77.480,20.760,341.100,87.070,24.490,8.958,518.900,133.600,41.520,14.550,baseline
1285.000,260.300,91.350,25.180,1346.000,255.500,77.550,20.700,337.800,87.170,24.520,8.969,518.200,133.600,41.550,14.590,baseline
1288.000,262.300,91.630,25.330,1345.000,256.400,77.790,20.710,341.400,87.350,24.500,8.933,519.100,133.700,41.600,14.610,baseline
1292.000,261.800,92.060,25.520,1348.000,256.400,77.690,20.760,342.200,86.800,24.500,8.969,521.400,134.300,41.880,14.690,baseline
1297.000,262.700,92.320,25.590,1344.000,257.700,78.010,20.770,339.800,87.120,24.560,8.988,522.100,134.400,41.940,14.740,baseline
1297.000,262.700,91.800,25.290,1343.000,254.800,77.350,20.620,345.800,87.500,24.550,8.919,518.400,133.700,41.390,14.450,baseline
1281.000,259.700,90.510,25.100,1345.000,254.500,77.160,20.630,342.500,87.050,24.340,8.889,515.900,132.700,41.090,14.400,baseline
1279.000,259.500,90.950,25.010,1339.000,254.300,77.280,20.610,341.300,86.710,24.340,8.879,515.000,132.700,41.230,14.410,baseline
1281.000,260.300,90.520,25.080,1343.000,254.600,77.080,20.670,340.400,86.680,24.330,8.876,515.200,132.700,41.060,14.390,baseline
1280.000,260.000,90.970,25.090,1340.000,255.000,77.190,20.640,337.700,86.750,24.320,8.833,515.000,132.700,41.120,14.380,baseline
1284.000,261.300,91.440,25.240,1344.000,254.400,77.620,20.640,340.600,86.170,24.230,8.833,519.200,132.900,41.340,14.450,baseline
1289.000,261.400,91.770,25.370,1340.000,255.700,77.410,20.720,341.900,86.680,24.220,8.855,519.200,134.100,41.590,14.560,baseline
1294.000,263.400,92.540,25.550,1350.000,256.300,77.690,20.730,339.300,86.920,24.400,8.866,520.700,134.100,41.730,14.660,baseline
1299.000,262.400,92.080,25.310,1343.000,254.500,77.410,20.570,343.000,86.940,24.390,8.869,518.900,133.500,41.430,14.440,baseline
1280.000,258.500,90.560,25.000,1339.000,254.300,76.900,20.470,342.100,86.390,24.310,8.819,516.400,132.500,41.080,14.370,baseline
1277.000,258.400,90.160,24.900,1338.000,254.000,76.950,20.550,338.600,85.980,24.230,8.815,515.700,132.500,41.200,14.420,baseline
1280.000,259.600,90.720,25.020,1337.000,253.700,77.220,20.550,339.500,86.810,24.300,8.827,515.100,132.800,41.270,14.420,baseline
1278.000,259.000,89.950,24.990,1341.000,254.400,76.950,20.530,338.100,86.790,24.320,8.859,516.100,132.700,41.290,14.440,baseline
1279.000,260.400,90.480,25.040,1338.000,253.500,77.010,20.540,342.600,86.780,24.290,8.878,516.900,133.300,41.410,14.490,baseline
1283.000,261.300,91.340,25.180,1342.000,254.600,77.240,20.600,340.500,86.300,24.360,8.867,517.900,133.700,41.400,14.540,baseline
1289.000,262.800,91.370,25.350,1346.000,254.600,77.290,20.650,337.100,86.900,24.290,8.847,519.000,133.900,41.600,14.550,baseline
1293.000,263.700,92.130,25.400,1341.000,254.100,76.990,20.490,340.500,86.700,24.280,8.802,520.600,133.500,41.080,14.270,baseline
1278.000,258.200,90.330,24.820,1337.000,253.400,76.630,20.410,339.400,86.090,24.080,8.718,516.300,131.800,40.860,14.150,baseline
1273.000,257.800,90.290,24.780,1335.000,253.100,76.550,20.400,342.000,86.510,24.130,8.754,514.900,132.300,40.910,14.280,baseline
1276.000,258.500,90.360,24.910,1338.000,252.900,76.730,20.430,339.900,86.500,24.190,8.805,516.100,132.700,41.030,14.360,baseline
1276.000,257.900,90.300,24.860,1338.000,253.100,76.950,20.460,341.100,86.210,24.260,8.808,515.700,133.000,41.250,14.440,baseline
1278.000,260.300,90.730,25.050,1336.000,254.400,76.920,20.440,339.800,86.890,24.310,8.836,516.500,133.300,41.490,14.420,baseline
1281.000,259.700,91.210,25.170,1336.000,254.300,77.090,20.570,343.000,86.930,24.330,8.860,518.800,133.900,41.580,14.520,baseline
1287.000,261.500,91.480,25.300,1344.000,254.500,77.270,20.580,340.800,86.890,24.380,8.882,518.700,134.300,41.750,14.590,baseline
1294.000,262.500,92.060,25.530,1347.000,254.500,77.560,20.540,344.400,87.220,24.440,8.883,520.300,135.200,41.860,14.630,baseline
1290.000,262.600,91.080,25.020,1337.000,252.900,76.730,20.390,341.400,87.080,24.420,8.855,517.200,133.000,41.230,14.340,baseline
1270.000,258.500,89.700,24.720,1336.000,252.200,76.280,20.290,337.400,86.910,24.340,8.799,515.000,132.600,41.140,14.320,baseline
1267.000,257.000,89.470,24.580,1333.000,252.400,76.220,20.360,342.100,86.660,24.380,8.808,514.400,132.700,41.100,14.330,baseline
1267.000,257.400,89.870,24.610,1333.000,251.800,76.310,20.310,337.700,86.710,24.310,8.819,514.000,132.800,41.260,14.310,baseline
1267.000,255.700,89.390,24.610,1333.000,252.500,76.550,20.370,340.700,86.840,24.260,8.834,514.500,132.700,41.350,14.380,baseline
1270.000,257.500,89.950,24.790,1332.000,252.800,76.500,20.370,343.600,86.310,24.330,8.838,516.600,133.300,41.510,14.440,baseline
1274.000,258.900,90.470,25.010,1337.000,253.300,76.840,20.430,341.100,87.120,24.330,8.862,517.000,133.800,41.630,14.550,baseline
1280.000,260.500,90.920,25.110,1336.000,253.800,76.850,20.460,341.000,86.960,24.470,8.899,519.200,134.400,41.900,14.660,baseline
1285.000,261.600,91.280,25.300,1340.000,253.800,76.960,20.450,344.800,87.280,24.410,8.917,520.500,135.000,42.100,14.620,baseline
1279.000,259.200,90.270,24.750,1333.000,251.300,76.160,20.250,344.300,87.340,24.380,8.848,516.100,133.300,41.240,14.340,baseline
1261.000,256.100,89.080,24.320,1328.000,250.500,75.990,20.160,340.200,87.320,24.320,8.825,513.700,133.100,41.250,14.320,baseline
1258.000,255.400,89.070,24.360,1328.000,249.900,75.990,20.220,341.600,86.920,24.320,8.805,513.900,132.800,41.390,14.370,baseline
1259.000,256.000,88.490,24.400,1328.000,250.800,75.660,20.200,342.600,87.120,24.360,8.858,516.400,132.900,41.280,14.380,baseline
1257.000,254.200,88.980,24.480,1326.000,251.100,75.840,20.220,340.400,86.780,24.380,8.844,515.400,133.200,41.410,14.430,baseline
1260.000,255.000,89.170,24.550,1326.000,251.100,76.270,20.240,342.300,86.910,24.440,8.851,516.400,133.800,41.590,14.500,baseline
1265.000,256.700,89.740,24.660,1328.000,252.200,76.230,20.320,340.000,87.640,24.410,8.874,516.700,134.400,41.910,14.550,baseline
1270.000,258.700,89.910,24.920,1335.000,252.200,76.450,20.350,343.300,87.610,24.580,8.923,520.800,134.700,42.060,14.710,baseline
1276.000,258.200,90.780,25.080,1331.000,251.900,76.560,20.450,344.900,87.500,24.580,8.931,522.100,135.500,42.470,14.770,baseline
1283.000,260.300,91.180,25.140,1334.000,253.100,76.380,20.280,345.300,87.840,24.610,8.983,523.300,135.200,42.220,14.590,baseline
1265.000,256.000,89.070,24.450,1325.000,250.500,75.750,20.140,345.100,87.360,24.510,8.887,517.700,134.100,41.690,14.420,baseline
1256.000,254.000,88.140,24.350,1326.000,249.800,75.880,20.130,336.600,87.160,24.350,8.873,516.800,133.700,41.650,14.460,baseline
1257.000,255.300,88.120,24.430,1325.000,250.600,75.680,20.190,344.200,87.370,24.560,8.884,516.900,133.700,41.700,14.440,baseline
1257.000,255.000,88.320,24.400,1324.000,250.300,75.730,20.100,342.100,87.400,24.530,8.888,517.500,134.000,41.860,14.520,baseline
1256.000,254.700,88.630,24.470,1325.000,250.800,75.850,20.210,339.900,87.940,24.580,8.884,519.200,134.600,41.830,14.540,baseline
1261.000,255.800,89.070,24.620,1324.000,250.900,75.810,20.250,341.200,87.730,24.540,8.922,520.300,134.900,42.080,14.620,baseline
1266.000,256.200,89.620,24.680,1329.000,251.400,76.070,20.320,342.400,87.820,24.530,8.926,521.800,135.600,42.150,14.650,baseline
1271.000,258.200,90.090,24.980,1330.000,252.900,76.200,20.320,344.900,87.870,24.610,8.902,524.500,135.600,42.210,14.620,baseline
1277.000,259.400,90.680,25.110,1331.000,252.300,76.150,20.350,345.200,87.800,24.560,8.875,526.000,136.100,42.220,14.630,baseline
1269.000,257.000,89.200,24.550,1326.000,249.800,75.620,20.100,345.900,87.670,24.510,8.861,522.000,134.600,41.680,14.410,baseline
1253.000,253.600,88.470,24.210,1323.000,249.800,75.560,20.050,343.000,87.490,24.480,8.852,520.200,134.500,41.750,14.450,baseline
1252.000,254.900,88.070,24.260,1321.000,250.500,75.530,20.080,344.800,87.830,24.510,8.868,520.900,134.600,41.750,14.490,baseline
1253.000,254.100,88.380,24.280,1322.000,250.600,75.390,20.070,342.200,87.720,24.630,8.899,520.800,134.400,41.980,14.490,baseline
1253.000,253.500,88.260,24.290,1321.000,250.000,75.690,20.140,342.100,87.860,24.550,8.924,521.300,134.800,41.970,14.560,baseline
1257.000,254.600,88.580,24.480,1325.000,250.000,75.920,20.120,345.900,88.170,24.550,8.920,523.400,135.500,42.270,14.670,baseline
1263.000,255.900,89.630,24.640,1326.000,251.200,76.070,20.210,342.600,88.060,24.720,8.945,524.700,136.200,42.390,14.710,baseline
1266.000,257.700,89.740,24.710,1330.000,250.900,76.350,20.230,345.500,88.220,24.730,8.979,525.300,136.400,42.700,14.850,baseline
1274.000,259.300,90.430,24.950,1330.000,252.000,76.430,20.370,344.200,88.290,24.860,9.010,528.100,137.300,42.830,14.960,baseline
1280.000,259.400,90.500,24.960,1328.000,250.600,76.080,20.110,345.800,88.250,24.790,9.015,527.700,136.900,42.470,14.690,baseline
1258.000,255.200,88.480,24.160,1320.000,249.700,75.470,19.980,342.800,87.990,24.570,8.918,522.700,135.400,42.100,14.480,baseline
1247.000,252.700,87.960,24.070,1318.000,249.100,75.100,19.910,344.000,87.730,24.580,8.923,521.300,134.800,41.930,14.470,baseline
1246.000,253.100,87.860,24.120,1316.000,249.800,75.170,19.960,342.700,88.180,24.600,8.903,521.900,135.200,42.030,14.470,baseline
1245.000,251.700,87.290,24.100,1315.000,248.700,75.190,19.950,342.800,87.680,24.680,8.884,521.600,135.600,42.130,14.490,baseline
1245.000,252.900,87.590,24.130,1317.000,249.300,75.150,19.950,343.800,88.160,24.640,8.910,524.600,135.300,42.210,14.560,baseline
1249.000,252.800,88.020,24.220,1322.000,248.900,75.380,20.010,347.600,88.030,24.740,8.930,526.100,136.100,42.360,14.670,baseline
1253.000,254.200,88.540,24.440,1324.000,250.300,75.400,20.090,346.500,88.140,24.680,8.957,528.000,136.700,42.500,14.760,baseline
1259.000,254.700,89.080,24.550,1323.000,250.100,75.760,20.180,344.400,88.670,24.730,8.994,529.800,137.200,42.910,14.880,baseline
1265.000,256.800,89.810,24.710,1331.000,251.300,75.830,20.190,345.000,88.620,24.900,9.013,531.200,137.500,43.080,14.900,baseline
1269.000,256.800,89.180,24.470,1323.000,248.800,75.240,19.950,348.700,88.890,24.860,8.989,530.200,136.700,42.550,14.640,baseline
1244.000,251.700,87.400,23.950,1317.000,248.300,74.910,19.840,345.100,88.240,24.690,8.896,524.900,135.500,42.090,14.420,baseline
1238.000,250.500,86.810,23.810,1311.000,248.000,74.580,19.830,348.800,87.690,24.610,8.914,523.000,135.100,41.900,14.440,baseline
1237.000,250.400,86.570,23.820,1313.000,247.100,74.970,19.790,343.700,88.150,24.670,8.872,524.200,135.300,41.930,14.410,baseline
1237.000,250.300,86.660,23.910,1310.000,247.400,74.850,19.860,342.500,88.080,24.510,8.891,523.300,135.500,41.970,14.440,baseline
1237.000,249.400,87.100,23.970,1314.000,246.900,74.910,19.850,342.200,87.760,24.600,8.878,523.500,135.300,42.040,14.450,baseline
1242.000,251.400,87.260,24.000,1317.000,248.500,74.920,19.930,342.100,88.080,24.630,8.908,523.500,135.700,42.200,14.560,baseline
1247.000,252.300,87.420,24.250,1318.000,249.000,75.310,19.970,347.100,88.180,24.680,8.938,524.900,135.800,42.440,14.630,baseline
1251.000,255.200,88.310,24.300,1325.000,248.800,75.160,20.030,348.200,87.870,24.750,8.956,526.000,136.100,42.500,14.740,baseline
1257.000,255.600,88.740,24.480,1324.000,249.600,75.540,20.020,345.000,88.350,24.850,8.987,527.800,137.100,42.790,14.740,baseline
1253.000,253.500,88.130,24.020,1311.000,247.600,74.900,19.850,343.100,88.310,24.650,8.905,523.100,135.500,42.000,14.430,baseline
1235.000,249.700,86.630,23.740,1315.000,247.500,74.470,19.770,339.100,87.520,24.510,8.868,521.500,134.900,41.870,14.360,baseline
1232.000,249.500,86.730,23.750,1310.000,246.500,74.700,19.810,340.900,87.480,24.540,8.850,520.800,134.800,41.730,14.400,baseline
1234.000,248.800,86.670,23.840,1310.000,247.500,74.760,19.840,345.500,88.390,24.460,8.876,520.900,134.900,41.790,14.360,baseline
1233.000,249.100,86.680,23.770,1313.000,247.700,74.560,19.830,341.600,87.710,24.480,8.868,520.300,135.100,41.800,14.440,baseline
1237.000,250.800,87.030,23.900,1310.000,248.200,74.750,19.840,346.400,87.830,24.520,8.898,523.200,135.400,41.900,14.490,baseline
1242.000,251.800,87.470,24.060,1317.000,248.400,75.220,19.930,345.900,87.620,24.510,8.921,524.100,136.000,42.240,14.610,baseline
1247.000,253.700,87.970,24.190,1319.000,249.300,75.260,20.010,342.900,88.240,24.700,8.937,525.400,136.300,42.390,14.650,baseline
1254.000,255.000,88.700,24.480,1317.000,250.200,75.520,20.070,343.900,88.240,24.690,8.959,527.700,136.500,42.670,14.780,baseline
1260.000,255.100,88.690,24.320,1317.000,248.400,75.160,19.840,344.500,88.320,24.690,8.949,526.400,135.700,41.970,14.440,baseline
1237.000,250.800,86.330,23.660,1309.000,246.800,74.630,19.800,341.500,87.940,24.490,8.847,522.300,134.900,41.650,14.290,baseline
1227.000,247.800,86.170,23.580,1309.000,246.600,74.450,19.720,345.100,87.300,24.350,8.817,520.500,134.200,41.570,14.280,baseline
1226.000,247.500,85.770,23.480,1304.000,247.200,74.450,19.670,342.300,87.400,24.370,8.823,521.500,134.400,41.590,14.250,baseline
1225.000,247.100,85.970,23.430,1305.000,245.400,74.400,19.670,341.100,87.490,24.370,8.809,520.300,134.200,41.450,14.260,baseline
1225.000,247.200,86.050,23.580,1307.000,246.700,74.290,19.760,342.700,87.660,24.390,8.815,522.200,134.600,41.530,14.330,baseline
1229.000,248.500,86.330,23.680,1311.000,247.300,74.620,19.770,341.000,87.420,24.430,8.823,521.900,134.800,41.820,14.390,baseline
1234.000,249.400,86.750,23.870,1310.000,247.900,74.710,19.840,340.700,87.390,24.420,8.856,524.600,135.000,41.800,14.420,baseline
1240.000,250.000,87.140,24.070,1313.000,249.200,75.160,19.890,342.400,87.990,24.550,8.870,524.300,135.900,42.100,14.550,baseline
1246.000,252.900,87.860,24.200,1317.000,248.400,75.150,19.960,348.400,88.180,24.500,8.898,526.300,136.800,42.160,14.600,baseline
1250.000,252.400,87.580,23.960,1311.000,246.800,74.520,19.710,346.500,88.130,24.510,8.862,523.700,135.000,41.690,14.270,baseline
1224.000,247.500,85.490,23.390,1301.000,245.800,73.910,19.610,342.400,87.360,24.280,8.782,519.500,133.900,41.270,14.150,baseline
1218.000,245.400,85.330,23.260,1304.000,245.800,73.890,19.600,341.900,87.330,24.220,8.761,517.600,133.500,41.140,14.110,baseline
1218.000,246.200,84.680,23.200,1299.000,245.300,74.040,19.600,342.000,86.850,24.170,8.768,518.700,133.500,41.150,14.110,baseline
1215.000,246.100,85.150,23.280,1303.000,244.700,74.030,19.590,342.100,87.060,24.120,8.783,517.600,133.500,41.230,14.120,baseline
1217.000,245.200,85.560,23.280,1302.000,245.300,74.100,19.580,340.500,86.840,24.260,8.741,517.600,133.700,41.310,14.190,baseline
1222.000,246.000,85.690,23.370,1311.000,246.100,74.280,19.690,340.800,86.990,24.260,8.784,520.500,134.100,41.340,14.230,baseline
1226.000,247.900,86.240,23.650,1303.000,245.700,74.390,19.750,342.600,87.440,24.270,8.824,521.200,134.400,41.500,14.370,baseline
1232.000,249.600,86.520,23.730,1312.000,247.400,74.470,19.810,342.600,87.070,24.330,8.848,522.400,134.800,41.710,14.450,baseline
1238.000,250.400,87.020,24.020,1314.000,248.100,74.950,19.850,341.100,87.230,24.310,8.852,524.200,135.300,41.990,14.550,baseline
1245.000,252.100,87.250,23.960,1312.000,247.100,74.400,19.690,340.100,87.900,24.400,8.871,523.500,134.200,41.550,14.230,baseline
1223.000,247.200,85.000,23.290,1301.000,244.900,74.130,19.590,343.000,87.370,24.140,8.771,518.100,133.200,41.000,14.130,baseline
1216.000,245.300,84.840,23.230,1309.000,245.200,74.030,19.560,340.300,86.260,24.120,8.751,517.200,133.200,41.110,14.110,baseline
1217.000,244.800,84.740,23.210,1300.000,245.600,73.840,19.600,339.900,86.470,24.100,8.770,517.900,132.900,40.920,14.080,baseline
1215.000,246.300,84.940,23.200,1300.000,244.600,73.870,19.590,339.500,86.630,24.160,8.755,517.600,133.000,41.110,14.100,baseline
1216.000,245.800,85.160,23.240,1298.000,244.700,74.010,19.590,342.900,86.530,24.110,8.754,516.700,133.200,40.980,14.150,baseline
1220.000,246.200,85.410,23.510,1303.000,246.300,74.250,19.680,339.500,86.760,24.210,8.813,518.200,133.500,41.200,14.260,baseline
1225.000,247.600,85.740,23.520,1308.000,246.800,74.540,19.730,338.900,86.700,24.230,8.780,518.800,133.700,41.450,14.310,baseline
1232.000,249.600,86.780,23.770,1306.000,247.000,74.660,19.780,343.800,87.460,24.240,8.816,520.700,134.800,41.550,14.420,baseline
1238.000,250.800,86.930,23.940,1314.000,247.900,74.770,19.830,341.900,86.610,24.300,8.846,522.300,134.600,41.720,14.460,baseline
1238.000,249.400,86.400,23.520,1303.000,246.200,74.010,19.600,341.900,87.040,24.250,8.801,518.200,133.400,40.950,14.120,baseline
1216.000,245.300,84.610,23.080,1299.000,244.500,73.680,19.490,342.000,86.240,24.020,8.717,514.300,132.200,40.810,13.970,baseline
1210.000,244.000,84.100,23.030,1297.000,244.600,73.560,19.540,338.800,86.160,23.960,8.718,514.500,132.200,40.520,13.970,baseline
1211.000,245.200,84.220,23.020,1294.000,243.900,73.800,19.520,337.000,86.380,23.980,8.717,512.400,132.100,40.590,13.970,baseline
1208.000,244.400,84.280,22.980,1296.000,244.400,73.790,19.540,340.200,85.890,23.930,8.699,512.500,132.000,40.530,14.000,baseline
1212.000,244.300,84.700,23.050,1298.000,244.600,73.790,19.530,341.100,86.040,24.060,8.706,513.700,132.600,40.810,14.040,baseline
1216.000,246.800,84.450,23.220,1303.000,244.600,73.870,19.580,337.900,85.960,23.970,8.711,515.500,132.500,40.860,14.120,baseline
1220.000,245.600,85.090,23.340,1304.000,246.300,74.440,19.680,339.000,86.560,24.040,8.759,517.100,133.000,41.070,14.210,baseline
1227.000,247.900,86.090,23.480,1312.000,247.000,74.470,19.740,337.800,86.420,24.100,8.743,518.800,133.500,41.270,14.330,baseline
1233.000,249.100,86.690,23.740,1311.000,247.600,74.630,19.750,335.600,86.550,24.230,8.809,519.800,134.000,41.390,14.320,baseline
1233.000,247.700,85.590,23.340,1302.000,245.600,73.880,19.520,340.400,86.700,24.010,8.740,515.400,131.900,40.670,13.960,baseline
1208.000,242.600,84.060,22.910,1298.000,243.700,73.470,19.470,337.600,85.660,23.850,8.647,510.400,131.100,40.340,13.860,baseline
1203.000,241.600,83.310,22.710,1293.000,243.800,73.540,19.470,339.200,85.690,23.850,8.625,511.600,130.700,40.240,13.870,baseline
1203.000,241.500,83.610,22.780,1297.000,243.600,73.600,19.390,335.200,85.570,23.790,8.618,510.200,130.400,40.270,13.810,baseline
1201.000,242.200,83.620,22.810,1296.000,243.600,73.480,19.420,338.500,85.620,23.830,8.623,509.400,130.600,40.260,13.810,baseline
1203.000,242.800,83.450,22.860,1301.000,244.800,73.600,19.490,339.900,85.710,23.820,8.662,510.800,131.000,40.280,13.920,baseline
1207.000,244.400,83.970,22.980,1298.000,244.600,73.950,19.580,333.900,85.820,23.710,8.649,511.400,131.100,40.550,14.020,baseline
1214.000,244.900,84.290,23.170,1301.000,244.800,74.100,19.570,338.600,85.370,23.850,8.682,513.500,131.700,40.690,14.060,baseline
1219.000,245.400,85.120,23.430,1307.000,246.000,74.180,19.680,337.100,85.630,23.870,8.708,515.400,132.000,40.830,14.190,baseline
1225.000,248.100,86.020,23.490,1307.000,246.900,74.650,19.780,337.100,85.770,24.060,8.754,515.400,132.500,41.070,14.270,baseline
1233.000,249.000,85.910,23.640,1305.000,246.500,74.290,19.590,337.800,86.220,23.980,8.732,516.300,132.000,40.710,13.990,baseline
1211.000,243.600,83.580,22.840,1298.000,244.700,73.640,19.440,338.500,85.680,23.820,8.645,508.600,130.400,40.030,13.820,baseline
1203.000,242.200,83.450,22.730,1294.000,243.600,73.440,19.440,334.700,85.540,23.730,8.633,507.700,129.800,39.950,13.830,baseline
1201.000,240.700,83.350,22.780,1294.000,244.000,73.570,19.390,333.600,84.960,23.700,8.609,508.800,130.000,40.090,13.760,baseline
1200.000,240.800,83.270,22.680,1294.000,244.200,73.590,19.410,335.200,84.960,23.720,8.611,508.600,129.800,39.890,13.800,baseline
1201.000,241.400,83.330,22.740,1299.000,243.800,73.620,19.470,335.700,85.030,23.710,8.611,507.600,129.900,40.120,13.850,baseline
1206.000,242.700,83.490,22.880,1296.000,244.000,73.890,19.510,334.400,85.130,23.750,8.637,508.900,130.400,40.540,13.890,baseline
1210.000,244.400,84.220,23.010,1297.000,244.900,74.210,19.580,337.000,85.300,23.810,8.668,511.200,130.900,40.560,14.020,baseline
1216.000,244.900,84.600,23.210,1305.000,245.100,74.420,19.650,337.400,85.680,23.940,8.695,512.900,131.700,40.640,14.070,baseline
1221.000,246.700,85.340,23.460,1306.000,246.400,74.240,19.740,335.900,86.030,23.880,8.721,512.400,132.100,40.700,14.160,baseline
1227.000,247.500,85.460,23.240,1305.000,245.000,73.810,19.530,340.400,85.390,23.920,8.688,511.600,130.900,40.270,13.900,baseline
1205.000,241.500,83.360,22.650,1297.000,243.600,73.770,19.380,336.200,85.220,23.770,8.630,506.400,129.500,39.880,13.710,baseline
1198.000,241.200,82.970,22.550,1294.000,243.000,73.380,19.340,330.600,85.190,23.650,8.574,506.200,129.300,39.890,13.750,baseline
1200.000,241.400,83.330,22.670,1297.000,243.900,73.530,19.380,333.700,85.240,23.740,8.593,505.800,129.300,39.840,13.750,baseline
1199.000,241.700,83.160,22.590,1294.000,244.000,73.570,19.490,333.900,84.800,23.650,8.605,506.000,129.500,40.020,13.770,baseline
1200.000,240.600,83.520,22.740,1293.000,244.000,73.610,19.500,335.500,85.570,23.680,8.596,507.300,130.100,39.960,13.800,baseline
1205.000,243.000,84.010,22.900,1294.000,244.800,73.930,19.520,338.400,85.030,23.700,8.624,507.700,130.400,40.150,13.930,baseline
1212.000,244.100,84.480,23.090,1300.000,245.700,74.080,19.630,338.200,84.990,23.760,8.665,510.100,131.200,40.410,14.010,baseline
1218.000,245.500,84.930,23.190,1303.000,246.100,74.200,19.630,337.500,85.380,23.850,8.698,511.700,131.400,40.570,14.140,baseline
1225.000,246.700,85.560,23.470,1312.000,246.800,74.750,19.690,334.600,85.840,23.890,8.714,513.100,131.700,40.870,14.140,baseline
1227.000,246.500,84.710,23.120,1302.000,245.700,73.880,19.450,339.400,85.790,23.790,8.664,508.700,130.200,40.100,13.800,baseline
1201.000,241.900,82.980,22.490,1298.000,243.500,73.480,19.390,338.100,85.140,23.660,8.599,505.100,129.500,39.730,13.650,baseline
1195.000,240.500,82.890,22.420,1294.000,243.600,73.420,19.390,334.200,84.870,23.580,8.571,504.300,129.100,39.700,13.650,baseline
1195.000,239.900,82.840,22.380,1293.000,243.700,73.120,19.370,336.700,84.670,23.600,8.565,504.700,129.000,39.670,13.640,baseline
1193.000,240.700,82.410,22.430,1288.000,243.800,73.240,19.410,333.500,85.070,23.590,8.563,502.900,128.700,39.620,13.700,baseline
1195.000,241.100,82.900,22.460,1295.000,244.500,73.510,19.440,333.000,84.890,23.640,8.579,503.800,129.200,39.740,13.740,baseline
1199.000,241.000,83.210,22.770,1298.000,244.300,73.780,19.530,334.100,84.690,23.580,8.595,506.400,130.200,40.180,13.820,baseline
1206.000,242.000,83.880,22.870,1302.000,244.600,73.830,19.520,333.300,85.160,23.760,8.633,507.800,130.700,40.350,13.910,baseline
1213.000,244.900,84.270,23.080,1302.000,245.800,74.050,19.610,336.200,85.450,23.790,8.687,509.600,131.100,40.420,14.020,baseline
1220.000,246.000,84.820,23.230,1305.000,246.100,74.490,19.730,338.200,85.440,23.850,8.676,511.700,131.200,40.700,14.150,baseline
1227.000,246.500,85.350,23.200,1303.000,245.000,74.110,19.500,335.300,85.650,23.900,8.682,510.700,130.500,40.090,13.820,baseline
1202.000,241.600,82.840,22.520,1289.000,244.000,73.160,19.390,333.800,84.910,23.670,8.569,505.000,129.000,39.700,13.710,baseline
1193.000,239.300,82.210,22.390,1292.000,243.600,73.440,19.370,333.700,84.820,23.610,8.577,503.300,128.400,39.830,13.660,baseline
1192.000,239.200,82.860,22.460,1298.000,243.300,73.260,19.380,336.600,85.510,23.570,8.584,504.100,128.800,39.610,13.650,baseline
1191.000,238.300,82.350,22.350,1292.000,243.500,73.440,19.340,335.800,84.780,23.600,8.579,503.700,129.300,39.720,13.660,baseline
1192.000,239.400,82.100,22.460,1295.000,243.800,73.440,19.440,335.300,85.040,23.620,8.586,503.700,129.200,39.730,13.730,baseline
1196.000,239.800,82.610,22.520,1298.000,244.700,73.450,19.490,333.500,85.070,23.710,8.611,505.100,129.500,40.020,13.810,baseline
1202.000,241.800,82.980,22.770,1300.000,244.300,73.750,19.520,334.600,85.040,23.710,8.626,507.600,130.200,40.230,13.920,baseline
1207.000,242.600,83.850,22.940,1304.000,245.000,73.870,19.630,336.600,84.940,23.750,8.673,508.100,130.700,40.400,13.960,baseline
1215.000,244.700,84.200,23.090,1304.000,246.900,74.500,19.690,337.200,85.450,23.780,8.690,510.600,130.700,40.580,13.970,baseline
1219.000,244.700,84.730,22.980,1301.000,244.200,73.780,19.500,335.900,85.310,23.710,8.618,508.600,129.700,39.880,13.720,baseline
1196.000,241.400,82.490,22.390,1292.000,242.800,73.340,19.410,332.700,84.890,23.560,8.537,504.500,128.900,39.430,13.580,baseline
1190.000,238.400,82.120,22.290,1290.000,243.800,73.530,19.410,336.100,84.330,23.520,8.527,502.800,128.600,39.290,13.630,baseline
1192.000,239.100,82.340,22.440,1295.000,243.700,73.290,19.430,336.700,84.960,23.530,8.542,502.200,128.600,39.440,13.580,baseline
1191.000,240.300,82.270,22.350,1295.000,243.100,73.530,19.450,335.100,85.050,23.580,8.542,501.800,128.500,39.520,13.650,baseline
1193.000,239.300,83.010,22.490,1296.000,243.300,73.500,19.480,334.200,84.560,23.580,8.577,504.300,128.700,39.780,13.660,baseline
1198.000,241.900,83.100,22.550,1301.000,245.000,73.790,19.540,332.700,84.670,23.700,8.588,505.800,129.100,39.850,13.840,baseline
1204.000,243.300,83.550,22.830,1300.000,245.200,74.020,19.600,334.400,85.090,23.700,8.625,507.500,129.900,40.180,13.910,baseline
1212.000,243.800,84.360,23.080,1306.000,245.400,74.140,19.670,337.700,85.160,23.730,8.660,508.400,130.500,40.410,14.010,baseline
1218.000,244.500,84.880,23.220,1307.000,246.500,74.560,19.720,337.600,85.270,23.820,8.696,511.400,131.200,40.550,14.060,baseline
1221.000,243.900,84.300,22.900,1297.000,245.400,73.730,19.440,334.800,85.680,23.850,8.634,506.300,129.400,39.740,13.700,baseline
1194.000,239.300,82.050,22.350,1291.000,243.000,73.460,19.410,336.300,85.180,23.610,8.561,500.900,128.300,39.300,13.530,baseline
1188.000,237.500,82.220,22.290,1295.000,243.800,73.470,19.340,336.600,84.430,23.630,8.525,501.500,127.800,39.340,13.540,baseline
1188.000,238.200,82.090,22.300,1290.000,243.500,73.110,19.370,330.700,84.320,23.500,8.516,501.200,127.800,39.210,13.560,baseline
1186.000,237.400,82.200,22.340,1292.000,243.500,73.340,19.400,332.200,85.000,23.490,8.526,501.200,127.500,39.280,13.550,baseline
1187.000,238.800,81.960,22.350,1296.000,243.000,73.240,19.430,335.600,84.440,23.520,8.549,501.300,128.200,39.380,13.630,baseline
1193.000,239.900,82.460,22.490,1297.000,245.100,73.830,19.480,336.200,84.600,23.570,8.550,503.400,128.800,39.750,13.730,baseline
1199.000,240.600,83.300,22.670,1302.000,244.800,73.990,19.590,331.400,84.890,23.630,8.576,503.600,128.800,39.970,13.850,baseline
1205.000,242.000,83.650,22.850,1302.000,245.600,74.120,19.600,335.400,85.130,23.710,8.611,506.600,129.800,40.090,13.910,baseline
1212.000,243.300,84.360,23.090,1305.000,246.200,74.270,19.720,337.400,85.210,23.640,8.659,505.600,130.300,40.230,14.000,baseline
1218.000,244.200,84.400,22.890,1299.000,245.700,73.740,19.490,336.300,85.150,23.790,8.639,505.800,128.800,39.630,13.660,baseline
1194.000,239.200,82.300,22.270,1291.000,243.200,73.460,19.330,335.800,84.350,23.580,8.540,499.900,127.500,39.090,13.530,baseline
1185.000,237.600,81.570,22.170,1294.000,243.500,73.180,19.370,335.400,84.470,23.400,8.516,498.800,127.100,39.040,13.490,baseline
1185.000,237.500,81.640,22.190,1286.000,242.400,73.350,19.340,331.800,84.330,23.370,8.520,497.500,127.200,39.090,13.500,baseline
1184.000,237.700,81.720,22.200,1292.000,243.100,73.150,19.380,331.200,83.820,23.420,8.511,498.500,127.000,39.030,13.440,baseline
1185.000,237.500,81.800,22.240,1294.000,243.300,73.520,19.410,333.300,84.270,23.450,8.510,496.900,127.500,39.180,13.510,baseline
1190.000,239.500,82.530,22.350,1298.000,244.400,73.660,19.490,333.200,84.490,23.470,8.556,499.000,127.700,39.360,13.650,baseline
1196.000,240.400,82.530,22.530,1297.000,244.700,73.930,19.540,335.700,84.100,23.550,8.558,500.800,127.900,39.570,13.720,baseline
1200.000,241.600,83.460,22.670,1301.000,244.700,74.110,19.580,333.600,84.850,23.550,8.564,502.900,128.500,39.770,13.830,baseline
1207.000,242.500,83.650,22.840,1301.000,246.500,74.250,19.620,333.800,84.550,23.590,8.627,504.800,129.100,39.860,13.890,baseline
1212.000,243.200,84.010,22.760,1299.000,244.200,73.610,19.420,332.600,84.900,23.640,8.598,503.000,128.300,39.440,13.560,baseline
1190.000,237.900,82.040,22.300,1289.000,244.200,73.300,19.370,334.500,84.210,23.470,8.485,496.900,127.100,38.940,13.450,baseline
1186.000,237.900,81.980,22.170,1294.000,244.300,73.340,19.390,330.500,84.010,23.410,8.489,496.700,126.800,39.020,13.510,baseline
1188.000,238.400,81.860,22.240,1297.000,244.300,73.660,19.450,332.700,83.890,23.370,8.510,497.200,126.700,38.970,13.500,baseline
1187.000,238.600,81.960,22.230,1295.000,243.700,73.540,19.470,332.200,83.540,23.390,8.487,497.000,126.800,39.060,13.460,baseline
1189.000,239.200,82.150,22.380,1294.000,244.000,73.520,19.470,335.400,84.140,23.380,8.510,498.100,127.400,39.270,13.560,baseline
1194.000,240.600,82.560,22.450,1297.000,244.700,73.950,19.540,331.400,84.440,23.450,8.529,499.000,127.700,39.380,13.640,baseline
1200.000,242.000,83.300,22.750,1298.000,244.800,74.260,19.590,333.400,84.590,23.460,8.569,500.800,128.300,39.670,13.710,baseline
1206.000,243.500,83.760,22.840,1304.000,245.700,74.480,19.700,335.100,84.560,23.500,8.574,503.200,129.000,39.770,13.850,baseline
1212.000,245.000,84.310,22.830,1299.000,245.000,73.670,19.510,334.400,84.960,23.590,8.576,502.400,128.300,39.390,13.580,baseline
1193.000,239.600,82.080,22.120,1295.000,243.000,73.480,19.380,333.300,84.210,23.440,8.493,496.500,126.300,38.880,13.360,baseline
1184.000,237.800,81.730,22.080,1292.000,243.200,73.300,19.430,333.600,84.070,23.290,8.462,495.300,125.800,38.690,13.370,baseline
1183.000,238.200,81.770,22.090,1292.000,243.900,73.480,19.370,330.700,83.770,23.290,8.459,495.100,126.000,38.730,13.370,baseline
1183.000,236.800,81.800,22.150,1291.000,243.500,73.300,19.360,330.300,83.920,23.280,8.446,493.400,125.700,38.650,13.350,baseline
1184.000,237.400,81.990,22.160,1292.000,244.000,73.660,19.450,331.900,83.800,23.370,8.454,494.100,125.900,38.780,13.420,baseline
1188.000,240.100,82.390,22.250,1292.000,244.200,73.960,19.490,332.900,83.850,23.330,8.492,496.400,126.400,38.930,13.440,baseline
1194.000,240.600,82.740,22.420,1293.000,245.100,74.040,19.540,331.800,83.990,23.440,8.512,497.900,126.800,39.070,13.600,baseline
1200.000,242.700,83.660,22.660,1300.000,245.300,74.070,19.670,335.300,84.140,23.540,8.538,498.900,127.800,39.380,13.690,baseline
1205.000,243.000,83.790,22.780,1298.000,246.100,74.350,19.670,331.300,84.800,23.530,8.590,501.300,128.100,39.550,13.790,baseline
1210.000,243.400,83.510,22.560,1299.000,243.600,73.790,19.440,336.900,84.450,23.410,8.562,497.700,126.600,39.030,13.410,baseline
1186.000,238.000,82.130,22.040,1289.000,243.500,73.590,19.370,332.900,83.540,23.300,8.465,493.400,125.100,38.410,13.250,baseline
1178.000,237.500,81.380,21.910,1287.000,243.000,73.300,19.380,330.500,83.440,23.200,8.419,490.600,124.600,38.410,13.230,baseline
1178.000,237.600,81.310,21.950,1288.000,242.500,73.280,19.340,329.700,83.560,23.180,8.413,489.900,124.900,38.330,13.230,baseline
1177.000,239.000,81.580,21.940,1285.000,243.100,73.290,19.410,331.100,83.630,23.200,8.409,490.100,124.900,38.310,13.230,baseline
1178.000,236.700,81.800,22.090,1284.000,243.200,73.280,19.440,328.900,83.340,23.230,8.418,490.600,124.900,38.440,13.290,baseline
1183.000,239.200,82.160,22.140,1293.000,243.700,73.830,19.460,333.700,83.110,23.240,8.468,493.100,125.800,38.670,13.350,baseline
1188.000,239.300,82.550,22.300,1291.000,244.400,73.810,19.510,330.100,83.690,23.280,8.478,494.800,126.100,38.880,13.470,baseline
1195.000,240.900,83.130,22.500,1297.000,244.900,74.150,19.640,330.600,83.730,23.360,8.522,495.900,126.400,39.140,13.580,baseline
1201.000,243.300,84.060,22.690,1301.000,245.600,74.430,19.690,331.200,84.070,23.440,8.545,498.300,127.100,39.310,13.670,baseline
1208.000,244.700,84.430,22.910,1306.000,247.100,74.700,19.780,335.000,84.480,23.520,8.599,499.900,127.900,39.530,13.790,baseline
1210.000,244.700,83.620,22.510,1295.000,244.100,73.920,19.520,335.900,84.040,23.530,8.554,497.300,126.000,38.780,13.410,baseline
1187.000,238.900,81.760,22.080,1292.000,243.200,73.480,19.440,330.400,83.500,23.250,8.468,492.400,125.000,38.420,13.300,baseline
1182.000,238.600,81.720,21.990,1292.000,243.000,73.630,19.450,330.100,83.520,23.350,8.449,491.300,125.100,38.430,13.310,baseline
1183.000,239.300,81.930,22.090,1289.000,242.800,73.550,19.470,331.500,83.520,23.280,8.459,490.500,124.900,38.610,13.280,baseline
1183.000,237.700,82.260,22.100,1291.000,244.400,73.740,19.450,330.600,83.640,23.240,8.457,491.000,125.100,38.480,13.330,baseline
1185.000,239.500,82.480,22.160,1298.000,243.600,73.970,19.560,327.500,83.470,23.200,8.483,491.600,125.900,38.680,13.430,baseline
1189.000,239.900,82.760,22.390,1295.000,245.400,73.990,19.610,335.400,83.720,23.320,8.508,493.600,125.700,39.040,13.510,baseline
1195.000,242.200,83.430,22.480,1300.000,246.100,74.270,19.660,333.000,83.930,23.390,8.512,495.600,126.500,38.970,13.630,baseline
1201.000,242.500,83.980,22.620,1303.000,245.700,74.350,19.780,331.800,83.820,23.380,8.570,497.200,127.400,39.280,13.730,baseline
1208.000,244.900,84.810,22.860,1307.000,246.800,75.030,19.810,332.300,84.440,23.510,8.602,499.500,127.700,39.490,13.790,baseline
1216.000,247.000,84.840,23.100,1313.000,248.300,75.250,19.930,331.300,84.710,23.590,8.630,501.500,128.400,39.710,13.910,baseline
1220.000,247.200,84.690,22.780,1300.000,245.800,74.290,19.680,335.100,84.790,23.600,8.620,498.800,127.100,39.300,13.560,baseline
1197.000,242.700,83.520,22.430,1299.000,246.100,74.330,19.650,329.400,84.200,23.370,8.528,494.000,126.400,38.920,13.490,baseline
1195.000,241.300,83.070,22.380,1299.000,245.800,74.290,19.640,329.000,83.810,23.460,8.525,493.700,126.200,38.910,13.560,baseline
1198.000,241.700,83.380,22.530,1297.000,245.900,74.520,19.740,332.300,83.830,23.440,8.554,495.600,126.400,39.030,13.570,baseline
1198.000,242.900,83.360,22.470,1308.000,246.700,74.460,19.750,334.600,84.040,23.460,8.559,495.300,126.300,39.080,13.600,baseline
1202.000,243.400,83.980,22.580,1302.000,246.400,74.720,19.790,330.300,83.860,23.560,8.578,497.400,127.100,39.320,13.680,baseline
1208.000,244.200,84.850,22.800,1305.000,246.500,74.920,19.870,330.600,84.240,23.570,8.600,499.000,127.500,39.560,13.780,baseline
1213.000,245.700,85.180,22.970,1309.000,247.500,75.210,19.970,336.000,84.400,23.590,8.637,500.600,128.500,39.920,13.960,baseline
1220.000,246.900,85.740,23.210,1311.000,249.200,75.330,20.020,336.600,84.580,23.690,8.688,504.700,128.900,40.060,13.990,baseline
1228.000,247.200,86.510,23.450,1316.000,249.300,75.700,20.120,337.100,85.230,23.780,8.706,505.300,129.600,40.320,14.150,baseline
1235.000,249.800,87.130,23.630,1321.000,250.600,76.160,20.130,339.000,85.700,23.840,8.773,507.400,130.600,40.580,14.220,baseline
1241.000,251.300,87.070,23.390,1317.000,248.700,75.130,19.940,335.700,85.490,23.900,8.736,503.800,129.200,40.030,13.980,baseline
1216.000,246.500,84.940,22.850,1310.000,247.400,74.940,19.870,338.200,84.840,23.750,8.667,500.100,128.100,39.810,13.830,baseline
1212.000,245.800,84.320,22.800,1310.000,247.900,75.090,19.900,334.100,84.680,23.710,8.653,499.700,127.900,39.670,13.830,baseline
1212.000,246.000,84.830,22.910,1314.000,248.400,75.250,19.940,332.700,84.630,23.700,8.657,499.900,128.000,39.730,13.840,baseline
1212.000,245.100,84.630,22.880,1314.000,248.800,75.200,19.910,336.700,85.220,23.740,8.680,499.600,128.200,39.690,13.890,baseline
1216.000,245.900,85.460,23.030,1314.000,248.200,75.580,20.000,331.100,84.700,23.710,8.683,500.600,128.400,39.850,13.950,baseline
1221.000,248.000,85.790,23.230,1315.000,249.500,75.570,20.090,336.400,85.380,23.790,8.728,503.600,129.100,40.050,14.010,baseline
1226.000,248.400,86.410,23.380,1320.000,249.400,75.700,20.160,332.100,84.500,23.810,8.726,504.200,129.200,40.350,14.100,baseline
1234.000,249.600,86.920,23.610,1322.000,250.100,76.190,20.210,334.900,85.220,23.890,8.771,505.600,130.300,40.560,14.200,baseline
1241.000,253.100,87.270,23.820,1327.000,250.900,76.490,20.320,337.600,85.320,24.020,8.790,507.900,130.700,40.690,14.380,baseline
1249.000,254.300,88.270,24.110,1329.000,252.000,76.840,20.430,337.800,85.400,24.050,8.824,510.100,131.500,41.090,14.460,baseline
1257.000,255.400,88.540,24.020,1327.000,251.300,76.250,20.190,335.400,85.880,24.170,8.860,509.400,130.900,40.790,14.230,baseline
1235.000,250.000,85.970,23.340,1322.000,249.900,75.890,20.070,336.900,85.970,23.950,8.744,503.100,129.600,40.230,14.050,baseline
1227.000,248.200,85.740,23.300,1316.000,249.800,75.860,20.050,331.700,85.380,23.810,8.749,503.000,129.300,40.240,14.020,baseline
1227.000,248.300,86.420,23.450,1319.000,250.300,75.750,20.150,337.000,85.390,23.890,8.754,505.000,129.500,40.340,14.110,baseline
1227.000,249.100,86.370,23.350,1321.000,248.800,75.760,20.160,338.800,85.520,23.920,8.772,504.200,130.000,40.250,14.110,baseline
1229.000,249.400,86.370,23.490,1320.000,249.900,76.120,20.220,333.700,85.420,24.010,8.768,506.700,129.800,40.490,14.180,baseline
1234.000,250.700,86.700,23.620,1323.000,249.600,76.150,20.240,338.400,86.590,24.080,8.778,508.200,130.300,40.710,14.260,baseline
1240.000,251.000,87.380,23.760,1327.000,251.800,76.490,20.300,334.100,85.980,24.040,8.823,509.100,130.900,41.000,14.350,baseline
1246.000,252.300,87.970,24.030,1329.000,251.900,76.650,20.440,339.900,86.400,24.100,8.838,512.500,131.800,41.230,14.460,baseline
1252.000,254.100,88.920,24.190,1332.000,251.900,76.610,20.490,343.800,86.460,24.200,8.896,512.200,132.100,41.220,14.540,baseline
1259.000,256.300,88.850,24.390,1338.000,253.400,77.160,20.510,339.300,86.180,24.260,8.880,513.600,132.600,41.530,14.580,baseline
1263.000,255.800,88.990,24.100,1329.000,251.700,76.490,20.230,342.500,86.490,24.220,8.867,511.400,131.600,41.000,14.280,baseline
1240.000,251.100,87.000,23.700,1322.000,251.200,76.100,20.230,336.800,86.230,24.070,8.776,507.500,130.700,40.650,14.170,baseline
1238.000,251.300,87.370,23.770,1320.000,250.700,76.000,20.260,334.000,86.120,23.980,8.764,505.400,130.700,40.660,14.220,baseline
1240.000,251.400,87.280,23.800,1327.000,251.100,76.050,20.260,337.700,85.850,24.040,8.806,507.800,130.400,40.750,14.270,baseline
1240.000,251.000,87.360,23.770,1328.000,251.200,76.400,20.260,341.000,86.380,24.100,8.795,507.900,130.800,40.650,14.290,baseline
1242.000,251.000,87.360,23.840,1322.000,250.900,76.300,20.320,337.900,86.170,24.110,8.827,508.200,131.300,40.890,14.380,baseline
1249.000,253.000,88.200,24.170,1332.000,251.200,76.710,20.400,337.300,86.150,24.080,8.847,510.400,131.800,41.200,14.460,baseline
1276.000,258.600,90.220,24.750,1339.000,253.700,76.750,20.390,342.600,86.620,24.340,8.941,516.300,133.100,41.570,14.530,easy
1254.000,253.300,87.790,24.070,1325.000,251.100,76.230,20.230,342.700,86.110,24.080,8.845,510.400,131.700,41.090,14.350,easy
1244.000,251.500,87.530,23.890,1323.000,251.300,76.110,20.290,341.300,86.330,24.110,8.808,508.700,130.900,40.840,14.300,easy
1243.000,252.100,87.410,23.900,1326.000,250.500,76.030,20.310,339.500,86.160,24.070,8.813,508.700,131.100,40.910,14.260,easy
1242.000,250.900,87.460,23.900,1324.000,250.500,76.320,20.260,339.400,85.850,24.090,8.822,507.100,130.700,40.930,14.270,easy
1241.000,252.100,87.570,23.910,1327.000,250.900,76.320,20.320,337.500,86.030,24.060,8.793,510.000,131.300,40.820,14.320,easy
1246.000,252.900,87.880,24.040,1330.000,250.600,76.670,20.340,339.900,86.080,24.110,8.830,511.100,131.300,41.240,14.420,easy
1252.000,255.300,88.210,24.210,1332.000,251.800,76.660,20.450,339.300,86.530,24.220,8.822,512.300,132.600,41.300,14.510,easy
1258.000,256.200,88.770,24.380,1332.000,252.200,76.610,20.500,337.100,86.380,24.180,8.900,513.500,132.700,41.440,14.590,easy
1263.000,256.400,89.370,24.560,1335.000,252.600,76.970,20.540,337.700,86.140,24.230,8.915,515.600,133.600,41.680,14.640,easy
1270.000,258.300,90.000,24.810,1338.000,253.700,77.280,20.590,338.300,86.500,24.320,8.915,516.500,133.500,41.890,14.740,easy
1269.000,256.700,89.010,24.280,1330.000,251.100,76.360,20.290,336.900,86.700,24.280,8.886,512.800,132.300,41.110,14.390,easy
1245.000,251.900,87.320,23.900,1323.000,250.700,76.000,20.200,336.500,86.270,24.090,8.825,509.800,131.100,41.090,14.300,easy
1241.000,251.200,87.510,23.910,1322.000,250.400,75.880,20.210,337.300,85.870,24.130,8.816,509.300,130.900,40.910,14.250,easy
1242.000,250.900,87.400,23.860,1326.000,250.000,75.810,20.220,337.200,86.330,24.120,8.805,509.700,130.900,40.810,14.290,easy
1240.000,250.400,87.150,23.880,1321.000,249.200,76.010,20.200,339.600,85.950,24.110,8.805,508.400,131.200,40.760,14.280,easy
1242.000,251.000,87.100,23.940,1326.000,249.500,76.020,20.260,336.300,86.030,24.170,8.820,510.600,131.400,40.870,14.350,easy
1245.000,252.500,87.890,24.010,1328.000,250.500,76.090,20.340,337.400,85.870,24.050,8.868,512.900,131.600,41.200,14.470,easy
1250.000,254.700,87.780,24.180,1325.000,250.800,76.150,20.390,334.300,86.650,24.180,8.886,512.800,132.400,41.350,14.480,easy
1255.000,255.300,88.790,24.420,1331.000,251.400,76.500,20.460,342.500,86.750,24.220,8.884,516.300,133.100,41.700,14.650,easy
1260.000,254.600,89.210,24.540,1329.000,251.200,76.700,20.480,340.300,86.420,24.330,8.916,516.800,134.000,41.880,14.730,easy
1266.000,256.900,89.830,24.690,1335.000,251.600,76.410,20.350,337.900,87.020,24.380,8.945,518.600,133.500,41.780,14.570,easy
1252.000,252.400,87.580,24.030,1318.000,249.900,75.750,20.200,343.400,86.610,24.320,8.868,513.400,132.000,41.190,14.370,easy
1241.000,250.900,87.640,23.840,1320.000,249.600,75.720,20.130,338.700,86.000,24.220,8.847,511.400,131.500,41.070,14.290,easy
1239.000,251.300,87.170,23.920,1318.000,250.200,75.930,20.210,338.200,86.280,24.190,8.834,511.600,131.800,41.170,14.370,easy
1239.000,250.000,86.970,23.840,1323.000,249.200,75.670,20.150,338.200,85.860,24.130,8.846,510.900,131.300,41.040,14.370,easy
1239.000,250.500,86.790,23.860,1315.000,248.700,75.880,20.210,338.800,86.330,24.200,8.831,512.300,131.800,41.270,14.390,easy
1242.000,251.900,87.640,24.050,1317.000,249.800,76.000,20.270,337.700,86.120,24.190,8.846,511.900,132.200,41.190,14.410,easy
1247.000,253.300,87.880,24.160,1324.000,250.200,76.070,20.320,340.700,86.440,24.210,8.877,513.600,132.500,41.460,14.550,easy
1253.000,253.800,88.560,24.420,1329.000,250.900,76.260,20.380,339.800,86.170,24.310,8.896,516.500,133.300,41.650,14.620,easy
1258.000,255.800,88.990,24.570,1327.000,250.800,76.460,20.390,340.700,86.610,24.250,8.922,518.200,133.600,41.830,14.700,easy
1265.000,257.200,89.490,24.680,1333.000,251.400,76.350,20.310,342.700,86.630,24.350,8.927,519.100,133.800,41.640,14.580,easy
1250.000,252.700,87.710,23.980,1316.000,248.800,75.450,20.100,339.800,86.310,24.190,8.849,512.600,131.800,40.900,14.280,easy
1234.000,249.500,86.430,23.700,1315.000,248.400,75.280,20.020,338.500,85.900,24.090,8.792,509.600,130.900,40.840,14.220,easy
1229.000,246.800,86.210,23.670,1316.000,248.100,75.250,20.020,335.400,85.860,24.060,8.788,509.500,130.800,40.660,14.250,easy
1228.000,247.600,86.220,23.600,1317.000,247.500,74.990,19.950,337.000,85.850,24.040,8.795,507.500,130.600,40.740,14.170,easy
1226.000,247.900,85.960,23.550,1317.000,246.800,75.150,20.040,340.500,85.270,24.050,8.790,508.500,131.000,40.830,14.230,easy
1228.000,247.900,86.510,23.670,1310.000,248.400,75.360,20.000,332.600,85.590,24.060,8.805,508.600,130.700,40.890,14.250,easy
1232.000,249.100,86.520,23.810,1316.000,248.300,75.220,20.060,338.600,86.230,24.070,8.817,509.700,131.200,41.180,14.340,easy
1236.000,249.600,87.180,24.000,1316.000,249.100,75.530,20.120,338.900,85.380,24.160,8.837,511.600,131.900,41.220,14.450,easy
1241.000,251.400,87.950,24.030,1316.000,248.700,75.600,20.160,335.200,86.020,24.130,8.812,512.500,132.300,41.200,14.470,easy
1247.000,253.100,88.060,24.230,1321.000,249.700,75.820,20.250,338.600,86.080,24.140,8.880,513.500,132.900,41.560,14.620,easy
1250.000,252.100,87.690,23.880,1318.000,246.900,75.300,19.930,341.200,85.770,24.180,8.842,510.500,131.100,40.770,14.240,easy
1226.000,246.200,85.700,23.440,1309.000,246.000,74.720,19.830,337.200,85.220,23.910,8.752,506.300,130.000,40.530,14.100,easy
1217.000,245.800,84.860,23.340,1309.000,245.200,74.600,19.840,334.300,85.290,23.850,8.723,505.800,129.500,40.230,14.030,easy
1215.000,245.400,85.080,23.310,1308.000,246.300,74.610,19.780,333.200,85.390,23.910,8.708,505.000,129.500,40.190,14.030,easy
1213.000,244.700,84.840,23.260,1300.000,245.900,74.410,19.770,335.900,85.180,23.840,8.692,503.500,129.500,40.350,14.040,easy
1214.000,243.700,84.820,23.340,1303.000,246.000,74.820,19.800,334.500,85.390,23.840,8.734,503.400,129.700,40.450,14.120,easy
1218.000,246.000,85.410,23.420,1305.000,246.400,74.810,19.880,337.900,84.940,23.880,8.733,504.100,130.000,40.560,14.160,easy
1222.000,247.300,85.840,23.510,1307.000,246.900,74.870,19.910,334.400,85.600,23.890,8.740,507.900,130.500,40.690,14.220,easy
1226.000,247.400,85.980,23.650,1307.000,246.300,75.200,19.920,336.200,85.340,24.040,8.773,507.300,130.800,40.820,14.330,easy
1231.000,249.100,87.030,23.730,1315.000,246.700,75.210,20.040,335.500,85.610,23.920,8.802,510.400,131.100,40.920,14.360,easy
1237.000,251.200,87.160,23.930,1324.000,247.800,75.170,19.980,335.000,85.890,24.030,8.813,511.000,131.400,40.930,14.300,easy
1227.000,247.200,85.690,23.310,1302.000,245.200,74.190,19.780,333.000,85.490,23.920,8.738,504.700,130.200,40.430,14.050,easy
1212.000,244.400,84.580,23.190,1304.000,244.500,74.270,19.750,335.500,85.170,23.780,8.715,504.100,129.300,40.340,14.020,easy
1208.000,243.700,84.550,23.100,1304.000,245.200,74.270,19.740,335.300,85.520,23.860,8.724,503.900,129.300,40.180,14.050,easy
1209.000,243.700,84.640,23.000,1303.000,245.100,74.160,19.730,332.100,85.060,23.860,8.723,504.000,129.300,40.090,14.010,easy
1207.000,242.100,84.560,23.070,1296.000,244.400,74.050,19.680,333.800,85.300,23.800,8.722,504.300,129.500,40.220,14.070,easy
1210.000,243.700,84.580,23.210,1304.000,245.500,74.450,19.790,333.500,84.910,23.850,8.741,504.700,130.000,40.500,14.200,easy
1216.000,244.300,84.970,23.330,1309.000,245.300,74.410,19.820,336.700,85.380,23.930,8.749,507.200,130.600,40.830,14.270,easy
1219.000,246.400,85.640,23.390,1306.000,245.300,74.640,19.890,337.500,85.720,24.000,8.808,507.900,130.800,40.980,14.300,easy
1225.000,247.600,85.970,23.610,1313.000,246.100,75.100,19.990,340.200,85.550,24.080,8.799,510.000,131.500,41.300,14.400,easy
1232.000,247.500,86.310,23.780,1310.000,246.800,74.850,19.840,339.000,85.390,24.140,8.821,509.500,131.000,40.770,14.210,easy
1215.000,243.700,84.460,22.960,1296.000,244.000,74.080,19.660,338.400,85.250,23.880,8.734,504.600,129.300,40.250,13.960,easy
1202.000,241.800,83.700,22.820,1301.000,244.200,74.040,19.610,336.300,85.050,23.790,8.697,504.000,128.900,40.050,13.930,easy
1198.000,241.500,83.730,22.790,1295.000,244.000,74.040,19.600,340.200,84.870,23.770,8.682,503.000,129.000,39.970,13.940,easy
1197.000,240.300,83.370,22.700,1296.000,243.200,73.780,19.560,332.600,84.960,23.800,8.672,501.900,128.400,40.040,13.920,easy
1195.000,241.100,83.560,22.740,1297.000,244.300,73.940,19.600,334.300,85.290,23.770,8.669,503.400,128.900,40.100,13.960,easy
1198.000,241.100,83.790,22.860,1293.000,244.300,73.940,19.630,335.100,84.860,23.780,8.687,503.300,129.200,40.270,14.030,easy
1204.000,242.500,83.930,23.040,1298.000,245.300,74.180,19.730,338.200,85.020,23.880,8.726,504.800,129.500,40.520,14.090,easy
1208.000,244.200,84.800,23.060,1304.000,244.900,74.500,19.710,337.200,85.260,23.770,8.728,506.500,130.000,40.630,14.170,easy
1213.000,244.700,84.680,23.270,1301.000,244.800,74.740,19.820,332.300,85.380,23.980,8.782,508.000,130.700,40.750,14.260,easy
1219.000,246.300,85.390,23.400,1306.000,244.700,74.550,19.710,337.500,85.600,23.960,8.764,509.700,131.000,40.810,14.170,easy
1209.000,242.200,83.880,22.750,1294.000,243.400,73.860,19.520,334.600,85.150,23.820,8.707,503.900,128.900,39.960,13.900,easy
1191.000,239.300,82.680,22.530,1291.000,243.200,73.780,19.450,337.300,84.480,23.710,8.638,500.500,128.100,39.740,13.770,easy
1186.000,238.900,82.280,22.430,1291.000,242.600,73.590,19.480,332.700,84.920,23.700,8.638,500.400,128.000,39.840,13.820,easy
1187.000,238.700,82.130,22.340,1288.000,242.500,73.560,19.500,333.600,84.580,23.660,8.623,500.900,127.900,39.680,13.780,easy
1186.000,237.700,82.560,22.390,1292.000,242.300,73.490,19.520,334.500,84.650,23.650,8.636,500.900,127.900,39.780,13.830,easy
1188.000,238.900,82.380,22.480,1293.000,243.000,73.680,19.500,332.300,84.470,23.720,8.661,499.800,128.800,39.980,13.880,easy
1193.000,239.700,82.850,22.690,1295.000,243.300,73.460,19.620,334.500,85.000,23.750,8.655,503.700,128.800,40.150,14.000,easy
1198.000,241.200,83.350,22.860,1299.000,244.200,74.010,19.620,333.900,84.660,23.730,8.678,505.500,129.500,40.220,14.070,easy
1203.000,242.200,83.760,22.950,1302.000,243.500,74.170,19.660,333.000,84.700,23.830,8.719,505.200,130.100,40.500,14.150,easy
1209.000,243.300,84.610,23.100,1302.000,244.800,74.540,19.820,335.500,84.860,23.950,8.738,508.400,130.500,40.780,14.300,easy
1216.000,245.100,84.890,23.250,1302.000,244.200,74.020,19.660,334.600,85.310,23.940,8.750,508.300,130.000,40.510,14.040,easy
1196.000,240.700,82.840,22.550,1291.000,242.600,73.590,19.540,338.600,85.020,23.830,8.669,502.000,128.700,40.020,13.870,easy
1189.000,239.900,82.040,22.400,1291.000,242.700,73.500,19.470,334.300,84.820,23.720,8.621,502.500,128.300,39.930,13.880,easy
1189.000,239.400,82.340,22.440,1293.000,243.200,73.400,19.540,334.400,84.700,23.730,8.649,503.300,128.600,39.910,13.840,easy
1188.000,238.200,82.280,22.420,1291.000,243.200,73.650,19.540,330.400,84.600,23.680,8.647,500.500,128.500,39.950,13.870,easy
1188.000,238.500,82.880,22.500,1294.000,243.400,74.020,19.580,332.200,84.980,23.750,8.645,501.600,128.600,40.120,13.940,easy
1192.000,240.200,83.040,22.630,1294.000,243.600,73.910,19.630,332.500,84.640,23.750,8.680,504.800,129.200,40.220,14.010,easy
1197.000,241.900,83.240,22.820,1301.000,244.400,74.190,19.730,333.700,84.880,23.830,8.704,504.700,129.700,40.460,14.100,easy
1203.000,243.700,83.830,22.940,1301.000,245.500,74.610,19.800,338.400,85.300,23.880,8.721,507.200,130.300,40.510,14.150,easy
1209.000,243.700,84.940,23.090,1305.000,246.500,74.660,19.810,337.500,84.710,23.920,8.756,509.300,130.800,40.850,14.240,easy
1216.000,245.000,85.170,23.430,1309.000,246.300,74.790,19.760,337.000,85.590,24.020,8.782,510.500,131.100,40.840,14.220,easy
1206.000,243.100,83.500,22.660,1297.000,243.200,73.860,19.600,337.400,85.320,23.870,8.694,505.000,129.500,40.240,13.920,easy
1190.000,239.500,82.660,22.480,1291.000,243.900,73.710,19.540,334.000,84.870,23.720,8.641,502.900,129.000,40.170,13.850,easy
1185.000,239.000,82.350,22.400,1292.000,244.100,74.040,19.580,332.400,84.740,23.810,8.641,502.400,128.900,40.090,13.840,easy
1187.000,238.700,82.450,22.420,1291.000,243.200,73.760,19.540,338.100,84.490,23.800,8.678,503.700,128.900,40.050,13.870,easy
1185.000,238.400,82.760,22.370,1289.000,244.400,74.090,19.610,334.400,85.130,23.800,8.651,504.700,128.800,40.270,13.880,easy
1190.000,239.500,82.660,22.500,1297.000,244.900,74.300,19.620,333.500,85.000,23.870,8.653,505.400,129.800,40.420,13.990,easy
1195.000,240.600,83.560,22.730,1295.000,245.600,74.340,19.730,333.800,85.090,23.870,8.692,506.100,130.200,40.540,14.110,easy
1201.000,243.000,84.360,22.940,1299.000,246.100,74.530,19.820,335.200,85.290,23.920,8.721,508.700,130.600,40.740,14.180,easy
1206.000,245.400,84.810,23.050,1304.000,247.600,74.910,19.890,333.900,85.350,24.060,8.768,510.800,131.300,41.110,14.280,easy
1212.000,245.500,85.120,23.190,1306.000,247.300,75.140,19.920,338.100,85.590,24.040,8.802,511.700,132.000,41.100,14.420,easy
1220.000,247.300,85.830,23.380,1308.000,246.600,75.010,19.830,340.700,85.940,24.090,8.821,513.600,131.900,41.240,14.250,easy
1203.000,242.300,83.890,22.700,1299.000,244.900,74.390,19.710,337.000,85.750,23.950,8.726,507.700,130.300,40.590,13.980,easy
1192.000,241.600,83.280,22.510,1296.000,244.900,74.240,19.660,337.200,85.310,23.880,8.681,507.400,130.300,40.390,14.070,easy
1188.000,240.500,82.680,22.500,1294.000,244.000,74.400,19.690,337.100,85.220,23.890,8.692,507.600,130.400,40.510,14.050,easy
1191.000,240.100,83.280,22.590,1294.000,244.200,74.160,19.680,336.300,85.480,23.960,8.715,508.000,130.500,40.770,14.080,easy
1189.000,241.400,83.070,22.580,1301.000,245.100,74.420,19.750,337.500,85.770,23.950,8.727,508.600,130.600,40.860,14.100,easy
1195.000,243.000,83.680,22.710,1302.000,245.500,74.660,19.840,339.100,85.700,24.010,8.756,510.400,131.200,40.960,14.200,easy
1199.000,243.200,84.220,22.940,1300.000,246.400,74.950,19.900,334.500,85.880,24.080,8.774,512.400,131.700,41.110,14.280,easy
1206.000,245.600,84.700,23.070,1304.000,247.500,74.970,19.900,338.400,85.900,24.170,8.780,514.000,132.400,41.460,14.430,easy
1212.000,246.500,85.530,23.360,1309.000,247.400,75.250,20.030,337.700,86.330,24.170,8.836,515.800,132.900,41.520,14.500,easy
1220.000,248.400,86.340,23.490,1307.000,248.800,75.700,20.100,341.100,86.220,24.230,8.847,517.900,133.500,41.920,14.640,easy
1228.000,249.400,86.940,23.740,1315.000,249.900,75.620,20.070,341.200,86.400,24.260,8.892,519.000,134.300,42.030,14.550,easy
1216.000,245.100,85.050,23.060,1303.000,247.500,75.040,19.880,338.500,86.320,24.190,8.835,515.700,132.600,41.300,14.350,easy
1204.000,245.300,84.420,22.990,1304.000,246.800,75.030,19.930,337.900,86.170,24.120,8.809,514.800,132.300,41.270,14.380,easy
1205.000,244.200,84.580,23.030,1305.000,246.700,75.240,19.950,339.100,86.060,24.140,8.818,514.000,133.000,41.450,14.380,easy
1206.000,244.700,84.620,23.050,1305.000,247.000,75.270,19.880,339.000,86.060,24.200,8.814,516.200,132.600,41.370,14.380,easy
1207.000,246.500,84.950,23.110,1303.000,247.200,75.330,20.010,340.300,86.000,24.140,8.841,517.000,133.000,41.670,14.460,easy
1212.000,246.600,85.570,23.280,1309.000,247.700,75.490,20.080,341.000,86.690,24.230,8.852,518.400,133.300,41.750,14.530,easy
1217.000,246.900,86.110,23.390,1312.000,248.000,75.950,20.160,339.500,86.790,24.390,8.893,519.300,134.000,41.950,14.640,easy
1225.000,249.300,86.630,23.630,1316.000,249.100,76.260,20.230,343.400,87.070,24.320,8.919,522.500,134.300,42.350,14.800,easy
1231.000,251.000,87.180,23.800,1322.000,250.300,76.220,20.330,340.700,87.170,24.360,8.961,525.200,135.000,42.560,14.840,easy
1239.000,252.200,87.990,24.040,1321.000,250.000,76.410,20.260,346.300,87.580,24.410,8.959,525.300,135.700,42.490,14.850,easy
1231.000,249.100,86.490,23.560,1315.000,249.400,75.610,20.070,345.800,87.150,24.450,8.912,522.200,134.600,42.040,14.560,easy
1216.000,246.900,86.070,23.250,1309.000,248.600,75.570,20.080,339.300,87.120,24.350,8.892,519.600,134.200,41.940,14.560,easy
1215.000,246.400,86.020,23.240,1311.000,248.700,75.380,20.120,339.800,86.780,24.310,8.869,520.500,134.400,42.010,14.580,easy
1217.000,247.800,86.130,23.370,1311.000,248.300,75.680,20.070,341.300,86.770,24.380,8.892,521.000,134.300,41.920,14.610,easy
1219.000,249.500,85.790,23.410,1313.000,248.800,75.800,20.140,340.800,87.130,24.340,8.905,521.200,134.700,42.090,14.690,easy
1223.000,249.800,86.440,23.550,1318.000,249.100,76.230,20.220,341.000,86.850,24.420,8.917,522.500,135.100,42.290,14.750,easy
1230.000,250.200,87.110,23.810,1319.000,250.400,76.250,20.350,345.900,87.090,24.350,8.952,525.600,135.600,42.580,14.860,easy
1235.000,252.200,87.940,23.970,1322.000,250.700,76.440,20.370,341.100,87.810,24.480,8.976,527.000,136.200,42.790,14.960,easy
1242.000,252.900,88.430,24.160,1324.000,251.900,76.630,20.460,341.500,87.280,24.500,8.998,529.100,137.000,42.860,15.020,easy
1249.000,255.100,89.180,24.290,1329.000,252.200,77.130,20.540,347.000,87.250,24.590,8.997,530.000,137.400,43.210,15.140,easy
1258.000,256.600,89.470,24.540,1331.000,252.300,76.660,20.440,338.900,87.700,24.690,9.043,532.400,137.800,43.020,15.050,easy
1242.000,252.600,87.350,23.790,1319.000,250.800,76.140,20.310,345.800,87.370,24.540,8.948,526.600,135.900,42.540,14.820,easy
1231.000,249.800,87.330,23.620,1315.000,250.100,75.990,20.300,341.700,87.200,24.510,8.941,525.800,135.500,42.540,14.790,easy
1230.000,250.600,87.170,23.750,1317.000,249.800,76.210,20.310,341.500,86.870,24.490,8.948,526.700,135.700,42.490,14.820,easy
1231.000,250.700,86.990,23.760,1319.000,249.800,76.310,20.290,341.600,87.090,24.520,8.949,527.000,136.000,42.600,14.840,easy
1233.000,249.200,87.290,23.870,1315.000,250.400,76.670,20.330,345.100,87.660,24.460,8.951,527.300,136.300,42.680,14.880,easy
1238.000,251.800,87.690,23.940,1328.000,250.800,76.850,20.400,343.700,87.320,24.520,8.992,529.900,136.900,43.000,15.020,easy
1243.000,253.100,88.270,24.170,1327.000,251.500,76.990,20.520,345.100,87.830,24.540,9.013,530.900,137.300,43.190,15.130,easy
1249.000,253.800,89.160,24.310,1329.000,251.700,76.890,20.560,343.700,87.620,24.690,9.044,532.600,137.900,43.260,15.180,easy
1257.000,256.800,89.940,24.620,1332.000,253.200,77.270,20.700,346.900,87.610,24.690,9.084,535.400,138.300,43.620,15.310,easy
1263.000,258.000,90.160,24.780,1338.000,253.600,77.720,20.740,343.700,88.130,24.760,9.112,535.200,139.400,43.730,15.380,easy
1274.000,260.100,90.750,24.980,1338.000,254.400,77.510,20.670,345.700,88.170,24.850,9.120,538.500,139.100,43.880,15.310,easy
1260.000,256.900,89.220,24.260,1325.000,251.500,76.780,20.490,348.600,88.060,24.720,9.043,533.300,137.900,43.090,15.100,easy
1247.000,253.400,88.230,24.250,1328.000,252.100,76.670,20.520,343.200,88.070,24.680,9.018,532.300,137.400,43.110,15.040,easy
1247.000,253.900,88.580,24.320,1325.000,251.700,76.900,20.570,344.400,88.240,24.700,9.038,531.300,137.100,43.240,15.100,easy
1249.000,253.700,88.570,24.360,1325.000,251.800,76.940,20.540,345.000,87.910,24.650,9.012,533.400,137.700,43.200,15.080,easy
1249.000,253.000,89.160,24.370,1327.000,251.800,77.020,20.560,342.700,87.880,24.670,9.041,535.000,138.100,43.130,15.150,easy
1253.000,254.700,89.080,24.460,1331.000,253.000,77.380,20.630,343.400,87.950,24.690,9.052,535.500,138.500,43.620,15.210,easy
1258.000,257.600,89.620,24.730,1332.000,253.100,77.420,20.680,348.700,88.330,24.760,9.103,536.100,138.800,43.780,15.350,easy
1265.000,256.900,90.190,24.890,1333.000,253.300,77.860,20.710,348.300,88.350,24.870,9.114,538.600,139.800,43.890,15.420,easy
1272.000,259.800,90.830,25.120,1337.000,254.700,77.760,20.820,346.800,88.530,24.910,9.143,539.800,140.000,44.180,15.520,easy
1278.000,261.300,91.170,25.200,1343.000,254.900,77.660,20.840,352.100,88.870,24.990,9.173,544.000,140.400,44.190,15.470,easy
1275.000,258.700,90.070,24.730,1329.000,253.300,77.150,20.620,345.400,88.390,24.980,9.128,538.800,139.200,43.660,15.220,easy
1256.000,255.200,89.290,24.490,1327.000,252.300,77.140,20.520,345.000,88.260,24.780,9.073,534.800,138.800,43.410,15.210,easy
1254.000,255.000,89.300,24.450,1329.000,252.200,77.060,20.600,346.400,88.350,24.760,9.086,536.300,138.600,43.430,15.180,easy
1257.000,254.900,89.490,24.470,1328.000,251.800,77.170,20.540,346.100,88.070,24.770,9.085,536.900,138.600,43.340,15.130,easy
1255.000,254.600,89.230,24.570,1324.000,252.200,77.130,20.590,347.200,88.090,24.690,9.030,536.400,138.400,43.400,15.160,easy
1258.000,255.400,89.460,24.690,1332.000,252.700,77.220,20.650,348.800,88.040,24.750,9.034,538.800,138.900,43.720,15.250,easy
1264.000,257.300,89.930,24.770,1333.000,253.100,77.470,20.740,350.900,88.430,24.890,9.081,539.700,139.600,43.810,15.330,easy
1269.000,257.400,90.340,25.000,1335.000,254.000,77.540,20.780,347.800,88.910,24.820,9.123,540.800,139.600,43.830,15.370,easy
1274.000,260.000,90.670,25.140,1339.000,254.000,77.960,20.820,349.300,88.700,24.850,9.136,543.300,140.700,44.180,15.530,easy
1280.000,260.700,91.560,25.340,1341.000,254.600,78.010,20.850,348.400,88.870,24.950,9.163,544.700,140.800,44.170,15.550,easy
1279.000,260.200,90.480,24.970,1331.000,252.900,77.120,20.590,350.800,88.920,24.910,9.129,539.000,139.500,43.480,15.180,easy
1258.000,255.600,89.510,24.580,1330.000,251.400,76.960,20.530,350.200,88.020,24.680,9.056,536.200,138.600,43.200,15.090,easy
1255.000,254.500,89.050,24.480,1329.000,251.300,76.850,20.550,344.500,87.730,24.730,9.031,536.100,138.200,43.290,15.150,easy
1254.000,254.800,89.260,24.520,1331.000,251.800,76.940,20.550,347.100,88.830,24.810,9.037,536.300,138.400,43.220,15.090,easy
1253.000,254.400,88.680,24.500,1327.000,252.500,76.770,20.510,345.400,88.230,24.680,9.023,535.100,138.000,43.030,15.070,easy
1255.000,254.200,89.190,24.570,1329.000,252.200,76.920,20.570,348.400,88.370,24.630,9.040,536.900,138.700,43.360,15.190,easy
1260.000,255.200,89.640,24.780,1328.000,252.600,76.920,20.590,345.100,88.190,24.780,9.074,538.000,138.600,43.330,15.230,easy
1265.000,256.000,89.760,24.880,1330.000,252.700,77.150,20.640,344.100,88.300,24.710,9.091,540.300,139.400,43.570,15.300,easy
1269.000,257.800,90.480,25.010,1336.000,253.000,77.420,20.720,345.300,88.430,24.770,9.078,539.300,139.700,43.790,15.360,easy
1273.000,258.800,91.020,25.150,1337.000,253.100,77.610,20.760,346.800,88.100,24.810,9.114,540.600,139.700,44.050,15.430,easy
1280.000,260.500,91.230,25.140,1336.000,252.800,77.200,20.600,349.100,88.790,24.900,9.130,539.700,139.700,43.570,15.270,easy
1262.000,255.500,89.280,24.580,1327.000,251.200,76.880,20.470,345.100,88.010,24.640,9.022,535.000,137.700,43.070,15.050,easy
1254.000,254.700,89.060,24.520,1324.000,250.300,76.750,20.470,343.200,88.010,24.620,9.035,533.800,137.700,42.930,15.000,easy
1253.000,254.200,88.530,24.510,1328.000,250.500,76.370,20.460,346.100,87.720,24.550,9.016,532.600,137.400,42.920,14.980,easy
1252.000,254.300,88.590,24.420,1325.000,250.800,76.560,20.460,347.800,87.710,24.610,9.015,532.700,136.800,42.970,14.970,easy
1253.000,252.500,89.030,24.450,1323.000,250.800,76.490,20.440,345.400,87.540,24.510,9.006,532.500,137.300,42.940,15.050,easy
1254.000,254.700,89.040,24.620,1321.000,251.000,76.800,20.540,345.300,87.500,24.600,9.015,534.500,138.000,43.100,15.110,easy
1259.000,254.700,89.280,24.710,1333.000,252.500,76.880,20.560,346.600,87.630,24.650,9.030,533.400,138.100,43.340,15.150,easy
1264.000,256.600,89.910,24.870,1330.000,251.500,76.970,20.580,344.300,88.050,24.680,9.053,536.000,139.100,43.310,15.250,easy
1268.000,258.200,90.110,25.030,1329.000,251.600,77.030,20.600,345.500,87.370,24.610,9.061,537.000,138.900,43.400,15.230,easy
1266.000,257.200,89.600,24.630,1324.000,250.300,76.420,20.350,344.900,87.990,24.630,9.019,532.100,136.700,42.840,14.910,easy
1248.000,253.200,88.180,24.280,1321.000,250.400,75.920,20.350,348.200,87.440,24.470,8.950,529.700,135.800,42.580,14.810,easy
1244.000,253.300,87.760,24.250,1319.000,249.200,76.050,20.310,341.100,87.180,24.440,8.951,527.200,135.900,42.540,14.790,easy
1244.000,252.000,88.060,24.200,1316.000,248.900,75.990,20.290,340.700,86.820,24.460,8.935,526.400,135.400,42.420,14.770,easy
1243.000,251.000,88.020,24.110,1321.000,248.000,75.870,20.250,344.300,87.030,24.320,8.931,527.500,135.700,42.550,14.840,easy
1244.000,251.300,87.680,24.250,1323.000,248.700,75.970,20.310,341.200,87.130,24.430,8.948,528.700,135.900,42.650,14.880,easy
1247.000,253.100,88.580,24.390,1320.000,249.300,76.150,20.330,342.500,87.380,24.430,8.932,528.400,136.200,42.680,14.980,easy
1252.000,253.400,88.910,24.380,1318.000,248.900,76.240,20.350,344.500,87.100,24.490,8.990,531.500,136.500,42.760,15.030,easy
1257.000,253.600,89.100,24.650,1326.000,250.100,76.190,20.430,342.400,86.910,24.480,8.985,531.000,137.400,42.940,15.070,easy
1261.000,256.200,89.750,24.790,1326.000,251.200,76.510,20.480,342.000,87.590,24.560,8.991,532.100,137.500,43.260,15.160,easy
1261.000,254.500,88.790,24.460,1318.000,249.100,75.850,20.150,344.400,87.360,24.480,8.975,529.500,135.800,42.360,14.780,easy
1240.000,250.400,87.310,23.940,1314.000,247.600,75.570,20.120,340.600,86.650,24.290,8.899,525.700,134.600,42.110,14.590,easy
1235.000,249.400,86.900,23.880,1312.000,247.100,75.310,20.090,339.400,86.730,24.170,8.865,521.000,134.300,41.830,14.600,easy
1233.000,249.600,86.480,23.860,1314.000,247.700,75.520,20.120,338.400,86.440,24.190,8.862,521.600,134.200,41.870,14.540,easy
1231.000,249.200,86.690,23.810,1311.000,246.700,75.200,20.040,342.400,86.190,24.170,8.842,521.700,133.900,41.900,14.570,easy
1231.000,248.400,86.690,23.940,1312.000,247.400,75.220,20.120,339.200,86.390,24.120,8.866,520.700,134.400,41.880,14.630,easy
1235.000,250.200,87.110,23.950,1317.000,247.500,75.290,20.080,337.000,85.980,24.180,8.865,523.300,134.600,42.110,14.710,easy
1238.000,249.400,87.860,24.090,1313.000,247.700,75.510,20.170,340.800,86.480,24.270,8.875,525.000,134.800,42.250,14.780,easy
1243.000,251.600,87.350,24.250,1319.000,248.500,75.670,20.150,340.700,86.750,24.240,8.907,525.500,135.100,42.360,14.880,easy
1247.000,252.500,88.220,24.290,1315.000,249.000,75.740,20.240,341.000,86.270,24.360,8.927,526.500,135.900,42.630,14.920,easy
1253.000,253.400,88.350,24.310,1314.000,249.000,75.520,20.060,343.200,86.360,24.350,8.927,526.000,135.000,42.240,14.700,easy
1235.000,248.000,86.530,23.810,1309.000,245.700,75.030,19.910,338.600,86.230,24.100,8.832,520.900,133.800,41.610,14.510,easy
1228.000,247.500,86.030,23.610,1306.000,246.500,74.950,19.890,337.500,85.640,24.050,8.819,518.600,133.300,41.690,14.440,easy
1225.000,246.500,86.100,23.650,1310.000,246.200,74.870,19.950,338.400,85.910,24.110,8.795,518.600,133.400,41.770,14.470,easy
1224.000,246.200,85.720,23.560,1306.000,245.900,74.720,19.900,342.000,85.300,23.980,8.782,518.500,132.800,41.550,14.420,easy
1224.000,246.500,85.560,23.630,1312.000,245.500,74.840,19.960,337.400,85.470,23.970,8.796,517.600,133.200,41.680,14.500,easy
1226.000,248.100,85.980,23.690,1308.000,246.100,74.920,19.980,339.300,85.880,24.030,8.830,519.800,133.300,41.830,14.520,easy
1231.000,247.600,86.600,23.900,1306.000,246.800,75.210,20.040,338.800,86.000,24.080,8.839,518.900,133.800,41.830,14.620,easy
1236.000,249.100,87.320,23.970,1311.000,247.600,75.310,20.030,334.700,86.010,24.150,8.834,522.600,134.300,42.080,14.660,easy
1241.000,249.500,87.610,24.050,1309.000,248.000,75.550,20.120,337.600,86.110,24.180,8.862,523.600,134.400,42.380,14.790,easy
1246.000,250.400,88.050,24.150,1317.000,246.800,75.420,19.990,339.000,86.330,24.190,8.897,523.800,134.100,41.990,14.590,easy
1231.000,247.800,86.010,23.650,1304.000,246.100,74.670,19.880,337.000,85.470,24.020,8.815,517.000,132.800,41.400,14.370,easy
1220.000,245.900,85.560,23.280,1302.000,244.500,74.590,19.780,335.400,85.420,23.930,8.769,515.300,131.800,41.260,14.320,easy
1217.000,245.000,85.070,23.340,1302.000,245.600,74.710,19.820,338.500,85.250,24.060,8.769,515.900,132.000,41.330,14.340,easy
1217.000,244.200,85.100,23.300,1306.000,244.800,74.580,19.770,336.200,85.710,23.900,8.753,514.800,131.900,41.060,14.300,easy
1216.000,244.900,85.130,23.370,1305.000,245.200,74.700,19.790,336.100,85.590,23.950,8.775,514.500,132.100,41.320,14.360,easy
1220.000,246.700,85.320,23.510,1305.000,245.400,74.790,19.830,335.800,85.780,24.050,8.748,516.500,132.400,41.510,14.430,easy
1224.000,246.100,86.080,23.670,1309.000,246.400,74.970,19.920,336.800,85.380,24.030,8.799,516.400,132.600,41.660,14.470,easy
1228.000,248.400,86.040,23.730,1314.000,246.200,75.260,19.960,334.200,86.180,24.010,8.792,519.300,133.500,41.710,14.540,easy
1234.000,250.500,87.270,23.880,1318.000,246.400,75.440,20.000,338.400,86.120,24.110,8.833,519.200,133.800,42.040,14.650,easy
1240.000,250.300,87.370,24.120,1314.000,247.500,75.440,20.060,338.300,85.780,24.170,8.878,521.300,134.100,42.150,14.730,easy
1242.000,250.000,86.660,23.870,1312.000,245.200,74.770,19.830,340.400,86.190,24.090,8.816,519.300,132.800,41.460,14.370,easy
1219.000,244.300,84.920,23.320,1303.000,245.100,74.470,19.730,339.700,85.390,23.950,8.747,515.200,131.900,41.050,14.210,easy
1212.000,243.700,84.430,23.110,1304.000,244.700,74.470,19.720,336.900,85.230,23.890,8.721,513.200,131.400,40.890,14.220,easy
1211.000,244.000,84.360,23.210,1300.000,245.200,74.460,19.730,334.800,85.060,23.970,8.719,511.700,131.400,40.940,14.200,easy
1209.000,243.700,84.530,23.170,1299.000,244.200,74.510,19.700,336.700,85.240,23.810,8.724,511.600,131.500,41.010,14.240,easy
1211.000,244.400,84.920,23.160,1303.000,244.200,74.690,19.750,336.700,85.320,23.910,8.739,512.400,131.500,41.070,14.290,easy
1216.000,245.400,84.950,23.380,1306.000,245.100,74.740,19.860,337.800,85.090,23.980,8.745,513.900,131.900,41.240,14.390,easy
1220.000,246.600,85.750,23.570,1309.000,246.700,74.810,19.860,340.000,85.260,23.970,8.770,515.600,132.600,41.560,14.480,easy
1225.000,246.700,85.760,23.730,1312.000,247.000,75.020,19.910,339.900,85.340,24.010,8.786,516.900,133.100,41.740,14.530,easy
1230.000,249.000,86.780,23.840,1312.000,246.600,75.490,20.010,336.800,85.900,24.120,8.848,519.100,133.500,41.840,14.630,easy
1236.000,249.600,87.340,23.950,1318.000,247.900,75.730,20.040,338.100,86.130,24.150,8.864,521.000,134.300,42.310,14.750,easy
1242.000,250.900,87.420,24.000,1315.000,247.000,74.970,19.860,340.000,86.360,24.170,8.881,518.500,133.400,41.870,14.450,easy
1220.000,245.000,85.360,23.350,1305.000,245.900,74.370,19.790,337.300,85.460,23.990,8.781,513.800,131.900,41.100,14.310,easy
1214.000,245.400,84.690,23.210,1303.000,245.600,74.480,19.750,333.700,85.400,23.940,8.752,513.100,131.400,41.210,14.310,easy
1214.000,243.700,84.600,23.270,1305.000,246.200,74.500,19.800,335.200,85.070,23.890,8.767,513.400,132.000,41.200,14.310,easy
1213.000,244.900,84.890,23.270,1304.000,245.400,74.620,19.780,337.400,85.920,23.970,8.735,513.900,131.900,41.380,14.350,easy
1213.000,245.300,84.800,23.260,1302.000,245.800,74.680,19.880,336.600,85.640,23.840,8.762,514.800,132.600,41.290,14.330,easy
1218.000,246.500,85.590,23.550,1311.000,246.400,74.950,19.850,335.900,85.530,24.040,8.800,516.100,132.500,41.530,14.490,easy
1222.000,247.000,86.010,23.650,1309.000,246.900,75.230,19.900,333.400,85.960,24.130,8.790,516.700,133.100,41.690,14.540,easy
1229.000,248.000,86.310,23.830,1314.000,248.100,75.390,19.990,338.800,86.010,24.090,8.824,518.900,133.900,41.870,14.640,easy
1234.000,249.500,87.330,24.030,1310.000,248.300,75.710,20.040,336.200,86.070,24.220,8.881,520.400,134.100,42.230,14.740,easy
1241.000,251.500,87.550,23.970,1316.000,248.200,75.350,19.950,342.600,86.470,24.250,8.887,522.300,133.700,41.820,14.550,easy
1220.000,246.900,85.660,23.360,1304.000,246.500,74.950,19.820,337.900,85.550,24.070,8.778,514.900,132.400,41.410,14.370,easy
1212.000,244.700,85.200,23.210,1307.000,245.900,74.790,19.820,340.600,85.680,23.950,8.780,513.800,132.100,41.130,14.320,easy
1211.000,245.000,84.910,23.320,1304.000,247.400,74.710,19.790,339.500,85.240,24.070,8.777,513.100,132.100,41.230,14.340,easy
1211.000,244.300,85.130,23.270,1306.000,246.600,74.950,19.800,338.100,85.860,24.030,8.780,514.600,132.000,41.250,14.380,easy
1210.000,245.300,85.020,23.340,1305.000,246.300,75.050,19.840,336.200,85.710,24.000,8.779,516.600,132.100,41.440,14.410,easy
1216.000,246.300,85.280,23.410,1308.000,247.400,75.210,19.900,339.800,85.460,24.080,8.805,517.300,133.100,41.550,14.500,easy
1220.000,248.300,86.010,23.660,1315.000,247.500,75.360,20.000,338.100,86.080,24.130,8.844,518.700,133.600,41.850,14.590,easy
1227.000,248.400,86.540,23.850,1310.000,248.900,75.660,20.020,341.100,85.940,24.250,8.874,519.900,134.200,42.030,14.690,easy
1233.000,250.600,87.000,24.030,1317.000,249.300,76.030,20.100,341.800,86.460,24.290,8.880,521.500,134.600,42.340,14.820,easy
1240.000,252.500,87.980,24.230,1322.000,249.700,75.980,20.170,339.600,86.320,24.280,8.920,525.200,135.000,42.460,14.890,easy
1241.000,251.100,87.630,23.890,1318.000,248.600,75.440,19.880,341.100,86.900,24.280,8.898,520.300,134.000,41.830,14.500,easy
1216.000,246.800,85.610,23.350,1305.000,247.700,75.060,19.870,340.900,86.000,24.080,8.823,517.300,133.000,41.490,14.430,easy
1210.000,245.200,84.990,23.160,1305.000,246.900,74.870,19.810,340.300,86.040,24.020,8.790,515.200,132.700,41.300,14.370,easy
1210.000,245.000,85.020,23.320,1305.000,247.200,74.980,19.840,339.600,86.290,24.100,8.822,515.900,132.800,41.420,14.390,easy
1210.000,246.000,85.480,23.310,1307.000,247.700,75.040,19.820,337.100,85.750,24.050,8.794,516.600,132.400,41.480,14.470,easy
1212.000,247.000,85.540,23.420,1311.000,247.900,75.330,19.840,341.100,86.240,24.140,8.823,517.300,133.000,41.670,14.480,easy
1217.000,247.100,85.750,23.560,1312.000,248.600,75.440,19.990,341.500,85.750,24.200,8.833,520.000,133.500,41.830,14.630,easy
1221.000,247.900,86.420,23.760,1310.000,248.600,75.590,20.010,338.100,86.200,24.210,8.877,521.500,133.700,42.130,14.700,easy
1227.000,251.100,86.900,23.910,1316.000,249.500,76.090,20.040,342.400,86.560,24.260,8.899,521.900,134.700,42.140,14.760,easy
1233.000,251.600,87.410,24.010,1322.000,250.200,76.050,20.080,339.800,86.930,24.350,8.913,524.700,135.200,42.420,14.910,easy
1240.000,251.900,88.400,24.300,1318.000,249.400,76.110,20.060,342.600,86.770,24.320,8.942,527.000,135.500,42.320,14.770,easy
1227.000,249.400,86.510,23.550,1316.000,248.200,75.380,19.900,342.400,86.200,24.290,8.851,520.300,133.200,41.700,14.580,easy
1213.000,247.300,85.690,23.340,1307.000,247.800,75.350,19.910,338.500,85.910,24.140,8.868,520.200,132.900,41.690,14.470,easy
1211.000,246.700,85.580,23.420,1309.000,247.900,75.370,19.900,343.300,86.240,24.120,8.817,519.700,133.200,41.720,14.520,easy
1212.000,247.400,86.160,23.420,1309.000,248.300,75.280,19.910,342.900,86.790,24.230,8.837,518.500,133.400,41.780,14.530,easy
1212.000,247.900,86.150,23.520,1308.000,247.600,75.320,19.950,340.900,86.550,24.310,8.851,519.500,133.100,41.830,14.590,easy
1215.000,248.300,85.910,23.560,1311.000,249.000,75.470,19.980,342.200,86.230,24.370,8.858,522.200,134.000,41.960,14.630,easy
1220.000,249.300,86.840,23.700,1314.000,249.000,75.730,20.040,341.600,86.240,24.290,8.881,522.800,134.400,42.230,14.700,easy
1226.000,250.900,87.030,23.880,1316.000,249.700,76.100,20.090,342.800,86.770,24.410,8.931,525.900,134.700,42.470,14.810,easy
1231.000,252.000,87.620,24.020,1320.000,250.600,76.330,20.150,341.900,86.760,24.470,8.965,526.100,135.300,42.710,14.910,easy
1237.000,253.400,87.800,24.010,1319.000,249.900,75.940,19.980,339.100,87.250,24.480,8.936,526.100,135.100,42.210,14.700,easy
1219.000,248.100,86.000,23.490,1310.000,249.000,75.460,19.970,343.300,86.070,24.290,8.863,520.900,133.600,41.810,14.510,easy
1212.000,247.900,86.030,23.430,1313.000,248.100,75.640,19.960,341.300,86.610,24.300,8.870,521.400,133.600,41.860,14.540,easy
1211.000,247.800,86.170,23.430,1311.000,248.400,75.600,19.940,343.100,86.800,24.360,8.853,521.400,133.700,41.880,14.570,easy
1212.000,247.700,86.020,23.420,1309.000,248.300,75.720,19.940,342.200,86.300,24.270,8.872,521.800,133.700,41.850,14.580,easy
1214.000,247.500,86.370,23.510,1311.000,249.100,75.880,19.940,339.700,86.510,24.380,8.888,523.000,134.400,42.220,14.630,easy
1218.000,249.400,86.960,23.720,1310.000,248.800,75.860,20.020,342.100,87.060,24.370,8.925,523.800,135.000,42.210,14.760,easy
1223.000,249.900,87.210,23.800,1316.000,250.200,76.190,20.050,344.700,86.870,24.470,8.929,526.300,135.100,42.430,14.840,easy
1228.000,251.800,87.450,23.930,1319.000,251.200,76.510,20.130,344.000,87.290,24.440,8.972,527.500,135.900,42.600,14.930,easy
1234.000,252.300,88.200,24.140,1316.000,250.600,76.560,20.220,341.800,87.150,24.570,8.975,528.600,135.900,42.870,14.990,easy
1237.000,252.500,87.740,23.950,1316.000,249.000,75.990,20.000,343.000,87.830,24.490,8.958,526.900,135.000,42.290,14.680,easy
1215.000,247.700,86.120,23.380,1307.000,247.600,75.510,19.900,344.200,86.860,24.410,8.881,522.400,133.900,42.130,14.560,easy
1209.000,247.400,85.930,23.310,1303.000,247.800,75.520,19.940,341.300,86.710,24.230,8.903,521.800,133.700,42.000,14.540,easy
1208.000,247.400,85.980,23.270,1311.000,248.100,75.400,19.880,342.900,86.300,24.390,8.918,522.600,133.700,42.080,14.570,easy
1207.000,247.000,86.090,23.300,1309.000,248.000,75.470,19.900,338.700,86.780,24.460,8.875,521.900,133.800,41.920,14.600,easy
1209.000,247.000,86.430,23.430,1309.000,248.800,75.620,19.910,343.600,86.930,24.310,8.908,522.600,134.200,42.080,14.670,easy
1214.000,248.900,86.520,23.540,1308.000,249.300,75.950,20.010,345.300,87.010,24.460,8.928,525.100,135.200,42.300,14.730,easy
1218.000,248.800,87.030,23.610,1313.000,249.200,76.150,20.060,342.600,87.140,24.460,8.936,527.100,135.500,42.480,14.820,easy
1224.000,250.600,87.580,23.850,1315.000,249.100,75.990,20.090,342.300,87.040,24.530,8.977,529.700,136.000,42.650,14.880,easy
1227.000,251.700,87.760,23.920,1315.000,250.700,76.290,20.140,345.700,87.450,24.570,8.979,530.400,136.400,42.960,15.020,easy
1232.000,250.900,87.550,23.700,1314.000,247.800,75.720,19.930,345.800,87.730,24.620,8.953,527.100,135.500,42.250,14.690,easy
1212.000,247.700,86.210,23.300,1308.000,248.600,75.550,19.900,347.300,86.770,24.500,8.904,524.800,134.600,42.060,14.570,easy
1208.000,246.500,85.980,23.240,1312.000,247.200,75.420,19.880,340.800,87.230,24.370,8.911,522.700,134.200,42.210,14.600,easy
1208.000,246.900,86.240,23.220,1309.000,248.100,75.190,19.890,342.500,87.020,24.480,8.905,523.800,134.600,42.190,14.620,easy
1207.000,247.300,85.840,23.260,1308.000,247.400,75.720,19.870,344.000,86.820,24.450,8.904,524.800,134.800,42.110,14.640,easy
1209.000,247.000,85.690,23.300,1306.000,248.100,75.690,19.920,341.700,87.160,24.400,8.927,526.600,134.700,42.290,14.770,easy
1213.000,247.900,86.470,23.470,1311.000,248.200,75.700,19.980,344.300,87.250,24.480,8.940,526.900,135.200,42.420,14.800,easy
1216.000,248.400,87.160,23.580,1312.000,249.100,76.170,20.040,344.200,87.390,24.540,8.944,528.000,135.700,42.680,14.840,easy
1222.000,250.400,87.300,23.670,1313.000,248.000,76.160,20.110,341.000,87.260,24.540,8.985,530.600,136.300,42.740,14.890,easy
1227.000,249.800,88.010,23.850,1320.000,250.000,76.220,20.080,345.800,87.820,24.560,9.004,531.800,136.700,43.020,15.010,easy
1232.000,250.900,87.970,23.740,1318.000,249.000,75.670,19.970,347.100,87.520,24.640,9.048,530.400,135.800,42.560,14.760,easy
1216.000,247.800,86.240,23.310,1311.000,247.300,75.610,19.960,344.500,87.210,24.430,8.954,526.700,135.000,42.350,14.660,easy
1213.000,247.000,86.350,23.290,1308.000,247.800,75.790,19.880,344.700,86.970,24.530,8.929,525.600,135.100,42.280,14.730,easy
1214.000,246.700,86.190,23.350,1311.000,247.500,75.610,19.880,346.500,87.300,24.500,8.940,526.800,135.500,42.240,14.720,easy
1213.000,247.600,86.000,23.270,1316.000,247.600,75.740,19.910,342.000,87.110,24.510,8.963,526.400,135.300,42.320,14.710,easy
1215.000,247.900,86.710,23.400,1314.000,247.900,75.750,19.980,347.100,87.240,24.520,8.967,527.600,135.700,42.620,14.830,easy
1219.000,249.100,86.720,23.530,1313.000,248.800,75.810,20.010,342.800,87.490,24.570,9.004,530.900,136.000,42.710,14.860,easy
1224.000,249.300,87.120,23.690,1320.000,248.400,75.830,20.110,343.800,87.530,24.590,9.001,531.100,136.900,42.880,15.000,easy
1229.000,249.900,88.180,23.880,1320.000,249.100,76.070,20.100,344.800,88.040,24.690,9.051,532.000,137.100,43.170,15.050,easy
1235.000,251.900,88.500,23.990,1323.000,250.000,76.400,20.190,344.500,87.530,24.750,9.050,534.200,137.500,43.290,15.130,easy
1241.000,252.700,88.790,24.120,1322.000,249.000,76.290,20.090,347.900,88.090,24.710,9.093,536.100,137.700,43.200,15.050,easy
1230.000,251.200,87.190,23.520,1321.000,248.400,75.850,19.940,345.300,87.620,24.600,9.022,529.700,136.500,42.730,14.830,easy
1221.000,248.200,86.580,23.340,1314.000,247.700,75.670,19.900,345.800,87.410,24.550,8.949,527.900,135.900,42.460,14.770,easy
1218.000,246.900,86.370,23.340,1314.000,248.600,75.750,20.000,345.600,87.640,24.590,8.976,529.000,135.800,42.600,14.790,easy
1220.000,248.100,86.550,23.470,1315.000,247.900,75.890,19.950,345.000,87.480,24.590,8.996,528.300,136.200,42.460,14.850,easy
1221.000,248.200,86.410,23.470,1318.000,248.800,75.800,19.980,344.600,87.630,24.550,9.006,529.300,136.200,42.660,14.850,easy
1225.000,248.600,87.100,23.500,1319.000,249.100,76.010,20.020,345.500,87.130,24.580,9.034,530.700,136.900,42.850,14.950,easy
1230.000,250.100,87.310,23.640,1321.000,249.000,76.050,20.110,342.000,87.740,24.700,9.041,531.800,137.100,43.030,15.040,easy
1236.000,249.900,87.940,23.820,1324.000,249.400,76.260,20.220,347.300,88.040,24.700,9.093,533.400,137.800,43.230,15.120,easy
1240.000,252.600,88.310,24.050,1329.000,249.900,76.220,20.160,347.400,88.400,24.730,9.095,535.000,138.000,43.530,15.220,easy
1247.000,253.000,88.750,24.170,1334.000,251.400,76.490,20.310,348.300,88.210,24.850,9.134,537.900,138.700,43.720,15.290,easy
1253.000,254.300,89.610,24.380,1333.000,251.400,76.740,20.210,347.200,88.490,24.840,9.135,538.400,139.100,43.740,15.240,easy
1246.000,251.200,87.990,23.780,1321.000,249.000,76.300,20.080,346.000,88.220,24.820,9.065,533.500,137.200,43.050,15.010,easy
1234.000,249.300,87.680,23.630,1323.000,248.700,75.900,20.090,344.200,87.720,24.690,9.059,530.700,136.500,43.000,14.970,easy
1254.000,254.800,89.070,24.300,1339.000,251.800,76.870,20.340,344.400,88.300,24.830,9.140,536.700,138.800,43.740,15.350,bogus
1260.000,254.400,89.730,24.440,1338.000,251.500,77.010,20.390,345.600,88.310,24.860,9.167,538.900,139.100,43.870,15.450,bogus
1267.000,255.100,89.870,24.400,1338.000,251.400,76.500,20.240,349.400,88.940,24.940,9.166,536.200,138.500,43.480,15.200,bogus
1252.000,252.400,88.090,24.060,1332.000,250.300,76.250,20.170,344.500,88.190,24.750,9.092,533.000,137.600,43.130,15.100,bogus
1248.000,252.200,88.260,23.980,1331.000,249.900,76.270,20.150,342.900,87.940,24.730,9.090,532.700,137.500,43.090,15.090,bogus
1197.000,241.300,83.040,22.680,1292.000,242.800,73.840,19.360,339.700,85.790,24.080,8.859,511.600,130.800,41.010,14.280,easy
1201.000,240.900,83.670,22.840,1294.000,242.700,73.990,19.450,337.000,85.570,24.090,8.870,513.600,131.500,41.150,14.400,easy
1206.000,242.500,83.900,22.960,1292.000,243.800,74.310,19.510,339.000,86.180,24.200,8.888,515.300,132.100,41.240,14.480,easy
1213.000,244.600,84.800,23.140,1305.000,244.900,74.290,19.600,340.900,86.260,24.270,8.918,518.000,132.800,41.590,14.570,easy
1220.000,246.500,85.380,23.370,1303.000,245.200,74.570,19.670,339.400,86.310,24.370,8.964,516.900,133.100,41.800,14.610,easy
1220.000,244.800,84.980,22.940,1299.000,244.400,74.040,19.430,343.600,86.290,24.280,8.908,514.400,131.400,41.030,14.280,easy
1198.000,239.700,83.010,22.550,1289.000,242.800,73.500,19.330,343.600,86.040,24.160,8.841,510.200,130.400,40.690,14.140,easy
1192.000,239.000,82.670,22.430,1286.000,242.300,73.570,19.350,339.600,85.270,24.030,8.810,509.300,130.300,40.630,14.080,easy
1192.000,239.200,82.760,22.470,1290.000,241.600,73.610,19.350,339.200,85.590,24.050,8.836,508.500,130.000,40.440,14.090,easy
1189.000,238.200,82.420,22.410,1288.000,242.100,73.420,19.370,341.400,85.510,24.050,8.816,508.900,130.000,40.600,14.080,easy
1192.000,239.600,82.540,22.510,1292.000,242.100,73.960,19.400,337.300,85.430,24.110,8.829,510.600,130.300,40.700,14.160,easy
1196.000,240.900,83.100,22.590,1294.000,243.600,74.000,19.450,337.900,86.240,24.130,8.859,511.700,130.800,40.910,14.290,easy
1201.000,242.700,83.950,22.760,1294.000,243.700,74.230,19.500,342.400,85.830,24.200,8.891,513.000,131.400,41.030,14.390,easy
1208.000,243.500,84.150,23.000,1297.000,245.200,74.310,19.600,339.700,85.660,24.220,8.916,515.700,132.100,41.420,14.460,easy
1213.000,244.600,84.770,23.190,1305.000,245.500,74.680,19.670,337.300,86.410,24.240,8.951,518.000,133.000,41.570,14.570,easy
1219.000,245.800,85.040,23.050,1302.000,245.200,74.120,19.480,343.500,86.470,24.280,8.929,515.100,131.400,40.970,14.250,easy
1195.000,239.900,82.890,22.430,1296.000,243.400,73.740,19.380,341.700,86.160,24.120,8.826,510.400,130.300,40.480,14.070,easy
1188.000,238.500,82.420,22.320,1290.000,242.100,73.820,19.350,336.400,85.650,24.100,8.817,507.500,130.000,40.380,14.050,easy
1187.000,238.500,82.430,22.360,1288.000,242.000,73.640,19.350,337.800,85.650,24.030,8.805,508.700,129.900,40.480,14.000,easy
1187.000,237.800,81.860,22.310,1288.000,242.300,73.740,19.370,335.000,85.660,24.070,8.812,508.500,129.500,40.220,14.040,easy
1187.000,238.600,82.200,22.390,1293.000,242.900,74.000,19.350,338.800,85.620,24.060,8.824,510.500,130.000,40.430,14.100,easy
1190.000,239.800,82.420,22.510,1292.000,243.100,74.090,19.520,343.900,85.740,24.100,8.855,511.200,130.300,40.610,14.210,easy
1197.000,241.200,83.210,22.670,1296.000,244.000,74.040,19.540,343.100,86.220,24.140,8.866,512.900,131.100,40.940,14.310,easy
1201.000,242.600,83.680,22.890,1298.000,243.800,74.330,19.590,339.600,85.980,24.200,8.892,515.000,131.900,41.190,14.370,easy
1207.000,243.300,84.460,23.010,1300.000,245.400,74.650,19.700,340.800,86.740,24.220,8.905,516.600,132.200,41.310,14.460,easy
1214.000,245.200,84.420,23.020,1302.000,245.400,74.520,19.550,342.200,86.550,24.260,8.957,515.200,131.800,41.170,14.270,easy
1198.000,241.600,83.020,22.460,1294.000,243.700,73.790,19.420,341.500,86.120,24.210,8.846,511.500,130.200,40.670,14.100,easy
1189.000,239.500,82.420,22.350,1293.000,243.100,73.850,19.460,339.200,85.640,24.090,8.829,510.800,130.000,40.460,14.110,easy
1189.000,239.600,82.800,22.440,1295.000,243.900,74.110,19.410,340.200,85.990,24.060,8.835,510.800,130.100,40.580,14.060,easy
1188.000,239.500,82.600,22.360,1292.000,244.100,74.010,19.440,342.500,86.140,24.120,8.864,511.100,129.800,40.550,14.130,easy
1190.000,239.600,82.560,22.470,1294.000,244.000,74.020,19.460,338.900,86.380,24.210,8.845,511.600,130.300,40.850,14.160,easy
1194.000,241.600,83.620,22.550,1299.000,244.600,74.210,19.540,341.100,86.430,24.190,8.846,512.600,131.000,41.000,14.290,easy
1199.000,241.900,83.620,22.840,1302.000,244.700,74.640,19.620,342.600,86.600,24.280,8.887,515.800,131.100,41.190,14.390,easy
1205.000,243.900,84.350,22.930,1304.000,246.200,74.740,19.690,343.500,86.700,24.310,8.918,519.000,132.200,41.300,14.490,easy
1212.000,244.000,84.880,23.110,1309.000,247.000,74.900,19.690,344.600,87.000,24.450,8.954,519.600,132.800,41.570,14.520,easy
1213.000,244.500,84.270,22.800,1301.000,244.700,74.170,19.490,341.900,86.700,24.380,8.905,515.200,131.000,40.960,14.170,easy
1190.000,240.400,82.170,22.310,1298.000,243.800,73.960,19.420,339.600,86.340,24.190,8.821,512.100,130.400,40.540,14.060,easy
1184.000,238.400,82.220,22.170,1295.000,243.600,73.980,19.370,339.400,86.130,24.110,8.822,512.200,130.200,40.510,14.030,easy
1184.000,238.300,82.300,22.250,1294.000,243.200,73.820,19.380,341.900,86.040,24.180,8.823,511.700,130.100,40.500,14.040,easy
1182.000,238.000,82.470,22.160,1286.000,243.400,73.860,19.410,340.500,86.140,24.220,8.825,513.100,130.100,40.540,14.070,easy
1183.000,237.200,82.340,22.260,1292.000,243.700,74.120,19.450,340.900,86.130,24.210,8.845,512.100,130.800,40.710,14.140,easy
1189.000,239.500,82.710,22.410,1293.000,244.000,74.150,19.490,345.400,86.020,24.220,8.849,514.000,131.200,41.020,14.270,easy
1194.000,241.200,83.090,22.560,1296.000,245.200,74.400,19.580,344.300,86.440,24.260,8.885,517.900,131.800,41.160,14.350,easy
1199.000,241.600,83.480,22.810,1300.000,245.100,74.810,19.620,341.300,86.770,24.350,8.932,519.000,132.200,41.430,14.390,easy
1206.000,243.400,84.400,22.910,1310.000,246.400,75.060,19.690,341.300,86.750,24.430,8.952,519.800,133.100,41.640,14.490,easy
1208.000,243.500,83.890,22.560,1297.000,244.100,74.180,19.460,348.400,87.050,24.400,8.903,516.900,131.800,40.960,14.160,easy
1184.000,238.800,82.210,22.130,1295.000,242.700,74.010,19.380,343.500,86.410,24.190,8.835,513.000,130.600,40.660,14.020,easy
1178.000,236.800,81.770,22.020,1293.000,242.800,73.980,19.390,343.800,86.180,24.120,8.809,513.400,130.400,40.560,14.010,easy
1178.000,237.200,81.850,22.140,1294.000,243.500,73.850,19.380,339.400,85.760,24.140,8.816,512.100,130.400,40.590,14.000,easy
1176.000,237.500,81.870,22.040,1295.000,242.700,73.950,19.430,338.800,86.530,24.230,8.833,512.600,130.500,40.720,14.070,easy
1178.000,237.800,82.330,22.090,1298.000,242.900,74.020,19.450,342.800,86.420,24.210,8.814,515.000,130.900,40.930,14.170,easy
1182.000,236.900,82.390,22.180,1292.000,244.300,74.210,19.510,343.600,86.260,24.260,8.858,516.700,131.600,41.020,14.230,easy
1187.000,238.700,82.840,22.410,1299.000,244.400,74.520,19.540,342.300,86.660,24.260,8.892,517.900,132.100,41.190,14.360,easy
1193.000,240.900,83.190,22.610,1302.000,244.700,74.710,19.660,339.800,86.940,24.380,8.912,519.300,132.800,41.510,14.420,easy
1199.000,241.800,83.940,22.810,1304.000,245.600,74.850,19.700,344.700,86.780,24.480,8.922,523.000,133.700,41.710,14.510,easy
1206.000,243.500,84.480,22.820,1302.000,245.300,74.460,19.500,344.700,87.230,24.560,8.952,520.700,132.900,41.170,14.300,easy
1185.000,239.000,81.970,22.110,1293.000,243.500,74.240,19.450,345.400,86.730,24.290,8.869,517.200,131.300,41.000,14.140,easy
1179.000,238.100,82.350,22.070,1291.000,242.900,74.200,19.460,343.400,86.170,24.290,8.833,516.000,131.300,40.970,14.160,easy
1179.000,238.600,81.960,22.120,1291.000,242.300,74.180,19.430,345.400,86.820,24.360,8.879,518.300,131.600,40.920,14.150,easy
1177.000,237.400,82.250,22.010,1292.000,242.400,74.210,19.440,341.900,86.940,24.340,8.865,517.600,131.900,41.070,14.170,easy
1179.000,238.000,83.000,22.200,1296.000,243.500,74.470,19.480,343.000,87.220,24.410,8.879,517.900,132.500,41.120,14.280,easy
1183.000,238.700,83.120,22.350,1299.000,244.100,74.600,19.590,342.900,87.320,24.360,8.905,519.600,132.800,41.580,14.330,easy
1189.000,239.700,83.470,22.480,1294.000,245.500,74.540,19.650,347.600,87.080,24.440,8.939,522.400,133.500,41.670,14.430,easy
1195.000,240.800,83.790,22.730,1301.000,246.500,74.840,19.720,346.200,87.370,24.540,8.959,523.900,134.000,41.980,14.540,easy
1202.000,242.500,84.610,22.910,1304.000,245.200,75.250,19.800,346.300,87.660,24.580,9.013,525.100,134.500,42.170,14.650,easy
1208.000,244.700,85.130,23.030,1306.000,246.500,75.030,19.690,344.500,88.110,24.600,9.029,526.600,134.800,41.820,14.500,easy
1194.000,239.100,82.960,22.310,1300.000,243.500,74.410,19.520,344.500,87.480,24.490,8.941,522.200,133.200,41.410,14.270,easy
1180.000,238.000,82.400,22.110,1295.000,244.400,74.300,19.450,342.100,87.020,24.470,8.890,519.600,132.300,41.150,14.210,easy
1176.000,238.200,82.080,22.120,1297.000,243.700,74.580,19.530,344.700,87.700,24.410,8.902,518.300,132.700,41.370,14.240,easy
1179.000,237.300,82.020,22.070,1291.000,243.600,74.380,19.490,341.800,87.360,24.440,8.911,520.100,132.400,41.260,14.240,easy
1177.000,236.900,82.470,22.110,1294.000,243.700,74.280,19.470,344.300,87.270,24.460,8.923,520.000,133.100,41.380,14.340,easy
1181.000,238.100,83.430,22.350,1295.000,244.300,74.630,19.580,341.500,87.730,24.500,8.922,522.200,133.500,41.600,14.430,easy
1186.000,238.600,83.480,22.480,1300.000,245.200,74.740,19.660,340.700,87.680,24.550,8.961,524.900,134.200,41.900,14.510,easy
1192.000,239.200,84.110,22.630,1307.000,245.600,75.180,19.740,347.600,87.320,24.790,8.992,525.600,134.600,42.180,14.590,easy
1199.000,242.000,84.430,22.750,1306.000,246.700,75.500,19.770,347.000,87.690,24.670,9.018,526.100,135.400,42.280,14.760,easy
1205.000,242.800,84.660,23.110,1311.000,247.100,75.480,19.840,341.400,88.140,24.730,9.073,528.400,135.600,42.460,14.750,easy
1206.000,242.100,84.280,22.600,1307.000,244.800,74.820,19.620,348.600,88.270,24.780,9.031,524.400,133.900,41.810,14.430,easy
1183.000,236.900,82.400,22.240,1297.000,244.200,74.360,19.560,343.700,87.520,24.530,8.955,522.300,133.400,41.500,14.340,easy
1178.000,236.900,82.530,22.140,1297.000,243.600,74.320,19.570,341.300,86.940,24.600,8.966,521.000,132.900,41.390,14.360,easy
1179.000,237.300,83.040,22.120,1297.000,243.600,74.410,19.530,341.100,87.570,24.560,8.961,521.000,133.100,41.580,14.310,easy
1177.000,237.400,82.320,22.160,1296.000,243.800,74.750,19.630,345.600,87.300,24.470,8.969,521.400,133.000,41.650,14.450,easy
1180.000,237.100,83.110,22.280,1297.000,244.500,74.670,19.670,347.100,87.620,24.570,8.987,523.000,133.800,41.850,14.500,easy
1185.000,239.600,83.560,22.520,1302.000,245.300,74.770,19.640,345.900,87.710,24.610,8.994,523.200,134.000,42.030,14.580,easy
1189.000,239.100,84.210,22.560,1306.000,244.800,75.060,19.790,346.800,87.760,24.650,9.015,525.100,134.700,42.130,14.710,easy
1196.000,240.800,84.530,22.790,1304.000,246.000,75.290,19.850,345.700,87.950,24.690,9.076,526.600,135.300,42.360,14.750,easy
1202.000,242.800,84.990,22.950,1310.000,247.300,75.540,19.920,346.500,87.980,24.750,9.083,528.000,135.700,42.380,14.850,easy
1210.000,245.600,85.960,23.210,1312.000,247.600,75.440,19.810,346.100,88.300,24.850,9.115,528.200,135.600,42.400,14.720,easy
1196.000,240.400,83.970,22.470,1305.000,244.300,74.700,19.690,348.100,87.590,24.660,9.044,522.800,134.000,41.880,14.500,easy
1186.000,239.700,83.410,22.340,1304.000,245.500,74.800,19.690,344.800,87.820,24.540,8.992,521.800,133.600,41.810,14.510,easy
1185.000,238.600,83.550,22.590,1305.000,245.000,74.920,19.690,342.200,87.440,24.580,9.010,522.300,133.800,41.780,14.550,easy
1187.000,239.500,83.570,22.460,1307.000,244.600,74.980,19.700,344.500,87.700,24.590,8.999,522.600,133.600,41.770,14.520,easy
1188.000,240.000,83.550,22.550,1300.000,245.000,74.640,19.800,345.600,87.880,24.620,9.003,522.900,134.300,41.930,14.610,easy
1193.000,241.300,84.100,22.700,1311.000,245.500,75.170,19.830,344.400,87.890,24.690,9.024,522.500,134.200,42.070,14.660,easy
1198.000,242.200,84.980,22.790,1313.000,246.800,75.590,19.950,340.000,88.000,24.740,9.065,525.200,135.000,42.410,14.790,easy
1206.000,244.000,85.350,23.080,1319.000,248.000,75.510,19.960,341.900,88.070,24.730,9.089,527.900,135.500,42.420,14.870,easy
1212.000,244.900,86.030,23.260,1318.000,248.900,75.990,20.050,344.900,88.490,24.840,9.115,528.600,135.800,42.810,14.970,easy
1220.000,246.800,86.840,23.330,1317.000,248.400,75.610,19.950,345.900,88.360,24.880,9.149,527.900,135.800,42.440,14.780,easy
1204.000,241.100,84.370,22.790,1309.000,247.300,75.150,19.820,347.600,87.480,24.690,9.024,522.700,133.800,41.760,14.560,easy
1195.000,241.300,84.180,22.610,1308.000,246.600,75.270,19.810,346.000,87.170,24.580,9.012,519.000,133.800,41.580,14.480,easy
1192.000,239.600,84.120,22.690,1303.000,246.300,75.020,19.850,346.100,87.220,24.560,9.019,518.800,133.100,41.660,14.510,easy
1194.000,240.400,84.090,22.700,1309.000,246.100,74.970,19.820,341.800,87.430,24.470,8.999,520.200,133.000,41.580,14.520,easy
1195.000,241.200,84.120,22.840,1309.000,247.000,75.260,19.890,343.300,87.100,24.520,9.011,519.300,133.300,41.770,14.510,easy
1199.000,240.700,84.640,22.890,1314.000,246.800,75.500,19.960,345.000,87.760,24.560,9.042,520.500,133.600,41.850,14.630,easy
1205.000,243.800,84.870,23.070,1316.000,247.700,75.770,20.020,343.600,87.420,24.590,9.070,522.300,134.300,42.070,14.730,easy
1211.000,244.300,85.680,23.260,1322.000,248.500,75.920,20.110,342.400,87.680,24.690,9.077,523.200,134.500,42.070,14.880,easy
1218.000,245.100,86.300,23.380,1322.000,248.700,76.150,20.160,342.200,87.590,24.700,9.111,525.600,135.400,42.410,14.870,easy
1226.000,248.200,86.920,23.610,1324.000,250.300,76.460,20.240,344.700,87.850,24.760,9.139,527.400,135.600,42.670,15.000,easy
1233.000,247.400,87.280,23.650,1320.000,248.600,76.040,20.060,343.400,88.250,24.740,9.140,526.000,134.900,42.160,14.690,easy
1212.000,243.600,85.190,23.030,1315.000,247.600,75.410,20.000,341.800,87.420,24.590,9.042,518.300,133.200,41.610,14.520,easy
1206.000,241.800,84.470,23.010,1313.000,247.600,75.270,19.970,344.200,87.270,24.410,9.003,517.600,132.700,41.510,14.470,easy
1206.000,241.900,84.820,23.020,1314.000,246.600,75.430,20.020,342.000,87.320,24.450,8.989,516.900,132.900,41.410,14.510,easy
1208.000,241.400,84.870,23.080,1314.000,247.400,75.660,20.010,340.500,86.900,24.490,9.030,517.200,132.500,41.370,14.520,easy
1210.000,243.400,84.980,23.190,1319.000,247.600,75.750,20.070,340.100,87.010,24.440,9.031,517.000,132.600,41.450,14.560,easy
1214.000,244.900,85.550,23.350,1319.000,248.500,75.840,20.130,342.400,87.410,24.450,9.016,518.100,133.100,41.580,14.640,easy
1220.000,246.100,86.490,23.500,1323.000,250.000,76.080,20.150,341.500,87.300,24.520,9.075,518.700,133.600,41.840,14.700,easy
1226.000,247.000,86.570,23.630,1326.000,250.300,76.010,20.220,343.400,86.710,24.520,9.105,520.200,134.100,42.060,14.810,easy
1233.000,249.100,87.470,23.880,1328.000,251.100,76.240,20.420,342.900,87.060,24.620,9.103,522.000,134.400,42.040,14.920,easy
1240.000,250.900,88.120,24.040,1332.000,252.000,76.690,20.440,344.400,87.320,24.680,9.114,523.400,134.900,42.400,14.940,easy
1246.000,251.400,87.680,23.940,1331.000,250.600,76.160,20.160,341.500,87.940,24.690,9.101,521.400,133.700,41.840,14.670,easy
1226.000,244.800,86.220,23.480,1324.000,250.100,76.040,20.170,339.600,87.310,24.430,9.008,516.800,133.000,41.500,14.540,easy
1225.000,245.900,86.160,23.490,1323.000,249.400,75.880,20.160,337.300,86.790,24.390,9.020,516.400,132.100,41.290,14.580,easy
1228.000,245.600,86.070,23.570,1321.000,250.500,76.140,20.180,344.300,86.620,24.400,9.045,516.600,132.100,41.440,14.560,easy
1228.000,247.000,86.090,23.640,1329.000,249.700,76.030,20.240,340.400,86.850,24.370,9.016,516.300,132.400,41.380,14.580,easy
1230.000,247.900,86.690,23.760,1330.000,250.900,76.220,20.300,339.000,87.240,24.380,9.041,517.500,132.800,41.500,14.620,easy
1236.000,249.000,87.170,23.880,1327.000,251.500,76.490,20.310,342.900,86.540,24.480,9.069,517.100,132.700,41.670,14.710,easy
1243.000,250.200,87.910,24.080,1335.000,251.300,76.650,20.420,340.300,87.230,24.480,9.077,519.700,133.600,41.920,14.800,easy
1250.000,251.100,88.160,24.260,1337.000,252.400,76.800,20.440,341.800,87.270,24.530,9.091,522.000,133.900,42.090,14.940,easy
1256.000,253.800,89.120,24.430,1340.000,253.800,77.240,20.590,344.500,87.120,24.580,9.101,522.700,134.400,42.390,14.980,easy
1263.000,254.600,89.010,24.440,1338.000,251.700,76.480,20.340,345.300,87.570,24.710,9.125,521.600,133.700,41.870,14.680,easy
1243.000,247.700,87.050,23.900,1333.000,251.000,76.400,20.240,339.200,86.680,24.400,9.037,516.200,132.100,41.200,14.470,easy
1239.000,247.300,87.300,23.750,1325.000,249.800,76.290,20.220,337.800,86.500,24.320,8.965,513.800,131.400,41.100,14.480,easy
1239.000,249.500,87.010,23.850,1333.000,250.600,76.130,20.240,340.700,86.250,24.310,8.993,512.400,131.600,41.100,14.430,easy
1241.000,248.700,86.450,23.860,1330.000,251.000,76.160,20.240,336.100,86.360,24.240,8.983,511.700,131.200,41.260,14.440,easy
1242.000,249.100,86.560,23.970,1334.000,251.300,76.180,20.320,339.700,86.330,24.310,8.985,513.800,131.700,41.140,14.530,easy
1247.000,250.900,87.670,24.070,1333.000,251.400,76.340,20.390,336.200,86.350,24.350,9.015,513.700,131.800,41.420,14.570,easy
1253.000,251.500,87.850,24.320,1335.000,251.800,76.930,20.440,342.100,86.080,24.300,9.037,516.800,132.300,41.520,14.680,easy
1258.000,254.000,88.760,24.390,1341.000,252.600,76.880,20.480,338.100,86.320,24.440,9.047,518.200,132.900,41.770,14.750,easy
1265.000,253.900,89.080,24.590,1343.000,253.300,77.100,20.590,342.700,86.880,24.460,9.063,520.100,133.600,41.980,14.830,easy
1271.000,255.200,89.650,24.780,1346.000,253.800,77.370,20.610,343.600,86.720,24.540,9.092,520.500,133.800,42.320,14.930,easy
1277.000,257.100,89.820,24.570,1345.000,253.700,76.780,20.360,339.100,87.210,24.560,9.073,517.300,132.400,41.550,14.570,easy
1256.000,250.900,87.750,24.160,1341.000,251.700,76.530,20.350,338.900,86.310,24.350,8.961,510.800,131.200,41.060,14.410,easy
1252.000,250.300,87.370,24.020,1331.000,251.100,76.120,20.300,339.100,86.380,24.240,8.958,510.100,130.800,40.890,14.360,easy
1253.000,250.500,87.540,24.090,1334.000,251.700,76.460,20.340,338.000,86.460,24.230,8.935,508.700,130.700,40.970,14.390,easy
1254.000,251.400,87.840,24.120,1334.000,251.900,76.480,20.300,340.700,85.710,24.300,8.933,509.400,130.100,40.910,14.370,easy
1255.000,251.600,87.460,24.200,1335.000,251.000,76.440,20.360,339.300,85.640,24.260,8.962,509.900,130.600,41.010,14.410,easy
1260.000,252.200,88.210,24.390,1339.000,252.400,76.540,20.360,339.600,86.180,24.310,8.979,510.100,131.400,41.150,14.520,easy
1265.000,253.400,88.390,24.500,1340.000,251.900,76.930,20.510,343.300,86.210,24.330,9.013,510.900,131.900,41.450,14.560,easy
1270.000,254.900,88.780,24.610,1345.000,253.400,76.800,20.510,340.100,86.430,24.390,9.024,514.600,132.100,41.570,14.690,easy
1276.000,257.400,89.350,24.810,1342.000,253.400,76.960,20.580,340.300,86.540,24.420,9.041,516.000,132.400,41.840,14.740,easy
1282.000,258.400,90.100,24.900,1345.000,253.800,77.170,20.530,336.300,86.440,24.470,9.070,518.000,132.800,41.780,14.760,easy
1275.000,254.900,88.930,24.440,1338.000,251.900,76.540,20.340,342.400,86.640,24.360,9.000,510.800,130.800,40.990,14.430,easy
1264.000,254.000,88.340,24.250,1335.000,252.800,76.650,20.390,337.700,86.000,24.350,8.962,508.800,130.100,40.800,14.380,easy
1264.000,254.100,87.820,24.370,1339.000,252.500,76.720,20.390,334.700,86.080,24.270,8.946,509.000,130.300,40.930,14.370,easy
1266.000,253.700,88.230,24.320,1336.000,252.800,76.650,20.360,341.400,85.790,24.220,8.948,508.300,130.200,40.830,14.340,easy
1266.000,253.500,88.460,24.270,1340.000,251.600,76.700,20.380,337.300,85.750,24.280,8.961,508.000,130.600,40.870,14.380,easy
1270.000,255.000,88.520,24.510,1346.000,252.500,76.620,20.430,335.100,85.930,24.250,8.975,510.400,131.100,41.020,14.510,easy
1274.000,256.300,88.940,24.630,1345.000,253.500,76.860,20.540,338.100,86.400,24.400,8.984,512.200,131.300,41.260,14.530,easy
1280.000,258.000,89.610,24.760,1347.000,254.100,77.070,20.520,337.500,86.870,24.380,9.027,513.300,131.600,41.560,14.650,easy
1285.000,258.100,89.600,24.970,1349.000,254.200,77.390,20.620,344.100,86.370,24.410,9.037,514.000,132.500,41.820,14.780,easy
1290.000,259.400,90.250,25.160,1352.000,254.000,77.110,20.550,340.500,86.750,24.490,9.064,517.000,133.100,41.830,14.700,easy
1285.000,256.700,89.420,24.560,1341.000,252.500,76.410,20.380,342.600,86.280,24.410,8.996,511.700,131.000,41.070,14.340,easy
1272.000,255.200,88.690,24.320,1341.000,251.600,76.530,20.270,338.300,86.200,24.280,8.915,507.200,129.800,40.780,14.260,easy
1268.000,254.600,88.180,24.350,1342.000,252.000,76.480,20.310,338.300,85.680,24.170,8.941,505.600,129.500,40.720,14.300,easy
1270.000,254.300,88.330,24.290,1340.000,252.000,76.500,20.330,338.300,85.710,24.160,8.917,507.200,129.800,40.720,14.280,easy
1270.000,253.900,87.990,24.330,1337.000,252.000,76.440,20.290,334.900,86.240,24.220,8.937,507.500,130.100,40.670,14.350,easy
1271.000,253.300,88.590,24.410,1338.000,253.000,76.440,20.350,338.200,86.350,24.240,8.947,507.000,130.200,40.840,14.350,easy
1275.000,255.400,88.840,24.590,1339.000,252.900,76.920,20.390,341.500,85.890,24.320,8.994,508.500,130.700,41.020,14.440,easy
1280.000,257.300,89.190,24.630,1341.000,253.500,76.870,20.450,339.400,86.400,24.430,8.969,509.600,131.300,41.210,14.540,easy
1285.000,257.200,89.620,24.860,1342.000,252.900,77.030,20.460,341.800,86.580,24.420,9.019,513.400,132.100,41.490,14.640,easy
1290.000,258.900,90.270,25.010,1347.000,255.000,77.260,20.520,343.200,86.030,24.510,9.037,513.300,132.500,41.640,14.730,easy
1294.000,259.500,90.240,24.890,1342.000,252.800,76.740,20.330,342.000,87.010,24.500,9.043,512.200,131.400,41.160,14.400,easy
1275.000,255.600,88.390,24.290,1336.000,251.800,76.260,20.260,339.000,86.490,24.240,8.922,506.600,129.500,40.750,14.230,easy
1271.000,254.300,88.190,24.210,1336.000,251.400,76.110,20.260,336.500,85.860,24.200,8.905,504.400,129.100,40.550,14.200,easy
1268.000,253.900,88.010,24.270,1336.000,251.800,76.120,20.270,339.700,85.880,24.150,8.908,505.100,129.000,40.510,14.220,easy
1267.000,252.600,88.540,24.180,1338.000,251.100,76.140,20.200,336.400,86.090,24.170,8.875,504.800,129.500,40.520,14.220,easy
1268.000,254.100,88.040,24.270,1334.000,251.100,76.310,20.230,337.600,85.670,24.220,8.903,506.400,129.400,40.790,14.280,easy
1271.000,255.300,88.420,24.420,1334.000,251.800,76.380,20.300,338.000,86.050,24.220,8.912,507.800,130.100,40.890,14.340,easy
1277.000,255.500,89.060,24.490,1333.000,251.500,76.520,20.300,337.800,86.160,24.310,8.960,507.500,130.700,41.130,14.450,easy
1280.000,256.800,89.400,24.650,1339.000,252.500,76.770,20.350,339.900,86.240,24.380,8.997,511.000,131.000,41.350,14.520,easy
1285.000,258.500,89.500,24.720,1338.000,252.400,76.880,20.420,341.600,86.760,24.390,9.044,512.300,132.000,41.530,14.620,easy
1289.000,259.600,90.050,24.980,1342.000,253.100,76.770,20.450,340.500,86.470,24.440,9.029,514.000,132.400,41.710,14.650,easy
1289.000,258.700,89.650,24.640,1337.000,251.200,76.250,20.250,342.100,87.150,24.410,9.000,509.200,130.400,40.960,14.290,easy
1271.000,254.200,88.430,24.270,1335.000,251.100,76.240,20.180,340.400,86.000,24.300,8.922,505.100,129.800,40.660,14.210,easy
1268.000,253.300,87.580,24.250,1332.000,250.300,76.150,20.210,335.600,86.440,24.260,8.919,505.600,130.000,40.610,14.250,easy
1270.000,255.300,88.210,24.210,1331.000,249.600,76.200,20.160,340.900,86.150,24.210,8.928,505.400,129.300,40.670,14.250,easy
1267.000,253.300,88.340,24.230,1327.000,250.500,76.110,20.150,340.200,86.060,24.190,8.907,505.600,130.100,40.790,14.270,easy
1269.000,254.400,88.480,24.330,1330.000,250.100,76.030,20.190,337.700,86.080,24.340,8.960,506.300,130.500,40.810,14.370,easy
1274.000,254.900,88.780,24.450,1334.000,251.400,76.330,20.260,337.900,86.450,24.370,8.974,509.000,130.600,41.090,14.420,easy
1278.000,256.600,89.120,24.640,1333.000,252.500,76.290,20.300,339.800,86.300,24.380,9.005,511.300,131.000,41.360,14.520,easy
1283.000,258.000,89.420,24.740,1338.000,253.000,76.830,20.400,341.600,86.770,24.530,9.021,513.200,131.800,41.580,14.630,easy
1288.000,260.000,90.360,24.880,1339.000,252.400,77.040,20.300,341.100,86.890,24.540,9.042,515.800,132.200,41.760,14.690,easy
1286.000,258.400,89.640,24.590,1332.000,250.200,76.220,20.130,337.600,86.930,24.450,8.985,510.300,130.500,40.980,14.250,easy
1268.000,256.000,87.790,24.100,1326.000,250.000,76.080,20.060,341.700,86.800,24.270,8.911,507.300,129.900,40.740,14.180,easy
1263.000,253.000,87.760,24.000,1328.000,249.900,75.920,20.040,338.300,85.920,24.210,8.911,505.600,129.700,40.630,14.200,easy
1263.000,254.400,87.680,24.060,1332.000,249.900,76.050,20.030,337.900,86.160,24.250,8.881,505.500,129.500,40.590,14.160,easy
1261.000,254.500,87.590,24.050,1324.000,249.900,75.820,20.070,338.500,85.950,24.250,8.922,506.000,129.100,40.630,14.230,easy
1261.000,254.500,87.720,24.120,1331.000,250.200,75.810,20.070,334.900,86.330,24.250,8.927,506.900,130.300,40.940,14.300,easy
1265.000,253.100,88.450,24.270,1329.000,249.400,75.880,20.160,338.600,86.320,24.300,8.965,508.400,130.800,41.030,14.380,easy
1270.000,254.700,88.870,24.370,1332.000,250.700,76.210,20.140,344.700,86.210,24.390,8.951,509.000,131.000,41.370,14.450,easy
1275.000,257.000,89.110,24.560,1331.000,250.900,76.330,20.300,341.000,86.610,24.460,9.008,513.100,131.600,41.460,14.580,easy
1279.000,257.600,89.870,24.690,1333.000,251.200,76.420,20.300,342.200,86.940,24.490,9.045,514.500,132.400,41.720,14.660,easy
1285.000,258.600,90.100,24.750,1328.000,250.800,76.510,20.130,342.400,86.960,24.630,9.047,514.200,132.000,41.280,14.410,easy
1268.000,254.500,88.000,24.040,1325.000,248.900,75.570,20.000,338.300,86.440,24.340,8.925,506.700,129.700,40.770,14.210,easy
1257.000,251.500,87.430,23.900,1321.000,248.400,75.520,19.950,341.200,85.880,24.240,8.897,505.200,129.300,40.600,14.100,easy
1253.000,250.500,86.900,23.880,1319.000,248.200,75.330,19.940,340.400,86.000,24.260,8.903,505.400,129.200,40.500,14.160,easy
1252.000,251.200,87.030,23.880,1318.000,248.100,75.810,19.910,337.900,86.260,24.250,8.914,505.300,129.400,40.530,14.160,easy
1251.000,251.200,86.820,23.840,1319.000,248.000,75.560,19.940,342.500,86.180,24.180,8.924,505.800,129.500,40.790,14.210,easy
1254.000,252.600,87.350,23.980,1326.000,248.500,75.660,19.960,340.100,86.180,24.280,8.949,507.500,130.100,40.980,14.300,easy
1258.000,251.200,87.700,24.080,1320.000,249.000,75.680,20.010,340.900,86.560,24.390,8.964,508.500,130.800,41.180,14.390,easy
1262.000,254.100,88.320,24.230,1321.000,250.200,75.960,20.060,340.100,86.800,24.500,8.974,512.000,131.500,41.510,14.520,easy
1266.000,254.500,88.690,24.410,1322.000,249.900,76.090,20.110,343.100,86.860,24.490,9.006,514.200,131.900,41.610,14.560,easy
1272.000,255.700,89.270,24.510,1329.000,249.900,76.090,20.140,341.700,86.600,24.530,9.040,515.600,132.800,41.640,14.610,easy
1272.000,255.600,88.470,24.240,1324.000,248.500,75.650,19.930,342.600,86.890,24.480,8.998,511.900,131.200,41.180,14.250,easy
1252.000,251.100,86.770,23.740,1315.000,247.400,75.190,19.880,340.700,86.600,24.410,8.912,508.300,130.200,40.860,14.210,easy
1246.000,250.400,86.030,23.740,1318.000,247.200,75.220,19.890,340.400,86.000,24.280,8.918,507.600,130.600,40.780,14.210,easy
1247.000,250.200,86.450,23.790,1316.000,247.900,75.240,19.810,339.900,86.450,24.310,8.932,509.400,130.200,40.960,14.210,easy
1245.000,250.000,86.550,23.700,1317.000,246.500,75.160,19.920,339.200,86.480,24.340,8.930,508.700,130.000,40.940,14.240,easy
1246.000,250.300,86.680,23.770,1316.000,247.200,75.210,19.860,341.700,86.300,24.380,8.946,509.300,130.300,41.270,14.330,easy
1250.000,251.600,87.230,23.930,1314.000,247.800,75.480,19.930,339.500,86.350,24.410,8.985,512.200,131.400,41.460,14.440,easy
1255.000,253.200,87.480,24.080,1321.000,248.200,75.520,19.990,340.700,86.510,24.510,9.017,514.100,131.700,41.470,14.540,easy
1258.000,253.800,88.330,24.220,1323.000,249.100,75.660,20.040,341.400,87.170,24.550,9.026,515.500,132.500,41.830,14.620,easy
1264.000,254.300,89.020,24.410,1320.000,249.500,75.950,20.100,342.500,87.230,24.610,9.053,517.900,133.400,42.020,14.720,easy
1266.000,253.700,87.960,24.130,1316.000,248.000,75.130,19.860,340.300,86.890,24.630,9.031,514.000,131.400,41.360,14.340,easy
1243.000,250.200,86.340,23.580,1310.000,246.000,74.880,19.770,340.300,86.720,24.410,8.957,512.500,130.300,41.040,14.250,easy
1236.000,249.300,86.030,23.450,1307.000,245.300,74.610,19.770,340.000,86.510,24.350,8.945,510.100,130.600,41.060,14.200,easy
1235.000,247.900,85.580,23.580,1311.000,246.000,74.960,19.730,343.600,86.570,24.350,8.928,510.900,130.800,41.120,14.250,easy
1233.000,245.800,85.700,23.490,1309.000,246.100,74.910,19.730,340.500,86.920,24.390,8.933,512.400,130.800,41.250,14.240,easy
1233.000,247.600,85.950,23.500,1308.000,245.900,74.930,19.760,343.100,86.720,24.400,8.971,512.100,131.400,41.360,14.350,easy
1236.000,249.200,86.190,23.610,1307.000,246.000,74.960,19.810,341.100,87.010,24.500,8.979,515.100,131.900,41.630,14.440,easy
1241.000,249.000,86.540,23.680,1313.000,246.300,75.060,19.880,343.400,87.100,24.540,9.011,515.700,132.300,41.770,14.500,easy
1244.000,249.600,87.060,23.850,1312.000,247.500,75.200,19.940,344.500,86.970,24.580,9.040,517.600,133.100,41.900,14.700,easy
1251.000,251.300,87.470,24.080,1315.000,247.700,75.560,19.930,345.700,87.360,24.600,9.059,520.600,133.400,42.220,14.750,easy
1255.000,252.800,87.590,24.040,1310.000,246.400,75.070,19.780,344.300,87.230,24.620,9.065,522.100,132.800,41.780,14.490,easy
1234.000,247.300,85.650,23.320,1302.000,245.100,74.360,19.620,343.900,87.020,24.510,8.967,513.700,131.400,41.460,14.280,easy
1225.000,245.400,84.900,23.240,1303.000,244.500,74.220,19.580,339.000,86.540,24.510,8.931,514.300,131.000,41.250,14.260,easy
1221.000,244.400,84.700,23.250,1296.000,244.300,74.400,19.530,343.400,86.570,24.320,8.957,514.100,131.400,41.330,14.260,easy
1220.000,243.700,84.470,23.160,1299.000,244.700,74.310,19.570,341.700,86.820,24.420,8.946,513.700,131.300,41.330,14.300,easy
1218.000,244.100,84.670,23.200,1302.000,243.200,74.470,19.580,341.900,86.820,24.520,8.961,514.600,131.600,41.540,14.350,easy
1222.000,246.100,84.980,23.270,1300.000,244.500,74.500,19.600,339.000,87.040,24.550,8.978,515.400,132.200,41.650,14.440,easy
1225.000,246.300,85.500,23.490,1303.000,245.100,74.630,19.690,342.000,86.990,24.580,9.019,519.600,132.700,41.870,14.490,easy
1230.000,246.900,85.980,23.480,1301.000,244.600,74.610,19.720,341.600,87.330,24.610,9.013,519.900,133.300,42.160,14.630,easy
1235.000,247.700,86.420,23.650,1305.000,245.200,74.930,19.770,343.000,87.450,24.610,9.045,519.900,134.100,42.330,14.700,easy
1239.000,249.000,86.820,23.870,1308.000,246.300,75.050,19.820,343.900,87.540,24.740,9.057,523.200,134.600,42.590,14.780,easy
1241.000,248.500,86.720,23.570,1299.000,245.100,74.370,19.570,344.800,87.730,24.730,9.062,520.700,133.100,41.910,14.420,easy
1219.000,243.800,84.940,23.040,1300.000,243.400,73.930,19.500,342.000,86.900,24.500,8.969,518.000,132.900,41.710,14.360,easy
1214.000,243.100,84.180,23.040,1295.000,243.500,74.070,19.510,344.200,87.640,24.520,8.954,518.400,132.700,41.660,14.370,easy
1214.000,243.300,84.340,23.010,1294.000,242.700,74.020,19.500,342.100,87.520,24.530,8.981,519.000,132.800,41.760,14.420,easy
1211.000,242.900,84.160,23.040,1291.000,243.000,73.970,19.490,342.800,87.360,24.590,8.978,519.800,133.200,41.790,14.450,easy
1213.000,242.600,84.490,23.080,1297.000,242.900,74.140,19.510,347.000,87.060,24.570,9.003,520.500,133.400,41.980,14.520,easy
1216.000,243.700,84.760,23.260,1295.000,243.100,74.280,19.580,343.200,87.720,24.590,9.003,522.800,133.700,42.170,14.560,easy
1221.000,246.100,85.310,23.280,1297.000,243.100,74.320,19.600,343.500,87.370,24.650,9.037,523.200,134.300,42.410,14.670,easy
1224.000,245.700,85.450,23.480,1306.000,244.300,74.470,19.650,344.800,87.600,24.710,9.079,525.600,134.600,42.540,14.720,easy
