A-DC1,A-DC2,A-DC3,A-DC4,A-DC5,A-DC6,A-DC7,A-DC8,B-DC1,B-DC2,B-DC3,B-DC4,B-DC5,B-DC6,B-DC7,B-DC8,condition
1392.000,266.300,51.440,8.331,1240.000,150.100,24.890,3.449,194.100,33.940,6.388,1.585,362.500,99.030,21.270,5.657,baseline
1394.000,269.400,51.550,8.502,1236.000,150.800,24.830,3.489,194.100,34.030,6.380,1.592,363.500,99.760,21.310,5.704,baseline
1396.000,266.500,52.230,8.442,1240.000,150.600,24.910,3.457,194.000,34.130,6.412,1.600,366.400,100.400,21.430,5.736,baseline
1399.000,269.300,52.030,8.434,1236.000,151.700,24.970,3.477,195.200,34.440,6.481,1.610,367.500,100.800,21.550,5.792,baseline
1402.000,267.500,52.150,8.548,1237.000,150.700,24.980,3.474,198.000,34.320,6.440,1.617,369.400,101.400,21.700,5.856,baseline
1405.000,268.700,52.410,8.480,1239.000,150.700,24.850,3.472,197.800,34.600,6.489,1.614,368.300,101.000,21.480,5.660,baseline
1397.000,268.900,51.970,8.364,1234.000,150.100,24.900,3.441,194.300,34.290,6.408,1.577,361.400,98.760,21.150,5.563,baseline
1391.000,266.300,51.670,8.381,1231.000,149.400,24.990,3.483,194.400,33.760,6.374,1.582,360.800,98.450,21.030,5.543,baseline
1387.000,266.300,51.450,8.370,1234.000,150.100,24.850,3.437,194.300,33.970,6.393,1.578,360.200,98.410,21.070,5.547,baseline
1390.000,266.100,51.760,8.303,1233.000,150.800,24.690,3.439,194.200,34.240,6.397,1.575,360.800,98.010,21.080,5.550,baseline
1388.000,267.600,51.360,8.379,1235.000,150.000,24.650,3.454,195.700,33.880,6.381,1.584,360.300,98.270,21.050,5.572,baseline
1389.000,267.800,51.550,8.366,1234.000,150.100,24.770,3.439,197.100,34.070,6.420,1.583,361.800,98.870,21.150,5.602,baseline
1391.000,266.200,51.720,8.385,1234.000,150.000,24.770,3.489,194.700,33.610,6.434,1.591,362.100,99.290,21.200,5.630,baseline
1392.000,267.900,52.270,8.441,1236.000,150.400,24.830,3.450,195.100,34.000,6.421,1.598,362.900,99.530,21.290,5.674,baseline
1395.000,267.400,51.510,8.345,1240.000,150.200,24.710,3.435,193.700,34.010,6.452,1.603,364.400,99.940,21.380,5.712,baseline
1394.000,267.700,51.880,8.447,1236.000,149.800,24.870,3.450,196.100,34.180,6.446,1.604,364.500,100.400,21.490,5.767,baseline
1397.000,269.100,51.850,8.453,1239.000,150.200,24.820,3.437,196.100,34.240,6.486,1.616,367.000,100.800,21.700,5.822,baseline
1400.000,268.400,52.070,8.544,1240.000,150.000,24.620,3.457,195.500,34.210,6.441,1.617,367.100,100.400,21.480,5.702,baseline
1396.000,267.400,51.710,8.381,1232.000,149.000,24.750,3.412,194.800,33.700,6.444,1.584,360.900,98.780,21.070,5.570,baseline
1387.000,267.500,51.010,8.396,1230.000,149.400,24.740,3.408,192.700,33.990,6.394,1.578,359.500,98.380,21.010,5.568,baseline
1386.000,267.100,51.240,8.351,1233.000,148.700,24.730,3.408,192.500,33.820,6.396,1.581,359.700,98.270,21.020,5.564,baseline
1387.000,264.500,51.040,8.314,1232.000,149.700,24.720,3.416,192.900,33.570,6.381,1.581,358.000,98.170,20.930,5.526,baseline
1384.000,265.100,51.430,8.282,1231.000,148.700,24.590,3.422,192.700,33.920,6.378,1.577,359.200,98.120,21.030,5.575,baseline
1385.000,266.000,51.150,8.332,1234.000,149.200,24.650,3.444,195.300,34.020,6.392,1.588,360.000,98.590,21.070,5.614,baseline
1385.000,264.900,51.170,8.305,1232.000,149.400,24.540,3.427,193.400,33.970,6.406,1.599,361.600,99.000,21.260,5.665,baseline
1388.000,266.200,51.630,8.375,1237.000,150.300,24.740,3.394,196.700,34.640,6.510,1.631,368.300,101.000,21.630,5.776,baseline
1389.000,265.100,51.680,8.475,1238.000,150.500,24.810,3.442,199.000,35.080,6.603,1.649,374.000,102.000,21.720,5.843,baseline
1391.000,267.700,52.090,8.453,1234.000,150.400,24.700,3.469,201.400,35.070,6.599,1.653,375.100,102.400,21.900,5.888,baseline
1393.000,267.100,52.080,8.504,1236.000,149.900,24.940,3.415,201.900,35.280,6.627,1.665,378.200,103.100,21.980,5.876,baseline
1396.000,267.800,51.620,8.407,1238.000,149.900,24.860,3.386,202.600,35.130,6.656,1.654,375.200,101.500,21.440,5.691,baseline
1383.000,264.500,51.360,8.266,1230.000,148.500,24.580,3.363,201.100,35.270,6.633,1.647,372.600,101.500,21.750,5.741,baseline
1372.000,263.300,51.080,8.198,1225.000,148.500,24.620,3.365,209.300,36.400,6.854,1.686,374.400,103.500,22.150,5.810,baseline
1371.000,262.600,50.450,8.179,1230.000,148.400,24.530,3.385,211.400,36.780,6.884,1.679,374.800,102.500,21.790,5.694,baseline
1370.000,262.300,50.400,8.217,1230.000,148.300,24.490,3.355,207.400,36.180,6.787,1.671,372.900,101.500,21.740,5.705,baseline
1369.000,262.200,50.500,8.190,1226.000,148.900,24.400,3.404,207.600,36.340,6.777,1.678,371.500,101.100,21.600,5.689,baseline
1366.000,262.400,50.500,8.223,1225.000,147.700,24.670,3.394,208.600,35.950,6.777,1.667,367.900,101.000,21.710,5.730,baseline
1369.000,262.200,50.970,8.168,1225.000,149.200,24.570,3.363,208.500,36.270,6.802,1.681,374.200,102.000,21.800,5.745,baseline
1371.000,263.300,50.940,8.165,1223.000,148.200,24.430,3.396,210.200,35.860,6.826,1.680,375.000,102.300,21.700,5.778,baseline
1370.000,262.700,50.520,8.205,1219.000,148.800,24.630,3.371,207.800,35.840,6.767,1.670,372.900,101.900,21.790,5.767,baseline
1373.000,264.000,50.830,8.226,1227.000,148.600,24.550,3.401,205.800,35.840,6.769,1.681,373.500,102.400,21.920,5.825,baseline
1373.000,262.500,51.080,8.200,1222.000,149.300,24.410,3.377,208.600,36.040,6.768,1.674,371.200,101.400,21.450,5.650,baseline
1362.000,261.100,49.750,8.133,1221.000,148.300,24.390,3.336,208.300,35.710,6.723,1.656,368.400,100.300,21.320,5.618,baseline
1359.000,260.200,49.850,8.087,1222.000,148.800,24.340,3.355,204.100,35.620,6.684,1.654,367.700,100.000,21.200,5.597,baseline
1355.000,260.100,49.690,7.981,1219.000,147.900,24.380,3.379,205.400,35.620,6.629,1.657,367.400,99.660,21.180,5.561,baseline
1352.000,259.200,49.960,8.001,1218.000,148.400,24.400,3.395,202.000,35.530,6.673,1.652,366.000,99.420,21.090,5.577,baseline
1351.000,257.900,49.740,8.010,1217.000,147.900,24.550,3.364,204.200,35.390,6.652,1.655,366.400,99.290,21.180,5.577,baseline
1353.000,259.600,49.860,8.018,1215.000,147.100,24.550,3.349,202.900,35.140,6.665,1.654,366.100,99.400,21.170,5.605,baseline
1353.000,259.100,50.080,8.007,1222.000,148.200,24.460,3.370,203.100,35.380,6.678,1.654,366.200,99.440,21.200,5.615,baseline
1353.000,259.100,50.140,8.050,1223.000,148.400,24.350,3.360,201.700,35.280,6.649,1.644,366.000,99.880,21.220,5.611,baseline
1354.000,258.600,50.260,8.079,1216.000,148.900,24.370,3.367,201.500,35.480,6.651,1.660,366.100,99.670,21.270,5.660,baseline
1357.000,261.700,50.110,8.050,1218.000,148.700,24.350,3.401,200.200,35.200,6.678,1.652,367.300,100.000,21.420,5.690,baseline
1359.000,260.200,49.780,8.169,1215.000,149.100,24.400,3.374,202.100,35.260,6.660,1.650,367.300,100.200,21.280,5.661,baseline
1358.000,258.400,50.200,8.051,1215.000,148.200,24.230,3.342,200.500,34.980,6.611,1.638,362.100,98.250,20.930,5.516,baseline
1350.000,257.300,49.630,7.946,1216.000,148.300,24.370,3.350,199.900,34.940,6.542,1.617,360.800,97.800,20.760,5.470,baseline
1347.000,256.800,49.650,7.943,1216.000,147.900,24.290,3.380,198.800,34.930,6.562,1.626,357.900,97.190,20.730,5.466,baseline
1347.000,259.200,49.310,7.923,1218.000,147.400,24.450,3.364,197.800,34.520,6.545,1.626,357.600,96.980,20.630,5.447,baseline
1344.000,257.900,49.610,7.938,1219.000,147.500,24.340,3.399,200.800,34.300,6.524,1.612,357.800,97.150,20.630,5.453,baseline
1346.000,259.000,49.510,7.971,1218.000,148.000,24.420,3.388,200.400,34.570,6.546,1.611,357.400,97.340,20.720,5.500,baseline
1349.000,257.900,49.520,7.961,1215.000,148.900,24.450,3.400,198.600,34.740,6.532,1.622,358.500,97.500,20.730,5.502,baseline
1350.000,257.000,50.000,7.999,1221.000,147.900,24.490,3.406,198.400,34.830,6.504,1.621,358.600,97.650,20.800,5.535,baseline
1350.000,259.600,49.670,8.036,1217.000,148.400,24.500,3.382,198.100,34.780,6.491,1.620,359.100,97.770,20.880,5.560,baseline
1352.000,257.500,49.860,8.130,1219.000,149.600,24.510,3.416,198.500,34.390,6.534,1.621,359.500,98.270,20.870,5.583,baseline
1356.000,260.400,49.940,8.109,1226.000,149.300,24.620,3.396,198.400,34.690,6.502,1.633,360.300,98.780,21.070,5.620,baseline
1358.000,260.200,50.380,8.153,1228.000,149.400,24.720,3.400,197.000,34.660,6.579,1.631,362.000,99.140,21.140,5.648,baseline
1361.000,259.400,50.100,8.138,1225.000,149.200,24.490,3.432,196.400,34.820,6.549,1.626,359.800,97.710,20.850,5.509,baseline
1354.000,260.300,49.900,7.934,1226.000,148.800,24.620,3.400,196.400,34.340,6.457,1.606,355.000,96.960,20.530,5.462,baseline
1352.000,259.300,50.190,8.007,1219.000,148.600,24.520,3.372,195.800,34.180,6.453,1.603,354.700,96.380,20.590,5.465,baseline
1352.000,260.900,49.620,7.953,1220.000,149.400,24.410,3.383,197.600,34.400,6.474,1.604,354.400,96.240,20.560,5.444,baseline
1348.000,260.200,49.660,8.005,1222.000,149.200,24.560,3.368,195.600,33.990,6.459,1.590,354.600,96.280,20.540,5.445,baseline
1350.000,258.900,49.850,7.934,1222.000,148.700,24.610,3.386,196.600,34.380,6.461,1.591,354.500,96.370,20.550,5.474,baseline
1351.000,260.000,50.030,8.064,1227.000,149.400,24.560,3.405,194.300,34.170,6.442,1.601,354.200,96.490,20.620,5.479,baseline
1355.000,258.500,50.150,8.105,1228.000,150.100,24.520,3.387,196.200,34.210,6.460,1.600,354.900,96.750,20.680,5.527,baseline
1358.000,259.800,50.090,8.078,1230.000,149.900,24.600,3.421,195.100,34.280,6.435,1.601,356.200,96.990,20.720,5.503,baseline
1355.000,257.600,50.430,8.070,1223.000,149.600,24.770,3.416,196.400,34.010,6.424,1.603,356.200,97.020,20.790,5.540,baseline
1358.000,262.600,50.190,8.120,1221.000,149.700,24.790,3.418,195.900,34.300,6.451,1.618,357.400,97.510,20.870,5.587,baseline
1363.000,262.900,50.410,8.211,1228.000,150.000,24.850,3.422,196.400,34.340,6.462,1.604,357.200,97.800,20.800,5.526,baseline
1359.000,260.900,50.080,8.079,1234.000,150.400,24.650,3.433,197.700,34.450,6.497,1.623,358.000,97.390,20.690,5.499,baseline
1358.000,260.600,49.800,8.102,1229.000,149.500,24.730,3.396,199.100,34.700,6.568,1.671,373.600,102.300,22.110,5.954,baseline
1361.000,261.300,50.450,8.116,1231.000,150.200,24.740,3.395,227.700,38.490,7.218,1.793,392.200,105.800,22.660,6.019,baseline
1360.000,259.900,50.190,8.072,1230.000,150.100,24.840,3.427,230.400,38.570,7.154,1.774,388.200,104.800,22.260,5.957,baseline
1362.000,262.400,50.350,8.039,1236.000,150.200,24.670,3.398,222.600,38.020,7.033,1.766,388.600,104.500,22.330,5.946,baseline
1362.000,261.700,50.290,8.105,1229.000,150.500,24.790,3.419,224.000,37.930,7.023,1.761,388.600,104.900,22.420,5.983,baseline
1363.000,261.600,50.760,8.137,1234.000,150.200,24.690,3.417,221.800,37.870,7.039,1.770,389.100,104.700,22.310,5.964,baseline
1365.000,260.500,50.580,8.147,1232.000,150.700,24.870,3.411,219.400,37.400,7.004,1.759,387.900,104.600,22.270,5.973,baseline
1367.000,262.300,50.310,8.176,1234.000,150.500,24.680,3.414,219.700,37.090,6.988,1.745,388.000,104.400,22.220,5.962,baseline
1369.000,263.900,50.840,8.198,1236.000,150.500,24.700,3.444,215.000,37.160,6.931,1.735,386.900,104.700,22.260,5.983,baseline
1371.000,263.500,50.860,8.271,1233.000,150.500,24.880,3.423,213.900,36.750,6.891,1.719,383.500,102.800,21.730,5.736,baseline
1364.000,262.700,50.130,8.096,1233.000,150.100,24.660,3.402,208.500,35.660,6.718,1.670,372.100,100.300,21.300,5.649,baseline
1361.000,260.900,50.450,7.999,1235.000,149.600,24.750,3.444,207.500,35.700,6.674,1.671,370.200,99.700,21.210,5.616,baseline
1360.000,261.300,50.520,8.053,1234.000,150.200,24.660,3.389,205.800,35.550,6.649,1.655,367.800,99.140,21.050,5.580,baseline
1358.000,262.200,50.110,8.085,1227.000,149.300,24.560,3.382,203.600,35.220,6.614,1.636,364.800,98.630,20.880,5.536,baseline
1359.000,261.200,50.120,8.073,1231.000,149.000,24.470,3.400,202.000,34.830,6.571,1.616,358.700,97.270,20.630,5.459,baseline
1358.000,263.000,50.570,8.040,1229.000,149.700,24.660,3.388,196.200,34.390,6.477,1.596,354.000,96.540,20.610,5.435,baseline
1360.000,262.600,50.210,8.020,1233.000,149.900,24.440,3.412,198.000,34.150,6.492,1.601,353.500,96.970,20.700,5.445,baseline
1361.000,261.500,50.360,8.072,1234.000,149.400,24.660,3.375,201.500,34.670,6.542,1.626,355.400,98.270,21.120,5.620,baseline
1362.000,259.300,50.280,8.083,1228.000,149.800,24.540,3.383,212.600,36.840,6.975,1.728,372.100,103.300,22.300,5.885,baseline
1363.000,261.700,50.590,8.152,1230.000,150.500,24.520,3.437,223.700,38.790,7.237,1.781,381.400,105.400,22.770,5.983,baseline
1367.000,264.700,50.380,8.050,1229.000,149.300,24.660,3.331,227.000,38.940,7.348,1.789,382.200,105.500,22.720,5.890,baseline
1359.000,261.400,49.600,8.003,1228.000,149.400,24.560,3.359,226.600,39.340,7.332,1.787,380.600,105.000,22.700,5.881,baseline
1355.000,261.400,49.770,8.079,1228.000,149.800,24.480,3.363,228.000,39.320,7.339,1.783,376.000,102.700,22.220,5.757,baseline
1354.000,260.600,49.680,7.820,1230.000,148.500,24.440,3.343,231.600,39.560,7.296,1.782,374.100,102.200,22.190,5.780,baseline
1353.000,257.900,50.070,7.979,1228.000,148.800,24.410,3.360,239.200,39.940,7.463,1.819,380.100,104.000,22.670,5.941,baseline
1354.000,261.200,49.800,7.972,1224.000,148.700,24.290,3.362,241.500,40.880,7.630,1.876,391.800,107.200,23.290,6.082,baseline
1356.000,259.600,50.030,7.980,1224.000,148.800,24.370,3.339,239.900,40.950,7.663,1.858,392.600,107.400,23.130,6.020,baseline
1359.000,259.900,49.770,8.033,1228.000,149.200,24.560,3.340,232.300,40.280,7.542,1.836,386.900,106.200,22.760,5.943,baseline
1360.000,259.700,49.730,8.044,1230.000,149.000,24.700,3.357,226.400,39.190,7.350,1.801,382.100,104.700,22.380,5.896,baseline
1363.000,262.000,50.130,8.076,1231.000,149.800,24.720,3.346,223.500,39.100,7.275,1.789,380.800,104.300,22.400,5.898,baseline
1365.000,261.600,50.720,8.186,1234.000,149.700,24.690,3.368,223.900,38.450,7.253,1.787,380.200,104.400,22.420,5.924,baseline
1369.000,264.800,50.230,8.219,1240.000,149.800,24.810,3.417,221.400,38.390,7.272,1.787,379.900,104.700,22.360,5.892,baseline
1369.000,263.600,50.470,8.042,1230.000,150.100,24.630,3.391,218.300,38.230,7.163,1.755,375.400,102.500,21.840,5.744,baseline
1362.000,263.200,49.940,7.972,1228.000,149.800,24.550,3.340,218.300,37.510,7.069,1.740,372.100,101.500,21.610,5.670,baseline
1359.000,261.500,49.750,8.028,1238.000,148.900,24.410,3.373,215.800,37.230,7.013,1.724,369.600,100.200,21.480,5.651,baseline
1359.000,259.500,49.710,7.955,1231.000,148.400,24.260,3.362,213.600,36.950,6.997,1.715,366.800,99.940,21.300,5.634,baseline
1359.000,261.900,50.040,7.934,1238.000,149.200,24.620,3.359,213.700,37.020,6.931,1.712,365.400,99.650,21.230,5.622,baseline
1359.000,261.900,50.130,8.012,1236.000,149.000,24.460,3.336,211.600,36.810,6.919,1.698,366.000,99.630,21.250,5.611,baseline
1361.000,260.300,49.970,7.981,1221.000,149.100,24.450,3.376,210.600,36.830,6.901,1.689,363.800,99.370,21.110,5.586,baseline
1363.000,259.200,50.060,8.048,1235.000,148.700,24.520,3.341,210.400,36.240,6.856,1.688,357.900,98.060,20.930,5.553,baseline
1364.000,260.600,49.970,8.058,1230.000,149.600,24.500,3.356,210.000,36.080,6.804,1.674,354.100,97.660,21.040,5.562,baseline
1365.000,260.400,50.080,8.056,1231.000,149.800,24.470,3.347,210.800,36.510,6.838,1.680,354.700,97.900,21.150,5.620,baseline
1369.000,262.500,50.350,8.096,1235.000,149.700,24.700,3.363,214.300,37.020,6.880,1.707,357.300,98.810,21.270,5.629,baseline
1370.000,261.200,50.480,8.043,1228.000,149.400,24.550,3.353,214.800,36.960,6.936,1.696,356.300,98.170,21.090,5.515,baseline
1362.000,262.300,49.980,7.999,1237.000,149.100,24.310,3.353,214.400,36.930,6.895,1.704,355.500,97.780,21.120,5.525,baseline
1361.000,260.500,49.940,7.939,1227.000,148.300,24.290,3.344,214.000,37.110,6.930,1.706,355.900,98.180,21.190,5.541,baseline
1357.000,259.400,49.980,7.988,1226.000,148.300,24.400,3.328,216.700,37.370,7.032,1.709,357.300,98.640,21.260,5.564,baseline
1353.000,260.600,50.170,7.967,1222.000,149.200,24.350,3.339,214.300,37.600,7.042,1.726,360.200,99.330,21.520,5.667,baseline
1358.000,260.200,49.830,7.994,1231.000,149.100,24.380,3.335,217.600,38.100,7.142,1.744,363.000,100.600,21.740,5.699,baseline
1361.000,262.300,50.510,7.971,1228.000,149.600,24.380,3.360,218.900,38.180,7.174,1.765,365.600,100.800,21.760,5.747,baseline
1365.000,261.400,50.220,8.048,1239.000,149.200,24.480,3.375,222.100,38.240,7.244,1.773,367.700,101.600,21.860,5.783,baseline
1368.000,261.200,50.100,8.122,1229.000,149.900,24.550,3.361,220.600,38.460,7.246,1.776,367.700,101.600,21.870,5.759,baseline
1373.000,264.000,50.940,8.117,1242.000,149.800,24.610,3.368,218.900,38.300,7.173,1.758,367.000,101.100,21.890,5.771,baseline
1377.000,264.600,50.700,8.137,1237.000,149.500,24.770,3.382,216.800,38.030,7.131,1.757,363.800,100.000,21.400,5.648,baseline
1369.000,261.600,50.440,8.006,1238.000,150.400,24.650,3.354,216.500,37.590,7.046,1.727,360.700,98.510,21.260,5.593,baseline
1367.000,264.200,49.720,7.956,1238.000,150.200,24.470,3.365,214.800,37.610,7.069,1.733,361.100,99.090,21.340,5.584,baseline
1368.000,262.800,50.180,8.029,1241.000,149.600,24.530,3.339,217.000,37.440,7.084,1.726,360.400,98.550,21.090,5.564,baseline
1368.000,262.300,50.400,8.060,1232.000,149.400,24.590,3.381,214.000,37.270,6.984,1.729,359.900,98.320,20.950,5.584,baseline
1365.000,262.400,50.260,8.097,1232.000,149.800,24.550,3.387,211.900,36.960,6.968,1.716,360.200,98.120,21.050,5.578,baseline
1368.000,260.600,50.550,8.012,1242.000,150.300,24.590,3.381,211.200,36.780,6.933,1.722,360.200,98.020,21.040,5.531,baseline
1369.000,261.200,50.200,8.096,1231.000,150.000,24.590,3.367,211.200,36.530,6.888,1.702,358.200,97.720,20.810,5.543,baseline
1371.000,261.600,50.440,8.069,1233.000,149.600,24.600,3.374,209.400,36.240,6.853,1.685,354.100,96.470,20.710,5.515,baseline
1373.000,262.100,49.940,8.078,1239.000,149.900,24.550,3.354,206.600,35.780,6.769,1.668,349.300,95.810,20.620,5.484,baseline
1376.000,264.700,50.870,8.162,1231.000,149.900,24.710,3.384,203.600,35.290,6.673,1.664,344.700,94.810,20.230,5.384,baseline
1371.000,261.400,50.060,8.036,1233.000,150.400,24.550,3.334,199.600,34.930,6.554,1.623,338.700,92.550,19.790,5.244,baseline
1366.000,262.000,49.960,7.995,1241.000,149.600,24.740,3.356,198.000,34.570,6.517,1.599,335.500,91.690,19.680,5.201,baseline
1365.000,263.800,49.890,8.008,1233.000,149.700,24.480,3.361,197.200,34.240,6.501,1.597,333.300,91.300,19.570,5.179,baseline
1366.000,262.400,50.100,8.091,1238.000,149.500,24.460,3.347,196.100,34.150,6.460,1.606,332.500,90.790,19.480,5.155,baseline
1365.000,261.700,50.220,7.999,1236.000,149.300,24.850,3.336,197.300,34.100,6.440,1.587,331.800,90.670,19.450,5.157,baseline
1367.000,260.900,50.130,8.048,1239.000,149.600,24.400,3.393,196.100,34.020,6.446,1.595,331.400,90.570,19.470,5.156,baseline
1368.000,262.700,50.360,8.053,1237.000,149.300,24.670,3.368,194.300,34.100,6.461,1.593,330.900,90.670,19.470,5.174,baseline
1371.000,261.900,50.190,8.134,1236.000,150.000,24.520,3.364,196.200,33.870,6.424,1.599,330.800,90.590,19.480,5.182,baseline
1372.000,263.300,50.690,8.139,1235.000,149.800,24.520,3.385,194.600,33.740,6.422,1.592,331.100,90.700,19.460,5.217,baseline
1374.000,261.800,50.660,8.129,1234.000,150.200,24.590,3.387,194.400,33.730,6.442,1.594,330.800,90.490,19.490,5.182,baseline
1375.000,263.200,50.340,8.129,1235.000,150.100,24.510,3.342,191.900,33.680,6.357,1.579,326.300,88.810,19.080,5.037,baseline
1367.000,261.000,49.850,8.024,1228.000,149.600,24.520,3.375,192.600,33.550,6.273,1.564,323.700,88.370,18.920,5.008,baseline
1366.000,260.700,50.310,8.069,1237.000,148.800,24.500,3.351,191.000,33.290,6.245,1.555,322.200,87.860,18.740,4.979,baseline
1368.000,261.500,50.120,8.027,1232.000,148.800,24.500,3.369,188.600,33.270,6.226,1.550,319.600,87.330,18.670,4.960,baseline
1369.000,260.900,50.140,8.110,1234.000,149.600,24.550,3.348,189.300,32.930,6.271,1.550,319.600,86.960,18.690,4.959,baseline
1369.000,260.800,50.420,8.038,1237.000,149.400,24.500,3.352,188.200,33.070,6.237,1.549,318.400,87.140,18.780,4.967,baseline
1371.000,263.700,50.230,8.081,1235.000,150.400,24.650,3.363,188.300,32.900,6.273,1.555,318.300,87.390,18.740,4.979,baseline
1372.000,262.900,50.580,8.110,1235.000,148.500,24.600,3.392,187.000,32.870,6.251,1.548,320.200,87.510,18.710,5.011,baseline
1375.000,262.400,50.730,8.085,1238.000,150.000,24.650,3.393,189.700,33.120,6.240,1.557,319.300,87.750,18.840,5.047,baseline
1378.000,264.400,50.920,8.146,1235.000,150.200,24.690,3.414,189.300,32.910,6.270,1.567,320.800,88.190,18.960,5.070,baseline
1381.000,264.600,51.110,8.208,1240.000,150.300,24.820,3.377,189.100,33.120,6.329,1.574,323.200,88.710,19.120,5.149,baseline
1385.000,266.000,50.900,8.232,1244.000,149.800,24.790,3.419,192.100,33.430,6.337,1.584,325.500,89.580,19.230,5.182,baseline
1387.000,266.000,51.350,8.321,1238.000,151.200,25.020,3.402,190.500,33.470,6.357,1.589,327.000,89.930,19.400,5.264,baseline
1391.000,267.700,51.400,8.331,1244.000,150.600,24.930,3.386,189.200,33.490,6.411,1.588,325.800,89.280,19.200,5.086,baseline
1384.000,266.200,50.860,8.207,1244.000,150.400,24.660,3.377,192.300,33.540,6.359,1.565,320.900,87.870,18.790,4.999,baseline
1380.000,265.000,50.870,8.169,1244.000,150.700,24.770,3.387,190.300,33.310,6.326,1.559,320.200,87.310,18.700,4.965,baseline
1380.000,265.600,50.610,8.151,1241.000,150.200,24.810,3.385,190.900,33.380,6.298,1.566,318.400,86.910,18.630,4.974,baseline
1379.000,265.100,50.650,8.150,1241.000,150.600,24.750,3.389,189.800,33.140,6.314,1.563,317.700,86.910,18.590,4.930,baseline
1381.000,266.300,50.910,8.183,1245.000,150.800,24.670,3.395,189.500,33.320,6.340,1.566,317.400,86.960,18.660,4.962,baseline
1383.000,265.000,50.830,8.193,1243.000,150.300,24.700,3.407,189.600,33.460,6.321,1.562,317.800,87.000,18.730,4.963,baseline
1385.000,264.000,51.010,8.200,1244.000,151.600,24.690,3.391,191.700,33.290,6.335,1.570,317.700,87.300,18.830,5.008,baseline
1387.000,264.800,51.390,8.265,1241.000,151.000,24.830,3.404,193.600,33.460,6.381,1.578,318.500,87.790,18.920,5.050,baseline
1390.000,266.600,51.090,8.258,1246.000,150.800,24.860,3.349,192.100,33.690,6.382,1.585,319.800,88.280,18.950,5.085,baseline
1391.000,266.700,51.380,8.297,1245.000,150.300,24.910,3.395,193.500,33.830,6.429,1.599,321.800,88.370,19.060,5.139,baseline
1393.000,268.000,51.110,8.358,1247.000,151.300,24.850,3.396,195.100,34.140,6.447,1.610,324.200,89.200,19.210,5.192,baseline
1396.000,267.900,51.700,8.372,1245.000,150.500,25.000,3.422,196.300,34.280,6.516,1.615,323.700,89.010,19.070,5.071,baseline
1391.000,266.800,51.220,8.349,1246.000,150.500,24.830,3.400,195.900,34.170,6.463,1.588,319.100,87.590,18.760,4.996,baseline
1386.000,266.600,51.350,8.266,1245.000,150.200,24.910,3.420,193.700,33.980,6.454,1.580,318.300,87.330,18.730,4.969,baseline
1387.000,265.500,51.200,8.216,1245.000,150.500,24.770,3.397,194.300,34.130,6.440,1.598,318.400,87.350,18.750,4.976,baseline
1388.000,266.800,50.530,8.298,1242.000,150.500,24.860,3.401,193.400,34.350,6.439,1.585,317.100,86.820,18.660,4.983,baseline
1388.000,267.600,51.560,8.217,1243.000,151.400,24.710,3.437,194.900,34.070,6.450,1.597,316.900,87.120,18.700,5.000,baseline
1389.000,266.000,51.510,8.295,1240.000,150.100,24.730,3.410,193.500,34.300,6.476,1.604,318.400,87.450,18.810,5.008,baseline
1390.000,266.400,51.290,8.303,1243.000,150.800,24.810,3.434,196.300,34.480,6.486,1.608,318.900,87.430,18.840,5.047,baseline
1394.000,264.400,51.630,8.375,1243.000,150.500,24.810,3.399,194.000,34.350,6.508,1.624,320.100,87.720,18.980,5.069,baseline
1395.000,267.700,51.520,8.373,1242.000,149.800,24.850,3.434,195.000,34.410,6.556,1.619,319.900,88.380,19.040,5.132,baseline
1398.000,266.900,51.710,8.412,1251.000,151.100,25.110,3.436,195.600,34.610,6.571,1.628,322.100,88.940,19.120,5.154,baseline
1402.000,270.600,51.790,8.422,1250.000,150.900,25.040,3.399,198.900,35.080,6.602,1.649,324.000,89.130,19.250,5.229,baseline
1403.000,271.400,52.190,8.466,1255.000,151.500,24.710,3.426,199.000,35.140,6.587,1.635,322.500,88.850,19.030,5.074,baseline
1396.000,270.000,51.440,8.296,1250.000,151.400,24.700,3.421,196.700,34.550,6.535,1.615,318.400,87.590,18.800,4.995,baseline
1391.000,267.500,51.250,8.281,1244.000,151.000,24.770,3.424,197.700,34.480,6.530,1.612,317.900,86.990,18.730,4.967,baseline
1391.000,266.400,51.740,8.266,1245.000,151.100,24.940,3.402,198.400,34.690,6.566,1.616,318.100,87.580,18.680,4.974,baseline
1388.000,266.000,50.980,8.277,1242.000,150.600,24.850,3.394,196.800,34.690,6.560,1.621,317.300,87.100,18.650,4.970,baseline
1390.000,265.600,51.270,8.185,1240.000,150.400,24.820,3.335,197.300,34.730,6.576,1.623,318.000,87.420,18.750,5.003,baseline
1392.000,265.100,51.520,8.331,1250.000,150.900,24.750,3.410,196.700,34.730,6.615,1.636,318.400,87.710,18.800,5.024,baseline
1392.000,267.000,51.220,8.280,1241.000,150.200,25.020,3.436,197.500,35.080,6.636,1.638,319.400,88.050,18.910,5.064,baseline
1393.000,268.500,51.610,8.327,1242.000,150.300,25.020,3.405,199.400,35.190,6.677,1.644,321.600,88.500,19.000,5.075,baseline
1394.000,268.400,51.350,8.398,1243.000,150.000,24.910,3.406,198.400,34.980,6.671,1.660,323.500,88.680,19.120,5.129,baseline
1398.000,270.000,51.560,8.423,1247.000,151.500,24.920,3.403,199.400,35.270,6.717,1.669,323.400,89.540,19.270,5.181,baseline
1399.000,270.000,51.940,8.398,1245.000,152.000,24.910,3.392,201.200,35.380,6.773,1.664,325.600,89.810,19.300,5.223,baseline
1402.000,269.700,52.210,8.450,1251.000,150.500,24.960,3.427,202.300,35.440,6.731,1.672,323.800,89.020,19.050,5.059,baseline
1392.000,267.900,51.300,8.257,1240.000,150.800,24.870,3.417,200.200,35.550,6.700,1.648,320.200,88.090,18.940,5.014,baseline
1389.000,265.300,51.320,8.172,1242.000,150.600,24.660,3.386,199.700,35.250,6.677,1.649,319.700,88.070,18.850,4.995,baseline
1388.000,264.900,51.260,8.176,1247.000,150.900,24.600,3.397,200.600,35.500,6.714,1.644,320.000,87.990,18.790,5.003,baseline
1386.000,264.800,51.150,8.220,1240.000,150.000,24.680,3.384,200.700,35.440,6.686,1.655,319.900,87.940,18.800,5.013,baseline
1386.000,266.400,51.170,8.261,1241.000,151.000,24.810,3.379,200.400,35.330,6.736,1.657,321.700,88.120,18.940,5.039,baseline
1389.000,264.400,51.620,8.235,1237.000,150.900,24.870,3.389,203.000,35.440,6.775,1.675,321.900,88.420,19.020,5.081,baseline
1389.000,265.200,51.260,8.299,1236.000,151.100,24.910,3.388,201.200,35.450,6.782,1.681,322.500,89.160,19.060,5.091,baseline
1391.000,266.700,51.290,8.281,1244.000,150.900,24.930,3.384,202.100,35.840,6.811,1.685,323.700,89.490,19.230,5.145,baseline
1393.000,267.000,51.710,8.328,1243.000,150.600,24.850,3.427,203.100,36.150,6.826,1.693,325.000,89.780,19.240,5.187,baseline
1394.000,266.800,51.400,8.426,1242.000,150.300,24.740,3.417,205.900,36.180,6.879,1.711,328.000,90.230,19.470,5.221,baseline
1397.000,268.500,52.060,8.441,1245.000,152.100,24.920,3.408,206.700,36.240,6.904,1.712,329.200,91.040,19.610,5.307,baseline
1399.000,268.700,51.700,8.305,1246.000,151.000,25.060,3.392,204.800,36.590,6.902,1.707,328.200,90.260,19.390,5.132,baseline
1390.000,266.200,51.330,8.198,1245.000,149.600,24.710,3.409,206.100,36.230,6.861,1.688,324.800,89.250,19.150,5.097,baseline
1388.000,265.100,51.230,8.197,1243.000,151.100,24.720,3.414,205.600,36.220,6.866,1.682,324.400,89.400,19.210,5.073,baseline
1386.000,265.100,51.150,8.222,1247.000,150.100,24.630,3.365,203.700,36.490,6.859,1.689,325.400,89.260,19.120,5.083,baseline
1385.000,264.500,51.260,8.176,1238.000,150.200,24.640,3.375,203.000,36.110,6.856,1.695,325.600,89.240,19.150,5.074,baseline
1383.000,263.400,51.140,8.159,1235.000,150.500,24.850,3.383,205.300,36.420,6.878,1.700,326.200,89.980,19.320,5.120,baseline
1386.000,266.600,51.530,8.242,1239.000,149.900,24.830,3.428,204.100,36.730,6.904,1.702,328.000,90.200,19.320,5.149,baseline
1387.000,264.800,51.350,8.264,1238.000,150.000,24.720,3.427,207.800,36.590,6.969,1.713,328.000,90.340,19.380,5.189,baseline
1388.000,267.500,51.620,8.291,1241.000,150.800,24.850,3.423,207.100,36.650,6.957,1.716,329.100,90.950,19.590,5.234,baseline
1390.000,267.100,51.150,8.301,1243.000,150.800,24.840,3.406,208.400,36.860,7.020,1.740,331.300,91.280,19.640,5.279,baseline
1394.000,267.900,51.680,8.252,1241.000,149.900,25.100,3.423,208.400,36.880,7.023,1.741,332.400,91.480,19.790,5.320,baseline
1394.000,267.600,52.130,8.406,1247.000,149.900,24.870,3.420,207.300,36.900,6.972,1.750,334.000,92.090,19.920,5.337,baseline
1395.000,268.300,51.430,8.235,1240.000,151.000,25.070,3.445,208.400,37.270,7.018,1.733,331.200,91.220,19.550,5.157,baseline
1385.000,264.100,51.360,8.170,1238.000,149.800,24.630,3.389,207.700,36.900,6.964,1.717,330.100,90.510,19.430,5.147,baseline
1382.000,266.500,50.840,8.107,1243.000,150.500,24.780,3.367,209.400,37.060,7.005,1.717,330.200,90.680,19.430,5.170,baseline
1382.000,262.500,51.140,8.182,1238.000,150.400,24.660,3.404,208.200,36.950,6.978,1.722,330.000,90.740,19.480,5.157,baseline
1379.000,263.500,50.670,8.141,1240.000,150.200,24.650,3.369,209.300,36.880,7.006,1.723,329.900,90.790,19.430,5.172,baseline
1379.000,264.800,51.070,8.213,1235.000,149.900,24.640,3.367,210.300,37.100,7.008,1.732,331.000,91.030,19.490,5.203,baseline
1381.000,265.900,50.910,8.174,1236.000,149.700,24.620,3.355,207.900,37.120,7.055,1.731,332.400,91.360,19.650,5.235,baseline
1383.000,265.700,50.920,8.183,1235.000,149.700,24.880,3.396,210.200,37.200,7.069,1.741,333.100,91.660,19.750,5.265,baseline
1384.000,264.000,50.780,8.202,1242.000,149.300,24.810,3.384,210.500,37.240,7.075,1.749,333.700,91.870,19.810,5.286,baseline
1385.000,264.700,51.220,8.243,1238.000,150.100,24.700,3.401,210.400,37.380,7.081,1.751,335.300,92.420,19.900,5.348,baseline
1388.000,265.100,51.410,8.267,1239.000,150.100,24.650,3.383,212.200,37.250,7.139,1.765,337.000,92.810,20.020,5.369,baseline
1390.000,267.300,51.940,8.254,1239.000,150.700,24.710,3.382,212.200,37.670,7.152,1.767,336.200,93.480,20.080,5.359,baseline
1389.000,267.300,51.490,8.176,1237.000,150.000,24.650,3.349,212.700,37.710,7.123,1.748,334.200,91.890,19.640,5.205,baseline
1380.000,264.700,50.900,8.085,1237.000,150.200,24.750,3.356,211.400,37.390,7.076,1.734,333.600,91.360,19.600,5.205,baseline
1375.000,262.600,50.000,8.074,1239.000,149.200,24.600,3.360,213.000,37.300,7.082,1.731,333.500,91.520,19.560,5.187,baseline
1377.000,262.300,50.870,8.136,1231.000,150.600,24.660,3.399,210.700,37.320,7.094,1.747,332.900,91.490,19.470,5.191,baseline
1374.000,262.700,50.230,8.098,1229.000,149.500,24.520,3.366,209.900,37.450,7.079,1.749,332.800,91.520,19.610,5.202,baseline
1373.000,261.500,50.300,8.109,1232.000,149.800,24.550,3.373,211.800,37.470,7.109,1.747,333.400,91.770,19.740,5.220,baseline
1376.000,263.200,50.890,8.102,1239.000,150.600,24.770,3.372,211.300,37.590,7.128,1.748,334.300,92.070,19.710,5.255,baseline
1374.000,265.000,50.870,8.064,1232.000,150.500,24.640,3.390,212.100,37.610,7.101,1.750,335.900,92.300,19.790,5.269,baseline
1378.000,264.800,50.740,8.094,1240.000,149.600,24.630,3.393,211.600,37.530,7.120,1.758,336.300,92.620,19.930,5.316,baseline
1379.000,264.600,50.960,8.110,1233.000,150.200,24.730,3.374,212.700,37.580,7.164,1.771,338.100,93.040,20.020,5.349,baseline
1381.000,265.000,50.970,8.130,1241.000,150.700,24.830,3.358,212.900,37.940,7.190,1.774,339.100,93.510,20.070,5.410,baseline
1383.000,267.500,50.940,8.117,1236.000,149.300,24.770,3.422,213.800,38.040,7.152,1.779,339.900,93.830,20.140,5.411,baseline
1384.000,264.000,50.990,8.150,1241.000,149.700,24.640,3.350,216.100,37.940,7.190,1.764,337.100,92.610,19.870,5.270,baseline
1374.000,263.600,50.540,8.011,1235.000,149.700,24.480,3.373,212.500,37.550,7.126,1.747,335.600,92.420,19.740,5.220,baseline
1371.000,262.600,50.430,8.030,1232.000,149.200,24.490,3.338,210.700,37.860,7.103,1.762,335.300,91.860,19.770,5.221,baseline
1371.000,259.900,50.160,7.960,1231.000,148.900,24.500,3.349,213.700,37.870,7.157,1.760,334.900,91.790,19.660,5.207,baseline
1369.000,262.100,49.630,7.950,1231.000,150.100,24.750,3.347,214.300,37.850,7.088,1.753,335.500,91.970,19.710,5.211,baseline
1369.000,260.800,50.110,7.952,1235.000,149.800,24.620,3.348,212.300,37.560,7.150,1.750,336.400,92.320,19.720,5.252,baseline
1369.000,263.200,50.060,7.960,1234.000,149.100,24.780,3.375,217.000,37.850,7.147,1.762,335.800,92.650,19.800,5.288,baseline
1370.000,262.000,50.100,8.078,1232.000,148.600,24.650,3.382,213.700,37.870,7.153,1.763,337.200,92.660,19.790,5.292,baseline
1371.000,261.400,50.620,8.042,1235.000,150.200,24.580,3.375,213.000,37.670,7.196,1.774,337.500,92.930,19.900,5.322,baseline
1373.000,263.800,50.530,8.045,1236.000,150.000,24.510,3.363,216.100,37.790,7.206,1.774,340.400,93.070,20.010,5.336,baseline
1374.000,263.100,50.810,8.055,1234.000,149.700,24.660,3.378,214.500,38.040,7.216,1.777,340.800,93.570,20.090,5.400,baseline
1377.000,265.000,50.560,8.130,1237.000,150.200,24.530,3.380,217.500,38.180,7.197,1.788,341.400,94.140,20.340,5.427,baseline
1378.000,263.800,50.810,8.141,1240.000,150.400,24.650,3.405,216.800,38.260,7.206,1.791,342.100,93.940,20.280,5.345,baseline
1373.000,264.500,50.870,8.026,1229.000,149.900,24.720,3.357,215.400,37.920,7.167,1.767,338.000,93.040,19.830,5.249,baseline
1366.000,260.400,50.280,8.011,1229.000,149.900,24.690,3.357,214.700,37.770,7.159,1.763,336.700,92.320,19.770,5.254,baseline
1364.000,260.900,49.610,8.009,1232.000,149.000,24.650,3.346,213.700,38.030,7.185,1.768,337.200,92.500,19.820,5.233,baseline
1364.000,260.800,50.010,7.932,1234.000,149.100,24.370,3.350,214.600,37.940,7.162,1.755,337.200,92.590,19.730,5.232,baseline
1362.000,262.800,49.920,7.922,1230.000,149.100,24.520,3.353,213.000,38.100,7.179,1.765,337.100,92.540,19.730,5.242,baseline
1363.000,262.800,49.820,7.989,1235.000,149.000,24.690,3.382,213.600,38.150,7.168,1.766,338.600,92.900,19.920,5.271,baseline
1365.000,261.200,50.070,7.997,1231.000,149.700,24.620,3.358,216.000,38.120,7.183,1.765,339.300,92.810,19.910,5.290,baseline
1364.000,261.000,50.480,8.024,1233.000,149.700,24.570,3.398,214.800,38.090,7.196,1.777,339.900,93.120,19.980,5.301,baseline
1366.000,261.900,49.840,7.938,1227.000,149.400,24.600,3.356,216.000,38.230,7.162,1.781,341.000,93.580,20.040,5.313,baseline
1368.000,261.700,50.560,8.047,1225.000,149.400,24.560,3.396,215.600,38.200,7.186,1.786,341.800,93.990,20.100,5.345,baseline
1370.000,262.700,50.470,8.051,1232.000,149.200,24.700,3.382,218.000,37.960,7.234,1.784,342.300,94.290,20.210,5.417,baseline
1372.000,263.300,50.790,8.104,1235.000,150.400,24.530,3.377,216.600,38.280,7.286,1.806,344.000,95.000,20.510,5.488,baseline
1375.000,264.300,50.800,8.058,1234.000,149.000,24.640,3.349,221.000,39.410,7.447,1.836,349.900,96.480,20.670,5.498,baseline
1368.000,263.900,50.080,7.950,1228.000,149.500,24.400,3.352,228.700,40.210,7.589,1.851,351.900,96.910,20.770,5.482,baseline
1361.000,260.800,49.910,7.979,1231.000,149.800,24.460,3.316,229.500,40.490,7.575,1.856,352.900,96.800,20.610,5.449,baseline
1360.000,260.000,49.650,7.950,1228.000,149.300,24.590,3.332,226.600,39.960,7.557,1.851,353.300,96.450,20.580,5.423,baseline
1359.000,259.800,49.680,7.899,1230.000,149.400,24.590,3.330,225.900,39.650,7.491,1.830,351.500,95.870,20.450,5.397,baseline
1358.000,261.000,49.460,7.850,1228.000,148.800,24.470,3.345,225.700,39.800,7.443,1.828,350.100,95.750,20.420,5.410,baseline
1359.000,261.100,50.350,7.937,1229.000,150.800,24.520,3.376,223.400,39.460,7.459,1.829,350.800,95.670,20.470,5.425,baseline
1361.000,259.800,50.140,7.923,1230.000,149.400,24.580,3.328,220.500,39.520,7.459,1.828,350.200,95.750,20.460,5.416,baseline
1362.000,258.600,50.100,7.887,1232.000,148.900,24.430,3.360,221.500,39.490,7.425,1.837,350.300,96.070,20.500,5.432,baseline
1363.000,260.200,49.890,7.984,1234.000,148.400,24.580,3.361,222.500,39.180,7.461,1.836,350.900,96.270,20.550,5.459,baseline
1365.000,261.700,50.530,7.964,1233.000,149.900,24.560,3.345,223.700,39.310,7.443,1.831,350.500,96.640,20.650,5.470,baseline
1366.000,262.000,50.610,8.022,1230.000,149.100,24.690,3.368,221.900,39.240,7.448,1.837,351.600,96.470,20.580,5.523,baseline
1370.000,262.600,50.200,8.062,1235.000,148.900,24.720,3.382,222.500,39.460,7.444,1.844,353.000,96.420,20.680,5.530,baseline
1371.000,262.700,50.420,7.979,1238.000,150.000,24.600,3.336,224.200,39.300,7.487,1.831,348.900,95.860,20.460,5.376,baseline
1362.000,259.100,49.580,7.904,1237.000,149.300,24.520,3.316,220.900,38.850,7.381,1.806,346.600,94.610,20.210,5.326,baseline
1358.000,260.200,49.500,7.874,1226.000,148.500,24.440,3.339,221.600,38.840,7.369,1.801,345.400,94.520,20.200,5.314,baseline
1358.000,258.400,49.920,7.845,1229.000,148.900,24.600,3.353,218.300,38.940,7.332,1.807,345.600,94.300,20.100,5.312,baseline
1357.000,259.600,49.850,7.835,1232.000,148.500,24.410,3.364,219.700,38.460,7.364,1.793,345.000,94.040,20.110,5.313,baseline
1355.000,258.800,49.500,7.899,1226.000,149.500,24.460,3.339,219.100,38.980,7.317,1.800,345.100,94.310,20.160,5.345,baseline
1357.000,258.700,49.690,7.929,1233.000,149.200,24.440,3.347,220.600,38.670,7.289,1.800,345.600,94.760,20.220,5.342,baseline
1359.000,259.400,49.830,7.853,1224.000,149.400,24.530,3.378,220.400,38.990,7.337,1.811,345.500,94.810,20.280,5.364,baseline
1359.000,260.900,49.480,7.938,1224.000,149.200,24.270,3.330,219.200,38.870,7.324,1.805,346.300,95.000,20.230,5.392,baseline
1361.000,261.000,50.000,7.991,1231.000,149.200,24.750,3.346,223.300,38.620,7.375,1.809,347.000,95.230,20.310,5.401,baseline
1361.000,262.500,49.890,7.951,1233.000,149.600,24.650,3.366,219.800,38.900,7.315,1.816,346.800,95.420,20.410,5.430,baseline
1364.000,261.900,49.990,7.996,1229.000,149.900,24.510,3.363,220.500,39.100,7.347,1.826,348.200,95.990,20.490,5.464,baseline
1366.000,262.600,50.190,8.041,1237.000,149.600,24.510,3.383,221.100,38.990,7.376,1.820,349.700,96.160,20.590,5.501,baseline
1369.000,263.500,50.240,7.998,1239.000,149.200,24.780,3.348,220.000,38.930,7.372,1.802,346.700,95.170,20.290,5.352,baseline
1359.000,261.700,49.860,7.905,1233.000,149.400,24.550,3.343,219.500,38.740,7.289,1.791,344.500,94.250,20.140,5.293,baseline
1355.000,258.900,49.790,7.932,1230.000,149.100,24.150,3.342,218.100,38.760,7.281,1.788,344.700,94.230,20.090,5.278,baseline
1355.000,258.200,49.680,7.896,1232.000,149.000,24.370,3.335,220.400,38.710,7.291,1.791,344.400,94.040,20.040,5.274,baseline
1354.000,257.500,49.550,7.784,1232.000,148.800,24.440,3.344,218.900,38.730,7.270,1.791,344.000,94.040,20.030,5.317,baseline
1353.000,257.500,49.830,7.827,1227.000,148.800,24.480,3.388,217.900,38.500,7.301,1.799,344.900,94.320,20.150,5.308,baseline
1356.000,258.300,49.390,7.876,1231.000,149.300,24.400,3.327,218.600,38.410,7.292,1.795,344.900,94.600,20.170,5.333,baseline
1357.000,259.700,49.650,7.908,1233.000,149.100,24.300,3.353,218.000,38.620,7.315,1.793,344.900,94.560,20.200,5.332,baseline
1357.000,260.700,49.570,7.903,1227.000,150.000,24.780,3.364,218.600,38.770,7.264,1.796,346.000,94.830,20.240,5.351,baseline
1360.000,259.200,49.950,7.982,1230.000,149.400,24.730,3.334,219.200,38.630,7.319,1.813,347.100,95.110,20.300,5.401,baseline
1362.000,261.300,49.420,7.992,1231.000,149.100,24.530,3.358,219.300,38.880,7.358,1.815,347.700,95.480,20.430,5.439,baseline
1363.000,261.700,49.520,8.001,1231.000,149.300,24.670,3.392,219.900,39.110,7.352,1.808,348.700,95.550,20.520,5.477,baseline
1366.000,261.300,50.130,8.034,1234.000,149.100,24.640,3.373,219.600,38.740,7.360,1.821,349.800,96.360,20.610,5.477,baseline
1367.000,260.900,50.510,8.041,1229.000,149.300,24.590,3.351,221.800,38.820,7.350,1.814,348.400,95.290,20.390,5.358,baseline
1359.000,257.700,49.590,7.885,1226.000,149.600,24.620,3.357,218.500,38.650,7.342,1.793,345.400,94.850,20.170,5.330,baseline
1356.000,259.300,49.550,7.941,1230.000,149.300,24.430,3.327,217.600,38.680,7.299,1.792,345.200,94.520,20.130,5.304,baseline
1355.000,260.100,49.500,7.925,1230.000,148.900,24.570,3.300,221.500,38.900,7.290,1.788,346.000,94.310,20.140,5.292,baseline
1354.000,258.500,49.410,7.883,1224.000,149.600,24.490,3.333,219.800,38.610,7.286,1.796,345.000,94.060,20.160,5.285,baseline
1354.000,258.800,49.580,7.854,1227.000,149.200,24.250,3.349,218.200,38.490,7.319,1.799,345.100,94.620,20.160,5.292,baseline
1356.000,258.100,49.420,7.887,1230.000,149.100,24.580,3.331,220.300,38.590,7.305,1.786,346.400,94.480,20.250,5.322,baseline
1357.000,260.300,49.290,7.876,1233.000,148.900,24.530,3.334,220.100,38.610,7.334,1.792,347.100,94.830,20.320,5.340,baseline
1359.000,259.300,49.730,7.897,1231.000,148.600,24.630,3.343,220.100,39.050,7.288,1.801,347.900,95.010,20.290,5.387,baseline
1360.000,260.800,49.610,7.911,1230.000,148.100,24.430,3.344,220.700,38.680,7.352,1.807,347.800,95.680,20.400,5.412,baseline
1362.000,260.100,50.040,7.902,1232.000,149.100,24.360,3.349,219.100,38.350,7.356,1.819,349.100,96.020,20.520,5.412,baseline
1363.000,259.900,50.290,7.959,1236.000,149.000,24.450,3.385,220.500,38.980,7.334,1.821,349.700,96.350,20.530,5.472,baseline
1365.000,262.100,49.910,8.005,1237.000,149.600,24.580,3.350,219.100,39.090,7.358,1.826,350.800,96.480,20.620,5.477,baseline
1364.000,259.500,50.070,7.848,1239.000,149.700,24.470,3.347,220.500,38.820,7.359,1.798,347.600,95.110,20.280,5.336,baseline
1358.000,260.900,49.620,7.888,1233.000,148.800,24.400,3.350,218.600,38.700,7.294,1.801,346.900,94.790,20.250,5.343,baseline
1355.000,259.500,49.080,7.847,1233.000,149.300,24.510,3.349,219.500,38.290,7.283,1.798,345.900,94.750,20.170,5.336,baseline
1355.000,256.900,49.570,7.851,1227.000,149.000,24.400,3.318,221.400,38.560,7.307,1.797,345.700,94.620,20.280,5.300,baseline
1353.000,257.200,49.160,7.848,1223.000,148.900,24.340,3.347,217.800,38.540,7.276,1.792,345.200,94.650,20.230,5.334,baseline
1354.000,257.700,49.500,7.872,1232.000,148.400,24.480,3.322,219.500,38.730,7.330,1.794,346.700,94.870,20.320,5.345,baseline
1355.000,258.800,49.490,7.875,1229.000,149.000,24.310,3.326,220.200,38.960,7.308,1.806,347.300,95.040,20.260,5.350,baseline
1357.000,257.500,49.160,7.862,1231.000,148.600,24.580,3.318,220.700,38.690,7.318,1.809,348.000,95.450,20.360,5.384,baseline
1358.000,258.900,49.500,7.885,1233.000,149.900,24.290,3.319,219.400,38.690,7.313,1.807,348.900,95.500,20.440,5.396,baseline
1360.000,260.300,49.780,7.862,1234.000,149.100,24.390,3.348,220.300,38.920,7.304,1.812,349.000,95.980,20.450,5.428,baseline
1361.000,260.700,49.960,7.997,1238.000,149.500,24.530,3.350,219.200,39.010,7.342,1.814,350.600,95.980,20.540,5.468,baseline
1364.000,262.100,49.780,7.962,1229.000,149.900,24.570,3.377,220.900,39.210,7.371,1.820,352.100,96.510,20.690,5.518,baseline
1365.000,260.100,50.200,7.982,1233.000,149.100,24.600,3.408,223.200,38.760,7.344,1.822,352.600,97.070,20.690,5.505,baseline
1367.000,260.000,49.560,7.936,1228.000,149.900,24.440,3.351,221.300,39.030,7.388,1.815,348.800,95.560,20.410,5.369,baseline
1359.000,258.000,49.360,7.855,1232.000,149.500,24.290,3.319,220.400,38.820,7.296,1.795,347.500,94.640,20.260,5.347,baseline
1357.000,258.600,49.510,7.850,1228.000,149.200,24.300,3.306,217.200,38.590,7.305,1.786,346.900,94.540,20.220,5.330,baseline
1355.000,258.200,49.580,7.797,1237.000,148.700,24.290,3.318,219.900,38.790,7.347,1.814,347.800,94.970,20.380,5.375,baseline
1353.000,256.200,49.140,7.804,1230.000,149.300,24.420,3.308,224.800,39.430,7.450,1.826,352.900,96.870,20.780,5.487,baseline
1354.000,259.500,48.990,7.810,1237.000,149.100,24.310,3.356,232.200,40.820,7.719,1.916,366.100,100.700,21.790,5.716,baseline
1354.000,258.800,49.320,7.863,1229.000,148.100,24.140,3.346,240.800,42.650,8.125,1.983,374.600,103.200,22.270,5.840,baseline
1355.000,259.000,49.540,7.852,1229.000,148.200,24.300,3.337,246.700,43.790,8.305,2.033,379.700,104.200,22.580,5.926,baseline
1356.000,257.400,49.390,7.833,1227.000,148.700,24.300,3.317,257.400,45.020,8.481,2.063,381.100,104.300,22.660,5.938,baseline
1358.000,257.700,48.920,7.849,1228.000,149.400,24.450,3.325,270.200,45.600,8.559,2.079,383.500,104.900,22.890,6.031,baseline
1359.000,259.100,49.490,7.920,1224.000,148.700,24.300,3.319,275.100,46.650,8.651,2.119,389.300,106.200,23.280,6.156,baseline
1360.000,259.600,49.510,7.963,1229.000,149.500,24.410,3.310,274.500,46.880,8.766,2.152,400.000,109.100,23.540,6.158,baseline
1364.000,259.600,49.730,7.935,1235.000,149.100,24.350,3.366,255.200,45.070,8.515,2.065,389.700,106.700,22.880,6.020,baseline
1367.000,259.300,50.180,7.905,1229.000,149.700,24.630,3.338,246.800,43.400,8.198,1.999,381.800,104.100,22.180,5.795,baseline
1361.000,259.700,49.550,7.820,1232.000,148.800,24.320,3.318,239.900,42.280,7.987,1.946,373.300,101.600,21.700,5.677,baseline
1357.000,259.200,49.250,7.726,1232.000,148.900,24.450,3.324,237.700,41.720,7.877,1.929,371.400,101.200,21.590,5.667,baseline
1356.000,259.800,49.420,7.764,1226.000,148.800,24.290,3.340,231.400,40.850,7.696,1.877,363.500,98.940,21.190,5.601,hard
1356.000,256.000,49.600,7.820,1235.000,149.300,24.360,3.310,228.600,40.260,7.636,1.869,362.200,98.730,21.160,5.575,hard
1358.000,258.800,49.070,7.780,1233.000,149.800,24.380,3.311,229.700,40.210,7.605,1.859,360.800,98.230,21.160,5.594,hard
1360.000,257.600,49.840,7.883,1233.000,150.100,24.150,3.357,227.600,39.990,7.568,1.866,360.400,98.410,21.070,5.599,hard
1362.000,259.200,49.500,7.958,1231.000,149.600,24.490,3.345,229.200,40.040,7.523,1.852,359.500,98.360,21.000,5.612,hard
1363.000,259.100,49.400,8.000,1234.000,149.900,24.620,3.342,226.500,39.850,7.522,1.855,359.700,98.440,21.050,5.613,hard
1366.000,259.500,49.330,7.948,1234.000,150.000,24.370,3.351,228.500,39.810,7.538,1.844,359.200,98.250,21.180,5.644,hard
1369.000,261.400,49.840,8.001,1233.000,149.200,24.520,3.314,227.400,39.900,7.516,1.845,359.100,98.220,21.030,5.550,hard
1363.000,261.400,49.510,7.922,1234.000,148.800,24.370,3.343,226.300,39.670,7.447,1.817,353.700,96.550,20.660,5.449,hard
1359.000,258.900,49.480,7.810,1236.000,149.600,24.490,3.314,223.400,39.220,7.374,1.816,352.900,96.010,20.660,5.421,hard
1358.000,258.300,49.220,7.788,1232.000,148.600,24.100,3.318,222.700,38.980,7.414,1.823,350.700,95.760,20.520,5.422,hard
1358.000,259.000,49.450,7.790,1228.000,149.200,24.330,3.331,220.000,39.150,7.371,1.805,349.700,95.690,20.500,5.374,hard
1358.000,257.300,49.340,7.736,1239.000,149.500,24.200,3.309,224.500,38.840,7.350,1.800,349.300,95.370,20.490,5.411,hard
1360.000,260.600,49.340,7.842,1232.000,149.100,24.370,3.357,221.900,38.750,7.352,1.808,349.100,95.500,20.510,5.405,hard
1360.000,259.900,49.400,7.820,1228.000,149.100,24.380,3.370,222.200,38.540,7.348,1.809,348.900,95.550,20.470,5.435,hard
1362.000,258.400,50.130,7.872,1234.000,150.000,24.560,3.359,220.400,38.890,7.335,1.809,349.300,95.360,20.540,5.432,hard
1364.000,259.300,50.180,7.852,1238.000,150.300,24.510,3.337,222.700,38.790,7.373,1.803,349.500,95.790,20.600,5.472,hard
1366.000,260.800,49.980,7.952,1230.000,149.500,24.460,3.371,220.700,39.060,7.341,1.804,349.800,96.130,20.650,5.481,hard
1368.000,260.100,49.630,7.907,1234.000,149.600,24.420,3.337,221.400,39.080,7.351,1.804,352.000,96.280,20.620,5.505,hard
1370.000,261.300,50.210,7.956,1233.000,149.400,24.670,3.357,222.500,38.710,7.353,1.824,351.500,96.430,20.760,5.560,hard
1373.000,262.300,50.170,7.979,1240.000,149.900,24.470,3.334,220.700,38.820,7.351,1.810,350.700,95.930,20.620,5.454,hard
1367.000,259.800,49.910,7.883,1238.000,150.100,24.360,3.348,219.500,38.370,7.287,1.787,346.100,94.550,20.200,5.349,hard
1363.000,258.800,49.540,7.803,1240.000,149.400,24.450,3.315,219.600,38.430,7.267,1.782,345.600,94.340,20.210,5.337,hard
1360.000,260.800,49.110,7.838,1235.000,149.800,24.380,3.318,218.600,38.580,7.250,1.776,344.500,94.140,20.150,5.319,hard
1360.000,259.100,49.160,7.805,1232.000,149.000,24.310,3.322,218.300,38.190,7.218,1.777,344.100,93.840,20.110,5.325,hard
1358.000,257.200,49.580,7.825,1234.000,148.700,24.390,3.350,219.500,38.040,7.264,1.777,343.500,94.060,20.210,5.337,hard
1360.000,259.200,49.120,7.807,1232.000,149.500,24.250,3.350,218.200,38.260,7.244,1.782,344.700,94.150,20.260,5.370,hard
1362.000,258.500,49.530,7.846,1232.000,149.300,24.330,3.342,219.400,38.300,7.238,1.781,344.400,94.180,20.200,5.339,hard
1363.000,260.100,49.270,7.839,1234.000,149.500,24.380,3.324,219.000,38.270,7.240,1.769,343.800,94.080,20.270,5.380,hard
1364.000,258.500,49.630,7.895,1235.000,150.000,24.470,3.341,217.600,38.280,7.247,1.778,345.400,94.470,20.370,5.396,hard
1366.000,260.900,49.550,7.921,1234.000,148.600,24.590,3.336,219.400,38.280,7.237,1.797,345.500,95.000,20.370,5.427,hard
1369.000,260.900,49.760,7.916,1235.000,148.900,24.420,3.357,215.900,38.450,7.246,1.789,345.600,95.020,20.450,5.479,hard
1370.000,260.500,49.990,7.973,1236.000,149.300,24.460,3.362,217.700,38.250,7.272,1.795,347.000,95.280,20.570,5.477,hard
1372.000,262.300,50.180,7.970,1231.000,150.000,24.590,3.390,218.500,38.230,7.295,1.795,348.500,95.740,20.570,5.447,hard
1370.000,261.300,49.920,7.897,1230.000,149.800,24.450,3.344,216.100,38.410,7.261,1.770,344.100,94.000,20.270,5.347,hard
1364.000,257.900,49.360,7.851,1234.000,149.700,24.230,3.343,216.900,37.940,7.203,1.770,343.100,93.820,20.140,5.319,hard
1362.000,258.700,49.330,7.783,1235.000,149.100,24.270,3.326,217.800,37.910,7.196,1.769,341.900,93.400,20.060,5.300,hard
1359.000,258.200,49.300,7.843,1229.000,149.400,24.410,3.314,217.600,37.710,7.197,1.761,341.900,93.190,20.090,5.313,hard
1359.000,258.300,49.200,7.808,1231.000,149.500,24.470,3.317,216.100,38.100,7.216,1.758,342.200,93.640,20.110,5.319,hard
1361.000,258.500,49.840,7.801,1235.000,148.500,24.310,3.339,215.200,38.280,7.121,1.766,342.200,93.740,20.240,5.318,hard
1362.000,260.400,49.660,7.881,1235.000,149.100,24.400,3.312,216.700,38.230,7.189,1.763,343.100,93.820,20.210,5.339,hard
1364.000,258.900,49.330,7.929,1227.000,149.100,24.500,3.328,216.600,37.770,7.192,1.772,343.500,93.730,20.230,5.379,hard
1365.000,259.700,49.530,7.887,1231.000,149.600,24.380,3.322,217.300,37.810,7.170,1.775,344.600,94.170,20.210,5.393,hard
1365.000,260.900,49.590,7.884,1238.000,149.300,24.440,3.336,217.900,37.930,7.215,1.775,345.000,94.410,20.340,5.428,hard
1366.000,260.000,49.560,7.909,1231.000,150.400,24.290,3.326,217.500,38.180,7.223,1.769,346.100,94.950,20.410,5.443,hard
1368.000,261.400,49.570,7.950,1235.000,149.600,24.610,3.372,217.000,38.180,7.217,1.793,347.600,95.410,20.500,5.509,hard
1371.000,261.500,49.840,8.010,1236.000,149.700,24.570,3.337,217.100,38.190,7.218,1.789,348.700,95.720,20.570,5.529,hard
1373.000,263.200,49.960,8.001,1235.000,149.800,24.530,3.353,216.000,38.160,7.237,1.774,349.500,95.420,20.550,5.435,hard
1370.000,259.900,49.630,7.903,1231.000,149.000,24.400,3.331,218.700,38.100,7.177,1.764,344.400,94.180,20.340,5.370,hard
1363.000,260.800,49.940,7.856,1230.000,149.000,24.440,3.321,218.500,37.900,7.176,1.766,343.700,94.080,20.240,5.347,hard
1362.000,259.200,49.390,7.860,1236.000,149.300,24.460,3.342,217.500,37.870,7.164,1.761,344.500,93.810,20.170,5.322,hard
1359.000,257.200,49.280,7.877,1226.000,149.300,24.550,3.327,213.100,37.500,7.201,1.765,343.200,93.690,20.190,5.340,hard
1359.000,261.200,49.370,7.853,1228.000,148.300,24.270,3.339,214.500,37.810,7.193,1.760,344.000,94.050,20.190,5.365,hard
1361.000,260.000,49.000,7.866,1235.000,148.600,24.430,3.329,217.800,38.290,7.176,1.763,344.500,94.150,20.310,5.370,hard
1361.000,258.800,49.310,7.903,1227.000,149.500,24.430,3.364,217.800,37.750,7.168,1.764,345.500,94.230,20.340,5.393,hard
1363.000,258.400,49.700,7.970,1237.000,149.000,24.380,3.343,216.700,38.090,7.177,1.772,346.100,94.480,20.380,5.404,hard
1365.000,261.300,50.050,7.894,1233.000,150.000,24.470,3.343,216.000,38.170,7.211,1.772,346.600,94.970,20.440,5.449,hard
1364.000,261.900,49.510,7.973,1235.000,148.800,24.490,3.325,216.300,37.880,7.212,1.775,347.700,95.330,20.510,5.452,hard
1366.000,260.100,50.350,8.040,1231.000,149.300,24.560,3.367,217.600,38.000,7.224,1.788,348.700,95.690,20.590,5.495,hard
1369.000,262.700,50.110,8.025,1238.000,149.800,24.590,3.377,216.800,38.320,7.217,1.793,349.200,96.210,20.690,5.522,hard
1374.000,261.600,50.520,8.079,1240.000,150.200,24.590,3.362,219.100,38.240,7.231,1.781,347.700,95.250,20.500,5.422,hard
1363.000,261.000,49.440,7.903,1231.000,148.900,24.420,3.345,214.200,37.800,7.140,1.753,345.000,94.330,20.340,5.375,hard
1361.000,261.400,49.830,7.926,1233.000,149.000,24.300,3.351,215.500,37.980,7.151,1.760,345.300,94.480,20.300,5.395,hard
1363.000,261.300,49.270,7.955,1236.000,149.300,24.350,3.339,217.000,37.840,7.208,1.761,345.500,94.570,20.280,5.375,hard
1362.000,259.100,50.250,7.932,1232.000,149.600,24.450,3.294,217.500,37.830,7.159,1.752,345.100,94.770,20.390,5.403,hard
1363.000,261.300,49.640,7.910,1231.000,148.700,24.400,3.340,216.800,38.060,7.185,1.762,346.200,94.810,20.400,5.417,hard
1365.000,261.200,49.630,7.944,1238.000,149.000,24.280,3.317,216.200,38.150,7.161,1.773,347.000,95.400,20.480,5.458,hard
1368.000,259.100,50.210,7.961,1233.000,149.000,24.420,3.373,216.300,38.010,7.200,1.771,348.600,95.510,20.540,5.483,hard
1368.000,262.600,49.870,8.021,1229.000,149.400,24.480,3.357,216.800,38.100,7.188,1.773,348.600,95.620,20.560,5.506,hard
1371.000,261.800,50.450,8.047,1237.000,149.900,24.510,3.324,218.500,38.290,7.195,1.785,349.600,96.240,20.660,5.504,hard
1373.000,262.700,50.680,8.034,1234.000,149.500,24.490,3.334,219.900,38.160,7.236,1.781,350.300,96.300,20.850,5.566,hard
1375.000,263.400,50.630,8.110,1236.000,149.500,24.490,3.349,217.800,38.430,7.273,1.793,352.400,96.920,20.940,5.610,hard
1377.000,263.800,50.570,8.122,1241.000,149.900,24.560,3.307,219.100,38.230,7.236,1.800,353.300,97.240,20.960,5.631,hard
1381.000,263.900,50.470,8.098,1241.000,149.300,24.540,3.331,218.600,38.440,7.284,1.780,350.500,96.190,20.710,5.457,hard
1374.000,262.400,50.190,7.961,1239.000,149.700,24.560,3.341,215.900,37.920,7.190,1.763,348.100,95.260,20.520,5.422,hard
1369.000,262.200,49.980,7.979,1232.000,150.300,24.370,3.339,215.700,37.890,7.159,1.758,347.200,95.090,20.400,5.424,hard
1369.000,260.200,49.860,7.933,1235.000,149.000,24.230,3.375,215.000,38.070,7.156,1.763,348.000,95.310,20.430,5.411,hard
1368.000,260.700,50.200,7.841,1234.000,149.700,24.330,3.316,216.600,37.940,7.180,1.768,346.700,95.260,20.480,5.426,hard
1369.000,260.800,50.010,7.884,1234.000,149.100,24.160,3.321,215.400,38.050,7.171,1.764,347.600,95.140,20.550,5.465,hard
1371.000,260.300,49.790,8.015,1234.000,149.700,24.370,3.326,215.800,38.010,7.215,1.766,349.200,95.620,20.540,5.459,hard
1372.000,259.900,50.210,8.000,1237.000,149.200,24.470,3.310,216.400,38.180,7.170,1.769,350.100,96.250,20.660,5.485,hard
1372.000,262.800,50.380,8.065,1239.000,149.400,24.550,3.330,216.600,38.150,7.220,1.774,351.400,96.150,20.670,5.519,hard
1374.000,261.700,50.420,7.989,1236.000,149.600,24.450,3.297,217.000,38.190,7.222,1.780,351.600,96.830,20.810,5.559,hard
1374.000,263.600,50.480,8.070,1239.000,150.000,24.290,3.316,218.600,38.300,7.226,1.786,352.500,97.060,20.900,5.606,hard
1379.000,263.300,50.750,8.126,1236.000,149.500,24.540,3.330,218.100,38.350,7.207,1.787,354.000,97.400,21.000,5.630,hard
1383.000,264.200,50.940,8.130,1239.000,149.900,24.490,3.315,217.200,38.370,7.235,1.807,356.000,97.620,21.040,5.625,hard
1384.000,266.000,50.620,8.102,1234.000,149.200,24.420,3.307,218.300,38.220,7.216,1.787,351.200,96.540,20.710,5.499,hard
1374.000,264.600,50.210,7.980,1231.000,148.500,24.250,3.328,216.100,38.040,7.160,1.770,350.000,95.770,20.600,5.486,hard
1373.000,263.100,50.460,7.927,1238.000,149.700,24.370,3.315,216.300,37.870,7.159,1.769,350.500,95.630,20.550,5.469,hard
1373.000,261.900,50.430,7.955,1240.000,149.800,24.570,3.318,216.700,38.190,7.221,1.773,350.500,95.750,20.670,5.476,hard
1371.000,262.500,50.310,7.978,1237.000,150.000,24.420,3.323,216.700,37.980,7.172,1.755,349.600,96.030,20.720,5.473,hard
1373.000,263.900,50.350,8.016,1236.000,149.400,24.310,3.334,219.300,38.010,7.192,1.775,351.200,96.130,20.620,5.516,hard
1376.000,262.700,50.660,8.054,1234.000,148.900,24.600,3.373,217.800,38.100,7.172,1.761,351.500,96.270,20.800,5.517,hard
1377.000,262.300,50.560,8.135,1239.000,149.800,24.560,3.335,218.500,38.160,7.182,1.779,351.900,96.680,20.750,5.528,hard
1380.000,265.000,50.880,8.086,1235.000,150.000,24.400,3.365,215.600,38.460,7.194,1.781,352.800,96.880,20.800,5.575,hard
1380.000,264.700,50.560,8.140,1237.000,149.800,24.500,3.327,218.000,38.330,7.209,1.780,354.900,97.170,20.930,5.608,hard
1384.000,264.100,51.160,8.164,1239.000,149.900,24.670,3.361,219.700,38.530,7.229,1.795,356.300,97.620,20.970,5.638,hard
1386.000,266.000,50.670,8.183,1236.000,150.800,24.530,3.371,220.100,38.640,7.258,1.790,356.000,97.590,20.930,5.582,hard
1382.000,266.600,50.540,8.031,1243.000,149.700,24.400,3.350,217.100,38.000,7.195,1.767,351.400,96.470,20.710,5.503,hard
1378.000,265.600,50.400,8.108,1245.000,149.700,24.410,3.334,219.200,38.170,7.202,1.769,351.800,96.200,20.650,5.500,hard
1378.000,264.000,50.210,8.031,1241.000,149.400,24.340,3.336,216.800,38.390,7.165,1.759,351.800,96.420,20.660,5.483,hard
1379.000,265.800,50.350,8.037,1239.000,150.400,24.330,3.317,220.300,38.170,7.210,1.765,351.600,96.230,20.650,5.493,hard
1380.000,264.300,50.400,8.087,1235.000,150.500,24.650,3.363,217.700,37.940,7.188,1.765,351.800,96.260,20.660,5.521,hard
1382.000,262.500,50.810,8.075,1235.000,150.800,24.480,3.347,216.000,38.210,7.183,1.780,353.200,96.720,20.770,5.521,hard
1384.000,266.600,51.040,8.199,1236.000,150.600,24.590,3.331,219.500,38.120,7.186,1.770,354.500,97.010,20.860,5.567,hard
1386.000,267.100,50.820,8.155,1242.000,151.000,24.630,3.336,216.500,38.290,7.212,1.776,355.300,97.280,20.940,5.588,hard
1388.000,265.000,50.860,8.184,1236.000,150.200,24.730,3.362,218.000,38.470,7.209,1.777,356.300,97.590,21.040,5.627,hard
1389.000,268.700,51.240,8.198,1255.000,150.200,24.630,3.367,218.900,38.550,7.233,1.790,357.400,97.920,21.090,5.666,hard
1391.000,267.200,51.490,8.207,1242.000,150.500,24.590,3.363,220.600,38.250,7.221,1.793,358.400,98.390,21.160,5.671,hard
1395.000,268.000,51.450,8.188,1241.000,150.300,24.640,3.345,220.700,38.240,7.224,1.784,356.900,97.910,21.000,5.563,hard
1389.000,267.300,50.610,8.198,1240.000,150.500,24.500,3.355,218.800,38.050,7.204,1.762,353.600,96.620,20.720,5.502,hard
1386.000,265.000,50.980,8.099,1239.000,151.200,24.460,3.337,216.900,37.840,7.161,1.759,352.600,96.340,20.680,5.484,hard
1385.000,263.900,50.660,8.049,1239.000,150.100,24.580,3.329,219.500,38.050,7.164,1.755,352.500,96.480,20.710,5.505,hard
1386.000,264.800,50.600,8.016,1239.000,149.600,24.460,3.374,218.800,37.970,7.189,1.766,352.200,96.230,20.660,5.497,hard
1385.000,264.700,50.700,8.105,1242.000,150.000,24.540,3.322,217.300,37.920,7.161,1.764,353.000,96.790,20.810,5.505,hard
1386.000,264.900,50.740,8.120,1237.000,150.400,24.540,3.333,214.500,37.970,7.152,1.776,354.300,96.670,20.820,5.542,hard
1388.000,266.400,50.860,8.130,1239.000,150.600,24.420,3.354,218.300,37.990,7.219,1.768,353.800,97.250,20.800,5.557,hard
1389.000,267.000,51.020,8.140,1242.000,150.200,24.450,3.327,219.500,38.050,7.205,1.779,354.900,97.110,20.860,5.577,hard
1392.000,267.300,50.800,8.192,1245.000,151.100,24.430,3.333,220.400,37.900,7.164,1.767,356.300,97.370,20.960,5.588,hard
1393.000,267.600,51.200,8.135,1238.000,150.500,24.580,3.360,218.600,38.190,7.195,1.780,357.400,98.190,21.080,5.621,hard
1396.000,268.800,51.470,8.191,1242.000,150.400,24.740,3.380,219.000,38.260,7.190,1.789,358.100,98.090,21.150,5.679,hard
1398.000,267.400,51.760,8.191,1242.000,150.700,24.590,3.346,220.100,38.190,7.225,1.800,359.300,98.380,21.170,5.603,hard
1397.000,269.000,51.480,8.098,1239.000,149.800,24.640,3.357,217.600,38.030,7.167,1.775,355.000,97.180,20.750,5.522,hard
1391.000,267.300,50.970,8.151,1242.000,150.200,24.460,3.361,217.800,37.700,7.176,1.760,354.200,96.810,20.740,5.515,hard
1390.000,267.600,50.690,8.097,1241.000,149.500,24.350,3.363,219.000,38.020,7.138,1.761,353.000,96.360,20.720,5.478,hard
1389.000,266.500,50.640,8.112,1244.000,150.100,24.490,3.302,218.900,38.080,7.153,1.756,352.800,96.510,20.700,5.467,hard
1389.000,265.900,50.900,8.047,1241.000,150.100,24.530,3.321,220.500,37.720,7.165,1.764,353.800,96.790,20.800,5.503,hard
1390.000,263.300,50.950,8.114,1249.000,149.800,24.620,3.346,216.600,37.640,7.185,1.761,355.300,96.810,20.780,5.505,hard
1392.000,265.800,50.720,8.229,1239.000,150.000,24.890,3.301,219.100,38.030,7.138,1.768,354.900,96.970,20.810,5.543,hard
1393.000,264.900,50.990,8.126,1245.000,150.400,24.700,3.348,215.500,37.910,7.186,1.768,355.000,97.260,20.840,5.556,hard
1394.000,266.800,51.180,8.162,1242.000,150.900,24.640,3.348,215.900,38.030,7.194,1.770,356.300,97.220,21.000,5.576,hard
1397.000,269.800,51.340,8.185,1245.000,149.800,24.540,3.358,219.200,37.920,7.164,1.773,356.600,97.620,20.960,5.626,hard
1398.000,267.700,51.620,8.222,1244.000,151.000,24.520,3.357,218.500,38.400,7.181,1.776,357.800,98.360,21.050,5.640,hard
1399.000,267.400,51.380,8.185,1244.000,150.800,24.600,3.361,218.200,38.320,7.194,1.777,358.500,98.190,21.050,5.672,hard
1401.000,268.600,51.970,8.288,1239.000,151.500,24.730,3.381,217.900,38.330,7.199,1.793,359.400,98.630,21.240,5.667,hard
1402.000,268.600,51.770,8.197,1245.000,149.800,24.500,3.375,219.500,38.130,7.185,1.767,356.200,97.290,20.920,5.544,hard
1394.000,266.200,50.850,8.133,1240.000,150.100,24.530,3.342,216.600,37.810,7.111,1.764,354.000,96.860,20.730,5.527,hard
1394.000,267.400,50.870,8.163,1241.000,149.800,24.450,3.319,217.100,37.560,7.094,1.747,353.600,96.760,20.720,5.498,hard
1392.000,267.400,50.980,8.073,1246.000,149.900,24.470,3.345,215.900,37.620,7.147,1.753,353.300,96.690,20.700,5.504,hard
1391.000,268.100,51.180,8.110,1242.000,149.600,24.470,3.329,216.600,37.570,7.110,1.758,354.100,96.600,20.690,5.511,hard
1390.000,266.200,51.100,8.147,1242.000,149.200,24.360,3.351,216.500,37.540,7.109,1.757,354.600,96.710,20.820,5.531,hard
1393.000,268.400,50.960,8.091,1241.000,149.400,24.670,3.321,217.400,37.690,7.075,1.761,354.000,97.090,20.780,5.517,hard
1392.000,268.200,51.100,8.136,1244.000,148.900,24.540,3.314,214.500,37.580,7.081,1.762,355.400,97.180,20.810,5.560,hard
1393.000,268.800,50.820,8.157,1241.000,149.500,24.680,3.327,217.900,37.690,7.100,1.763,355.700,97.380,20.860,5.580,hard
1396.000,267.800,51.140,8.162,1243.000,150.000,24.500,3.343,215.700,37.660,7.113,1.758,357.100,97.620,20.950,5.609,hard
1397.000,270.500,51.640,8.133,1238.000,150.800,24.430,3.361,215.100,37.690,7.113,1.766,357.400,98.010,20.970,5.628,hard
1399.000,268.200,51.530,8.161,1237.000,150.300,24.610,3.323,217.900,37.860,7.129,1.777,358.500,98.270,21.090,5.655,hard
1401.000,267.800,51.500,8.263,1241.000,150.500,24.640,3.339,216.900,37.770,7.139,1.780,359.100,98.220,20.990,5.616,hard
1398.000,266.600,51.170,8.185,1234.000,150.300,24.490,3.346,216.500,37.760,7.088,1.743,353.400,96.710,20.730,5.491,hard
1390.000,266.300,50.730,8.139,1241.000,149.200,24.350,3.325,212.500,37.480,7.040,1.736,353.100,96.240,20.670,5.498,hard
1387.000,264.400,50.520,8.103,1232.000,149.100,24.390,3.301,213.400,37.220,7.040,1.729,352.100,96.090,20.610,5.490,hard
1386.000,266.400,51.000,8.064,1232.000,148.700,24.320,3.324,212.900,37.330,7.048,1.740,351.700,96.080,20.580,5.445,hard
1385.000,266.400,50.800,8.083,1237.000,149.700,24.300,3.362,214.000,37.330,7.014,1.745,352.300,96.070,20.550,5.479,hard
1385.000,266.800,50.810,8.086,1239.000,148.300,24.410,3.362,214.800,37.250,7.020,1.729,352.200,96.170,20.640,5.471,hard
1386.000,264.500,50.840,8.150,1236.000,149.400,24.210,3.294,214.800,37.060,7.074,1.735,352.500,96.640,20.700,5.494,hard
1386.000,264.600,51.040,8.093,1233.000,149.800,24.390,3.352,214.400,37.510,7.033,1.740,353.200,96.630,20.670,5.512,hard
1387.000,265.500,50.930,8.093,1226.000,148.700,24.280,3.332,213.200,37.290,7.054,1.741,354.500,97.010,20.840,5.534,hard
1388.000,264.900,50.750,8.115,1231.000,149.300,24.410,3.354,215.700,37.280,7.031,1.741,354.100,97.220,20.930,5.579,hard
1390.000,267.900,51.510,8.214,1233.000,149.200,24.320,3.357,216.800,37.610,7.077,1.757,356.900,97.370,20.930,5.616,hard
1391.000,266.400,51.480,8.178,1232.000,150.200,24.370,3.326,214.100,37.760,7.082,1.749,356.700,98.270,21.040,5.648,hard
1395.000,267.200,51.440,8.196,1229.000,148.300,24.210,3.280,215.500,37.360,7.070,1.754,356.400,97.620,20.820,5.532,hard
1387.000,265.300,50.980,8.092,1228.000,149.100,24.200,3.278,212.400,37.340,7.015,1.723,352.400,96.230,20.590,5.461,hard
1383.000,265.400,50.640,8.065,1230.000,148.800,24.330,3.291,212.800,36.970,6.976,1.721,351.600,95.690,20.520,5.444,hard
1378.000,265.200,50.740,8.064,1230.000,148.400,24.400,3.313,213.500,37.310,6.964,1.716,351.100,95.780,20.530,5.440,hard
1380.000,263.500,50.410,8.078,1229.000,149.100,24.190,3.325,215.200,37.120,6.951,1.722,350.600,96.010,20.480,5.440,hard
1378.000,264.700,50.560,8.099,1233.000,148.600,24.360,3.303,212.100,37.200,6.965,1.722,351.400,95.790,20.490,5.424,hard
1379.000,261.500,50.640,8.065,1224.000,148.100,24.090,3.308,212.700,37.030,6.977,1.720,351.200,96.080,20.570,5.471,hard
1378.000,264.200,51.070,8.138,1233.000,148.700,24.130,3.325,212.400,37.150,6.997,1.720,353.100,96.420,20.550,5.473,hard
1380.000,264.300,50.430,8.117,1224.000,148.600,24.040,3.287,214.500,37.200,6.937,1.724,352.400,96.560,20.590,5.503,hard
1380.000,264.700,50.550,8.077,1226.000,148.300,24.210,3.286,213.200,37.250,6.969,1.731,352.900,96.700,20.780,5.548,hard
1382.000,265.100,50.840,8.164,1229.000,148.400,24.130,3.322,212.300,37.030,6.989,1.728,354.000,97.170,20.820,5.567,hard
1385.000,265.500,50.450,8.158,1224.000,148.300,24.330,3.329,212.600,37.300,7.035,1.735,355.000,97.470,20.930,5.593,hard
1386.000,267.800,50.950,8.168,1229.000,148.900,24.360,3.310,211.800,37.390,6.972,1.728,356.500,97.550,20.880,5.548,hard
1384.000,264.500,50.950,8.162,1223.000,148.200,24.090,3.301,211.400,37.170,6.942,1.712,353.000,96.130,20.560,5.441,hard
1377.000,263.800,50.450,8.050,1228.000,148.900,24.100,3.306,214.300,37.070,6.945,1.707,350.800,96.000,20.370,5.433,hard
1374.000,263.300,50.140,7.920,1227.000,148.100,24.180,3.299,213.100,36.780,6.904,1.701,350.700,95.710,20.450,5.416,hard
1373.000,262.300,50.610,8.039,1223.000,148.100,24.220,3.278,209.000,36.820,6.927,1.699,350.700,95.530,20.420,5.400,hard
1372.000,263.900,50.560,8.030,1221.000,148.300,24.020,3.288,211.500,37.050,6.920,1.705,350.600,95.560,20.460,5.444,hard
1371.000,262.400,50.210,8.047,1225.000,148.200,24.030,3.290,208.200,36.830,6.938,1.701,352.800,95.940,20.460,5.445,hard
1375.000,263.400,50.420,8.067,1224.000,148.300,24.280,3.315,213.000,36.890,6.946,1.714,352.200,96.280,20.510,5.473,hard
1374.000,264.200,50.620,8.035,1222.000,147.900,24.060,3.292,211.600,36.790,6.935,1.716,352.500,96.180,20.570,5.476,hard
1376.000,263.200,50.540,8.061,1220.000,149.100,24.070,3.282,212.100,36.620,6.929,1.715,353.100,96.680,20.700,5.499,hard
1376.000,263.500,50.470,8.142,1225.000,148.500,24.140,3.297,212.100,36.890,6.986,1.717,353.600,96.900,20.710,5.547,hard
1379.000,264.900,50.860,8.142,1231.000,149.100,24.320,3.303,212.600,37.140,6.941,1.725,355.100,96.900,20.810,5.564,hard
1381.000,265.200,50.680,8.186,1233.000,147.500,24.230,3.271,211.900,37.120,6.937,1.723,356.700,97.790,20.910,5.582,hard
1385.000,265.100,50.530,8.189,1228.000,147.700,24.230,3.318,213.700,37.050,6.958,1.721,355.900,96.940,20.700,5.497,hard
1376.000,262.800,50.330,8.055,1227.000,148.400,24.090,3.294,212.400,37.090,6.895,1.708,352.100,96.250,20.530,5.457,hard
1374.000,262.700,50.150,8.096,1223.000,149.300,23.960,3.299,208.900,36.910,6.902,1.709,351.800,96.060,20.450,5.426,hard
1371.000,264.900,50.530,7.932,1222.000,148.900,24.120,3.269,212.800,36.810,6.959,1.698,352.000,96.010,20.520,5.435,hard
1371.000,261.900,50.100,7.960,1224.000,148.000,23.970,3.305,212.600,36.990,6.940,1.705,352.100,95.920,20.480,5.448,hard
1371.000,262.600,50.210,8.047,1226.000,148.600,24.210,3.268,211.200,36.980,6.934,1.714,354.000,96.400,20.540,5.431,hard
1373.000,264.300,50.260,8.023,1226.000,148.400,24.170,3.266,214.100,36.740,6.919,1.715,354.300,96.620,20.540,5.478,hard
1373.000,263.300,50.750,8.011,1225.000,148.400,24.150,3.296,213.100,36.720,6.912,1.713,353.800,96.620,20.690,5.501,hard
1374.000,264.100,51.050,8.064,1225.000,148.200,24.400,3.312,211.500,36.790,6.924,1.719,354.700,96.900,20.800,5.535,hard
1377.000,264.500,50.830,8.107,1220.000,148.300,24.220,3.305,209.600,37.190,6.946,1.715,355.400,97.140,20.800,5.555,hard
1378.000,264.600,50.630,8.109,1226.000,149.400,24.120,3.295,212.900,36.820,6.961,1.722,357.500,97.670,20.890,5.569,hard
1379.000,264.800,50.990,8.213,1229.000,149.400,24.470,3.327,214.400,37.140,6.964,1.723,358.600,97.870,20.920,5.608,hard
1382.000,266.800,50.650,8.196,1227.000,149.700,24.190,3.314,214.400,37.260,6.973,1.734,358.900,98.480,21.130,5.622,hard
1382.000,265.100,50.530,8.104,1226.000,147.600,24.060,3.284,212.700,36.900,6.955,1.710,356.400,97.010,20.710,5.489,hard
1375.000,265.200,50.550,8.070,1231.000,148.200,24.010,3.286,213.400,37.180,6.893,1.700,355.300,96.700,20.580,5.501,hard
1374.000,263.900,50.280,8.076,1224.000,147.500,24.090,3.290,211.500,37.070,6.933,1.703,354.700,96.430,20.590,5.459,hard
1374.000,263.700,50.430,8.102,1229.000,148.800,23.970,3.278,212.300,36.850,6.903,1.701,355.300,96.650,20.620,5.467,hard
1372.000,261.000,50.600,8.086,1232.000,149.000,23.990,3.288,212.800,36.540,6.929,1.714,354.000,96.490,20.640,5.507,hard
1374.000,264.400,50.570,8.113,1226.000,149.900,24.100,3.294,211.900,36.950,6.904,1.713,355.300,97.000,20.690,5.508,hard
1376.000,263.800,50.610,8.110,1231.000,148.300,24.370,3.297,212.100,36.770,6.920,1.712,355.500,97.020,20.800,5.542,hard
1375.000,263.900,50.410,8.123,1222.000,148.700,24.180,3.289,211.100,36.730,6.947,1.704,355.700,97.300,20.870,5.557,hard
1379.000,266.200,50.720,8.129,1224.000,148.600,24.270,3.285,211.800,36.740,6.933,1.710,356.800,97.930,20.860,5.577,hard
1379.000,265.500,50.900,8.194,1226.000,148.800,24.200,3.313,212.600,36.810,6.937,1.708,358.100,98.050,21.000,5.621,hard
1381.000,266.500,50.710,8.132,1229.000,149.300,24.230,3.326,215.000,37.010,6.946,1.709,358.500,98.180,21.070,5.646,hard
1384.000,265.900,50.880,8.146,1229.000,148.700,24.200,3.328,211.700,37.100,6.941,1.735,359.700,98.710,21.150,5.623,hard
1384.000,265.500,50.970,8.167,1225.000,147.900,24.270,3.282,211.100,36.930,6.937,1.716,356.500,97.470,20.800,5.526,hard
1376.000,264.600,50.620,8.037,1227.000,148.800,24.210,3.305,212.100,36.510,6.888,1.697,355.600,97.030,20.680,5.510,hard
1375.000,262.700,50.920,8.091,1233.000,148.500,24.000,3.288,211.000,36.900,6.902,1.705,354.700,96.980,20.710,5.529,hard
1373.000,262.200,50.490,8.053,1225.000,148.300,23.980,3.316,212.400,36.430,6.871,1.701,356.000,96.880,20.730,5.489,hard
1373.000,263.300,50.210,7.957,1232.000,149.000,24.170,3.265,210.100,36.560,6.885,1.703,355.300,96.820,20.670,5.506,hard
1373.000,262.500,50.460,8.046,1225.000,148.000,24.260,3.285,212.500,36.760,6.902,1.701,355.400,97.150,20.770,5.560,hard
1375.000,263.700,50.230,8.103,1230.000,149.000,24.240,3.265,212.000,36.940,6.881,1.706,356.700,97.490,20.790,5.531,hard
1377.000,264.200,50.720,8.070,1226.000,149.200,24.230,3.300,208.700,36.700,6.888,1.704,355.700,97.290,20.830,5.575,hard
1377.000,262.900,50.780,8.083,1227.000,148.200,24.050,3.278,213.500,36.890,6.916,1.709,356.700,97.740,20.870,5.591,hard
1379.000,265.200,50.500,8.123,1231.000,148.800,24.400,3.307,211.900,36.850,6.899,1.711,357.800,97.770,20.950,5.609,hard
1380.000,265.500,50.760,8.132,1227.000,148.700,24.180,3.311,213.600,36.930,6.915,1.718,358.200,98.120,21.010,5.637,hard
1383.000,265.900,51.220,8.075,1234.000,148.800,24.220,3.329,213.100,36.800,6.929,1.716,360.300,98.480,21.110,5.669,hard
1385.000,266.200,51.180,8.111,1233.000,149.400,24.220,3.291,212.100,36.980,6.922,1.723,358.600,97.920,20.920,5.561,hard
1379.000,265.700,51.090,8.047,1223.000,149.400,24.250,3.299,210.700,36.470,6.864,1.695,355.000,96.780,20.810,5.522,hard
1376.000,265.300,50.570,8.071,1230.000,148.700,23.970,3.306,211.900,36.380,6.851,1.689,355.100,96.580,20.700,5.492,hard
1373.000,262.100,50.760,8.051,1229.000,148.800,24.230,3.269,209.500,36.490,6.820,1.692,354.700,96.820,20.610,5.498,hard
1372.000,262.600,50.330,8.014,1226.000,149.400,24.180,3.276,208.700,36.280,6.842,1.699,353.500,96.720,20.610,5.496,hard
1372.000,263.400,50.330,7.995,1231.000,148.200,24.240,3.264,212.000,36.320,6.872,1.690,355.000,96.690,20.710,5.513,hard
1373.000,263.100,49.890,8.090,1229.000,149.100,24.090,3.296,209.900,36.520,6.844,1.686,355.400,97.020,20.740,5.523,hard
1373.000,263.800,50.270,8.042,1227.000,148.200,24.370,3.296,208.200,36.510,6.883,1.690,355.800,96.960,20.780,5.560,hard
1375.000,263.800,50.240,8.093,1222.000,148.600,24.230,3.265,212.000,36.660,6.855,1.690,356.700,97.290,20.800,5.565,hard
1378.000,263.900,50.430,7.988,1231.000,149.600,24.380,3.294,211.400,36.550,6.869,1.698,357.300,97.420,20.970,5.592,hard
1378.000,265.900,50.640,8.046,1238.000,148.200,24.260,3.323,210.400,36.370,6.868,1.707,358.200,97.970,20.980,5.621,hard
1380.000,264.800,50.810,8.081,1233.000,149.000,24.290,3.295,209.800,36.850,6.892,1.710,358.900,98.400,21.040,5.649,hard
1383.000,264.300,51.580,8.159,1234.000,148.900,24.400,3.324,212.500,36.480,6.885,1.703,359.500,98.600,21.160,5.659,hard
1385.000,265.400,50.890,8.200,1232.000,149.500,24.410,3.323,210.900,36.810,6.866,1.700,358.600,97.500,20.880,5.561,hard
1379.000,264.400,50.620,8.052,1228.000,148.900,24.170,3.286,210.200,36.590,6.794,1.686,355.400,96.990,20.740,5.521,hard
1375.000,263.400,50.320,7.998,1231.000,148.600,24.290,3.272,210.400,36.410,6.810,1.683,355.200,96.670,20.730,5.502,hard
1373.000,262.200,50.300,8.044,1229.000,148.600,24.000,3.263,206.500,36.190,6.842,1.688,354.800,96.520,20.690,5.502,hard
1373.000,262.300,50.270,8.035,1222.000,148.700,24.120,3.278,210.100,36.390,6.841,1.681,354.000,96.370,20.730,5.509,hard
1374.000,263.900,50.540,8.044,1234.000,148.500,24.180,3.277,210.700,36.440,6.825,1.681,354.600,96.550,20.780,5.521,hard
1374.000,263.900,50.460,8.008,1234.000,149.000,24.110,3.312,209.300,36.840,6.839,1.688,355.400,96.760,20.720,5.557,hard
1374.000,263.600,50.280,8.038,1230.000,148.200,24.170,3.275,208.600,36.520,6.798,1.676,355.200,97.020,20.820,5.548,hard
1377.000,262.600,50.620,8.096,1233.000,148.600,24.230,3.287,211.100,36.230,6.814,1.682,356.400,97.270,20.920,5.584,hard
1377.000,264.200,50.510,8.088,1236.000,149.700,24.190,3.293,210.000,36.330,6.804,1.688,357.000,97.280,20.840,5.611,hard
1378.000,263.300,50.670,8.075,1228.000,149.200,24.190,3.329,211.000,36.620,6.831,1.691,357.000,97.640,21.020,5.638,hard
1381.000,263.200,50.790,8.133,1230.000,148.800,24.380,3.318,208.400,36.410,6.848,1.685,358.300,98.130,21.050,5.663,hard
1383.000,265.600,51.650,8.163,1237.000,148.700,24.190,3.302,209.000,36.290,6.832,1.692,358.900,97.940,20.950,5.594,hard
1379.000,264.600,50.740,8.065,1228.000,148.800,24.290,3.273,209.500,36.110,6.776,1.674,354.600,96.720,20.700,5.529,hard
1374.000,264.300,50.700,8.043,1225.000,148.000,24.000,3.283,210.500,36.140,6.782,1.670,354.300,96.460,20.630,5.487,hard
1372.000,262.400,50.240,8.070,1224.000,148.900,24.160,3.232,207.000,36.150,6.758,1.660,353.800,96.310,20.740,5.496,hard
1370.000,263.600,50.260,7.945,1228.000,148.600,24.300,3.285,208.800,36.010,6.733,1.666,353.600,96.460,20.570,5.505,hard
1371.000,262.100,50.020,8.013,1230.000,148.900,24.180,3.247,207.600,36.080,6.780,1.663,353.700,96.380,20.680,5.500,hard
1373.000,262.700,50.430,7.985,1228.000,148.500,24.280,3.305,210.200,35.980,6.763,1.666,354.300,96.470,20.750,5.510,hard
1373.000,262.900,50.730,8.063,1232.000,148.500,24.120,3.278,206.700,36.010,6.771,1.667,355.500,96.690,20.810,5.538,hard
1374.000,264.200,50.820,8.041,1232.000,148.700,24.250,3.276,208.800,36.250,6.789,1.675,355.300,96.860,20.840,5.563,hard
1375.000,265.100,50.680,8.055,1232.000,148.600,24.170,3.260,208.000,36.280,6.805,1.668,356.100,96.990,20.920,5.573,hard
1377.000,264.600,50.710,8.142,1229.000,148.900,24.200,3.312,207.300,36.060,6.786,1.677,357.000,97.310,20.980,5.627,hard
1377.000,264.200,50.810,8.091,1228.000,148.300,24.240,3.259,208.500,36.080,6.772,1.672,357.500,97.650,21.000,5.631,hard
1382.000,265.200,50.760,8.150,1234.000,148.700,24.370,3.304,210.500,36.030,6.799,1.690,359.200,98.190,21.070,5.655,hard
1382.000,266.000,50.900,8.172,1231.000,148.900,24.040,3.237,210.200,36.320,6.813,1.674,357.200,97.560,20.860,5.552,hard
1374.000,262.700,50.110,8.003,1227.000,148.700,24.170,3.251,208.500,35.950,6.763,1.667,354.400,96.680,20.830,5.540,hard
1370.000,263.900,50.090,7.985,1224.000,147.700,24.030,3.233,208.900,35.790,6.738,1.664,353.800,96.310,20.740,5.487,hard
1367.000,261.000,49.930,7.997,1223.000,148.000,24.040,3.242,207.100,35.900,6.737,1.657,353.500,96.490,20.700,5.523,hard
1365.000,262.300,50.010,7.939,1224.000,149.000,23.930,3.233,208.900,36.060,6.714,1.655,352.900,96.410,20.640,5.524,hard
1363.000,259.500,49.920,7.917,1229.000,148.400,24.150,3.259,206.500,35.890,6.723,1.654,353.800,96.220,20.740,5.509,hard
1363.000,259.900,50.080,7.983,1221.000,147.400,24.130,3.291,207.400,35.850,6.707,1.674,354.300,96.320,20.720,5.536,hard
1364.000,261.700,50.210,7.991,1221.000,148.400,23.950,3.283,205.500,36.050,6.736,1.665,353.800,96.880,20.770,5.568,hard
1365.000,259.700,50.340,8.047,1221.000,147.300,24.060,3.244,209.400,36.080,6.747,1.655,354.800,97.050,20.910,5.588,hard
1367.000,260.600,49.970,8.017,1229.000,147.400,24.140,3.245,207.700,35.810,6.780,1.667,355.700,97.590,20.980,5.626,hard
1369.000,259.600,50.250,8.072,1231.000,148.200,23.910,3.265,208.200,35.930,6.720,1.676,356.900,97.550,20.970,5.633,hard
1370.000,263.100,50.080,8.095,1227.000,148.500,24.180,3.252,207.300,35.860,6.759,1.675,357.300,98.120,21.090,5.657,hard
1373.000,263.800,50.570,8.123,1227.000,148.300,24.040,3.286,206.800,35.680,6.763,1.671,357.900,98.290,21.190,5.712,hard
1375.000,264.300,50.510,8.104,1228.000,148.300,24.310,3.271,207.900,36.220,6.797,1.685,359.100,98.060,21.060,5.618,hard
1371.000,262.000,50.110,8.098,1227.000,147.000,24.070,3.256,207.500,36.010,6.720,1.654,354.900,96.790,20.890,5.561,hard
1363.000,261.600,49.860,7.971,1223.000,147.800,24.160,3.272,208.800,35.830,6.673,1.655,354.300,96.730,20.750,5.537,hard
1360.000,260.100,49.680,7.990,1228.000,147.700,23.950,3.259,206.300,35.710,6.722,1.657,353.400,96.860,20.750,5.536,hard
1360.000,260.600,49.890,7.988,1225.000,146.700,24.110,3.242,206.400,35.730,6.696,1.646,353.600,96.450,20.750,5.506,hard
1358.000,259.500,50.030,7.956,1217.000,147.400,23.890,3.226,207.600,36.020,6.710,1.655,353.800,96.750,20.870,5.560,hard
1360.000,260.200,49.820,7.995,1216.000,148.100,23.990,3.269,206.900,35.570,6.710,1.643,354.100,96.840,20.840,5.570,hard
1360.000,261.400,50.040,7.968,1228.000,147.600,23.910,3.252,207.600,35.480,6.708,1.650,355.200,97.410,20.890,5.586,hard
1362.000,260.400,50.000,8.015,1222.000,147.800,23.990,3.246,207.400,35.700,6.713,1.665,355.300,97.000,20.880,5.588,hard
1363.000,262.700,49.890,8.031,1225.000,148.200,24.060,3.260,204.700,35.670,6.727,1.652,356.200,97.210,20.970,5.615,hard
1364.000,261.700,50.220,8.059,1224.000,148.100,24.130,3.279,206.300,35.660,6.738,1.653,357.600,97.610,21.020,5.646,hard
1364.000,262.000,49.840,8.042,1225.000,147.700,24.170,3.260,207.300,35.770,6.761,1.664,358.200,98.210,21.170,5.686,hard
1367.000,261.300,51.060,8.124,1224.000,148.400,24.340,3.322,207.500,35.930,6.713,1.671,358.400,98.210,21.190,5.715,hard
1369.000,263.400,50.570,8.126,1224.000,148.900,24.080,3.290,208.300,36.050,6.778,1.675,359.800,98.560,21.190,5.656,hard
1366.000,262.700,49.860,8.054,1224.000,147.900,24.140,3.292,205.200,35.940,6.698,1.652,355.000,97.120,20.910,5.561,hard
1360.000,262.000,50.440,7.938,1230.000,147.500,24.140,3.271,203.700,35.860,6.645,1.641,354.700,97.150,20.850,5.558,hard
1356.000,260.700,50.030,7.983,1220.000,146.700,23.920,3.279,206.300,35.720,6.685,1.636,354.300,96.990,20.760,5.578,hard
1357.000,258.800,50.030,7.908,1219.000,147.300,24.110,3.250,206.000,35.620,6.681,1.635,353.800,96.850,20.770,5.546,hard
1354.000,260.200,50.010,7.888,1223.000,147.700,24.110,3.245,207.600,35.670,6.694,1.633,354.500,96.630,20.820,5.576,hard
1356.000,259.600,49.480,7.990,1220.000,147.900,23.900,3.272,206.800,35.720,6.685,1.645,355.000,97.060,21.000,5.576,hard
1357.000,259.800,49.770,7.987,1229.000,148.000,23.940,3.253,206.200,35.860,6.681,1.650,355.100,97.200,20.990,5.613,hard
1358.000,259.300,49.800,8.069,1223.000,147.700,24.040,3.265,207.500,35.660,6.681,1.651,357.000,97.470,21.020,5.640,hard
1360.000,259.800,50.220,7.987,1220.000,147.800,24.060,3.255,205.800,35.800,6.671,1.661,357.100,97.770,20.970,5.645,hard
1361.000,261.100,49.960,8.041,1227.000,148.300,24.180,3.294,206.800,35.910,6.710,1.656,357.300,98.030,21.130,5.682,hard
1363.000,263.900,49.900,8.063,1226.000,147.900,23.940,3.242,207.600,35.990,6.671,1.664,358.400,98.340,21.190,5.690,hard
1366.000,261.500,50.360,8.223,1230.000,147.800,24.170,3.272,207.300,35.550,6.721,1.666,359.200,98.690,21.300,5.740,hard
1368.000,262.400,50.390,8.073,1221.000,147.700,24.280,3.300,208.300,35.870,6.737,1.675,360.400,98.790,21.290,5.720,hard
1367.000,261.300,50.120,8.039,1226.000,147.700,24.120,3.260,206.500,36.080,6.677,1.653,356.000,97.750,20.990,5.614,hard
1359.000,260.500,50.000,8.025,1223.000,148.700,23.910,3.264,204.000,35.720,6.708,1.642,355.800,97.300,20.930,5.586,hard
1356.000,260.200,49.890,7.939,1224.000,147.700,23.960,3.263,207.000,35.820,6.671,1.632,356.000,97.070,20.910,5.560,hard
1356.000,260.000,49.860,7.964,1220.000,148.100,23.890,3.276,203.300,35.640,6.654,1.635,354.700,97.020,20.830,5.553,hard
1354.000,259.500,49.840,7.949,1220.000,147.100,23.910,3.241,205.400,35.360,6.648,1.640,354.600,96.790,20.940,5.574,hard
1354.000,261.900,49.970,7.994,1225.000,147.200,24.020,3.270,205.500,35.620,6.655,1.644,355.400,97.520,20.940,5.596,hard
1355.000,259.000,49.780,7.945,1219.000,147.300,24.130,3.226,206.000,35.570,6.652,1.637,355.600,97.610,21.010,5.630,hard
1358.000,260.100,49.970,8.017,1222.000,147.600,24.240,3.253,206.300,35.610,6.686,1.649,357.300,97.790,21.090,5.649,hard
1358.000,262.100,49.520,8.075,1224.000,148.100,24.180,3.286,205.000,35.270,6.671,1.653,357.400,98.070,21.150,5.674,hard
1359.000,261.600,49.900,8.079,1222.000,148.200,24.070,3.279,204.800,35.680,6.650,1.658,358.100,98.410,21.180,5.717,hard
1363.000,262.200,50.550,8.075,1228.000,147.900,24.150,3.275,208.300,35.770,6.669,1.650,359.300,98.690,21.280,5.746,hard
1365.000,262.200,50.430,8.055,1230.000,148.200,24.290,3.272,205.900,35.890,6.697,1.659,360.100,98.860,21.290,5.762,hard
1367.000,261.900,50.080,8.138,1222.000,147.500,24.190,3.272,203.800,35.650,6.707,1.660,361.600,99.440,21.460,5.739,hard
1368.000,261.400,50.400,8.068,1230.000,148.500,24.070,3.280,207.900,35.820,6.665,1.639,357.700,97.940,21.060,5.632,hard
1360.000,261.000,50.090,8.059,1218.000,148.200,24.120,3.258,204.600,35.360,6.613,1.639,355.900,97.550,21.060,5.589,hard
1356.000,260.900,49.820,8.004,1222.000,148.300,24.010,3.271,206.300,35.740,6.678,1.629,356.800,97.360,20.960,5.602,hard
1356.000,261.100,49.870,7.981,1222.000,147.900,24.070,3.269,203.300,35.390,6.632,1.628,356.500,97.460,20.960,5.571,hard
1354.000,259.800,49.640,7.981,1221.000,148.500,24.160,3.252,204.000,35.460,6.613,1.631,355.300,97.280,20.980,5.602,hard
1355.000,259.600,50.050,7.952,1222.000,147.900,23.910,3.248,203.800,35.470,6.630,1.635,356.300,97.540,20.990,5.627,hard
1356.000,262.700,50.130,7.950,1223.000,147.300,24.140,3.251,206.500,35.400,6.653,1.635,357.100,97.850,21.020,5.630,hard
1359.000,260.600,49.890,8.053,1216.000,147.500,24.260,3.257,204.600,35.500,6.603,1.631,357.400,97.940,21.070,5.628,hard
1360.000,259.600,50.050,8.057,1228.000,148.000,24.250,3.266,207.500,35.380,6.654,1.648,358.100,98.290,21.190,5.645,hard
1361.000,262.100,50.390,8.051,1227.000,148.100,24.080,3.264,205.400,35.390,6.677,1.643,358.800,98.620,21.220,5.703,hard
1362.000,261.900,50.340,8.070,1227.000,147.600,24.190,3.270,203.700,35.250,6.659,1.644,360.100,98.730,21.200,5.725,hard
1365.000,262.300,50.430,8.144,1226.000,148.200,24.170,3.284,206.500,35.760,6.653,1.652,360.400,99.270,21.370,5.747,hard
1367.000,264.400,50.580,8.083,1228.000,149.000,24.130,3.272,207.500,35.750,6.675,1.644,360.000,98.470,21.200,5.670,hard
1361.000,260.700,50.280,8.009,1226.000,148.400,24.120,3.284,203.300,35.310,6.610,1.624,356.800,97.630,20.950,5.571,hard
1354.000,258.100,49.640,7.976,1215.000,147.800,24.060,3.240,203.400,35.280,6.613,1.629,355.400,97.200,20.950,5.571,hard
1353.000,259.600,49.850,7.922,1221.000,147.900,24.040,3.245,203.800,35.090,6.622,1.618,355.000,97.310,20.870,5.548,hard
1353.000,259.100,49.860,7.877,1221.000,147.400,24.240,3.246,202.700,35.380,6.604,1.621,354.500,97.150,20.900,5.569,hard
1351.000,259.000,49.760,7.922,1221.000,146.800,23.950,3.247,204.700,35.270,6.599,1.622,355.000,97.340,20.890,5.584,hard
1354.000,261.100,49.990,7.913,1221.000,147.300,23.940,3.217,203.500,35.150,6.593,1.636,355.400,97.600,20.950,5.581,hard
1355.000,259.800,50.100,7.983,1222.000,148.400,24.000,3.260,204.900,35.070,6.618,1.624,356.400,97.710,20.990,5.608,hard
1355.000,260.300,50.140,7.940,1225.000,147.800,24.110,3.258,205.400,35.230,6.594,1.627,357.400,97.790,20.990,5.638,hard
1357.000,261.900,49.570,8.018,1223.000,148.300,24.230,3.258,202.600,35.330,6.629,1.620,357.300,97.990,21.120,5.656,hard
1360.000,261.000,49.990,8.089,1228.000,147.500,24.210,3.281,202.400,35.550,6.651,1.631,358.400,98.280,21.200,5.686,hard
1349.000,259.600,49.740,7.910,1222.000,147.400,24.050,3.257,201.300,35.310,6.605,1.610,354.900,96.950,20.830,5.560,bogus
1351.000,258.800,49.510,7.914,1226.000,148.500,23.980,3.252,204.400,35.000,6.572,1.626,355.500,97.170,20.870,5.554,bogus
1352.000,259.400,49.690,8.000,1227.000,147.800,24.090,3.250,202.700,35.090,6.559,1.621,355.200,97.420,20.880,5.589,bogus
1353.000,259.100,50.460,7.999,1227.000,147.700,24.160,3.269,203.200,35.170,6.618,1.621,356.100,97.400,20.970,5.584,bogus
1354.000,260.700,49.670,7.951,1220.000,148.200,24.240,3.257,204.100,35.360,6.598,1.628,356.700,97.660,20.970,5.602,bogus
1324.000,252.600,48.750,7.995,1219.000,146.500,24.290,3.355,192.500,33.730,6.367,1.574,343.400,94.210,20.290,5.478,hard
1325.000,254.300,48.960,7.981,1213.000,146.600,24.250,3.363,194.700,34.090,6.382,1.584,344.500,94.820,20.420,5.494,hard
1327.000,255.100,48.960,7.929,1215.000,146.900,24.290,3.348,193.400,33.840,6.395,1.585,345.600,95.150,20.430,5.516,hard
1330.000,254.100,49.190,7.918,1216.000,146.500,24.100,3.389,193.300,34.030,6.385,1.578,342.300,94.200,20.140,5.369,hard
1319.000,251.800,48.810,7.861,1205.000,146.200,24.040,3.380,193.700,33.710,6.316,1.553,340.500,93.250,20.000,5.326,hard
1316.000,252.500,48.450,7.882,1208.000,145.700,24.110,3.345,192.200,34.050,6.329,1.563,339.700,93.140,19.890,5.317,hard
1315.000,253.500,48.830,7.850,1210.000,145.200,24.150,3.340,192.300,33.460,6.313,1.563,339.300,92.940,19.970,5.322,hard
1313.000,250.200,48.660,7.773,1211.000,145.800,24.080,3.313,193.300,33.700,6.338,1.563,339.000,92.770,19.910,5.315,hard
1313.000,251.500,48.160,7.881,1209.000,146.500,24.020,3.301,192.400,33.700,6.332,1.569,340.200,93.100,19.970,5.343,hard
1314.000,253.700,48.040,7.834,1203.000,145.300,24.170,3.324,193.500,33.920,6.343,1.569,340.500,93.590,20.000,5.354,hard
1315.000,252.000,48.540,7.851,1211.000,146.300,24.340,3.323,192.600,34.000,6.355,1.571,341.800,93.720,20.140,5.382,hard
1318.000,251.900,48.860,7.964,1206.000,145.900,24.210,3.364,193.300,33.750,6.370,1.573,342.100,93.950,20.200,5.426,hard
1319.000,253.300,48.740,7.901,1209.000,146.000,24.410,3.389,194.400,33.720,6.393,1.580,341.800,94.220,20.180,5.457,hard
1320.000,253.000,49.060,8.010,1212.000,146.800,24.260,3.375,193.200,33.870,6.396,1.582,344.500,94.720,20.330,5.452,hard
1322.000,252.600,48.810,7.859,1210.000,146.100,24.120,3.332,193.000,33.660,6.386,1.573,340.300,93.670,19.990,5.318,hard
1312.000,251.900,48.030,7.832,1209.000,145.800,24.070,3.319,190.700,33.740,6.349,1.567,338.600,92.670,19.820,5.286,hard
1310.000,248.700,48.070,7.786,1204.000,145.400,23.960,3.355,190.900,33.760,6.364,1.553,339.300,92.560,19.830,5.282,hard
1309.000,250.500,48.320,7.733,1209.000,146.300,24.110,3.343,194.100,33.730,6.344,1.560,338.100,92.600,19.770,5.245,hard
1306.000,249.400,48.150,7.774,1207.000,146.100,24.120,3.338,193.200,33.600,6.318,1.562,338.400,92.500,19.800,5.265,hard
1307.000,250.000,48.040,7.747,1204.000,145.800,24.280,3.355,193.700,33.470,6.343,1.564,338.800,93.020,19.860,5.297,hard
1308.000,250.600,48.610,7.794,1201.000,145.700,24.130,3.350,190.300,33.740,6.352,1.574,339.100,93.000,19.930,5.298,hard
1311.000,252.100,48.460,7.857,1207.000,146.100,24.170,3.343,192.700,33.720,6.360,1.562,340.700,93.210,19.970,5.331,hard
1311.000,253.100,48.570,7.894,1210.000,145.800,24.220,3.338,194.600,33.800,6.351,1.579,342.100,93.620,19.980,5.375,hard
1312.000,252.000,48.810,7.906,1211.000,145.700,24.090,3.351,194.500,33.850,6.389,1.576,342.100,94.000,20.190,5.401,hard
1315.000,252.700,48.820,7.847,1205.000,146.700,24.170,3.368,194.800,33.810,6.366,1.586,343.800,94.600,20.280,5.430,hard
1317.000,253.300,48.760,7.910,1211.000,146.000,23.970,3.346,193.600,34.170,6.425,1.580,342.700,94.360,20.010,5.333,hard
1311.000,249.800,48.370,7.776,1208.000,146.200,24.200,3.320,191.500,33.790,6.376,1.563,339.600,92.640,19.740,5.241,hard
1305.000,248.600,48.630,7.760,1203.000,146.400,24.090,3.282,194.500,33.780,6.351,1.559,339.100,92.470,19.810,5.256,hard
1303.000,249.400,47.880,7.779,1206.000,145.900,24.000,3.325,194.000,33.610,6.345,1.563,339.400,92.620,19.680,5.244,hard
1303.000,248.800,47.710,7.721,1197.000,145.100,24.180,3.307,193.400,33.310,6.365,1.572,338.900,92.710,19.780,5.239,hard
1302.000,247.900,48.530,7.760,1208.000,145.700,24.070,3.303,194.000,33.830,6.338,1.567,340.300,92.820,19.840,5.269,hard
1304.000,249.800,48.010,7.771,1202.000,145.900,24.090,3.291,194.200,33.920,6.354,1.572,340.800,93.120,19.830,5.283,hard
1304.000,250.000,48.070,7.817,1207.000,145.300,24.160,3.299,192.600,33.900,6.357,1.570,341.900,93.320,19.950,5.319,hard
1307.000,250.500,48.680,7.842,1209.000,145.400,24.040,3.332,193.600,33.930,6.366,1.573,341.300,93.700,19.960,5.340,hard
1308.000,251.500,48.790,7.808,1205.000,146.700,24.050,3.336,196.000,34.060,6.393,1.586,343.000,93.900,20.080,5.372,hard
1310.000,251.600,48.820,7.892,1205.000,146.200,24.310,3.350,193.800,34.090,6.401,1.586,344.000,94.500,20.190,5.411,hard
1313.000,251.800,48.420,7.883,1215.000,145.900,24.220,3.340,196.600,34.100,6.444,1.584,345.000,95.000,20.280,5.446,hard
1315.000,253.600,48.170,7.892,1206.000,145.800,24.030,3.347,193.500,34.090,6.419,1.583,343.400,94.020,20.000,5.344,hard
1305.000,248.900,48.150,7.771,1205.000,146.300,23.920,3.330,195.100,33.910,6.374,1.567,341.100,93.140,19.820,5.282,hard
1301.000,249.800,47.910,7.714,1205.000,147.000,24.030,3.334,193.100,33.780,6.347,1.566,341.100,92.630,19.860,5.234,hard
1300.000,249.600,47.930,7.713,1208.000,145.000,23.940,3.288,195.900,33.910,6.369,1.568,341.100,93.030,19.720,5.267,hard
1298.000,250.300,48.140,7.679,1206.000,145.800,24.050,3.306,194.400,33.850,6.333,1.573,340.600,92.920,19.770,5.267,hard
1299.000,248.400,48.250,7.720,1205.000,145.400,24.060,3.356,194.100,33.730,6.383,1.568,341.700,93.140,19.910,5.291,hard
1300.000,249.900,48.130,7.792,1202.000,146.000,24.140,3.331,194.300,33.980,6.403,1.578,342.800,93.150,19.960,5.295,hard
1300.000,249.500,47.850,7.758,1207.000,146.300,24.080,3.304,194.400,34.020,6.397,1.590,342.300,93.260,19.940,5.306,hard
1302.000,248.700,48.060,7.852,1207.000,145.300,24.100,3.294,196.800,34.100,6.387,1.583,343.300,93.680,19.970,5.355,hard
1304.000,252.300,48.220,7.818,1203.000,145.100,24.120,3.348,195.300,34.080,6.414,1.587,344.200,94.100,20.040,5.358,hard
1305.000,249.200,48.470,7.815,1209.000,145.900,24.110,3.336,195.000,34.150,6.457,1.588,345.400,94.410,20.160,5.387,hard
1308.000,249.900,48.330,7.874,1206.000,146.000,23.970,3.325,197.100,34.100,6.431,1.602,346.000,94.820,20.330,5.405,hard
1309.000,251.200,48.320,7.800,1208.000,146.600,24.010,3.343,193.200,34.280,6.444,1.595,343.800,93.840,20.000,5.279,hard
1299.000,249.700,48.210,7.673,1204.000,145.200,24.160,3.318,195.300,34.040,6.414,1.568,341.600,93.060,19.790,5.260,hard
1297.000,247.500,47.540,7.734,1204.000,145.700,23.870,3.335,193.400,33.930,6.394,1.571,340.900,92.810,19.760,5.257,hard
1294.000,247.400,47.430,7.663,1199.000,145.700,23.950,3.322,195.200,33.900,6.420,1.579,342.100,92.980,19.790,5.246,hard
1292.000,246.600,47.380,7.659,1206.000,145.400,23.880,3.287,194.200,33.870,6.381,1.575,341.000,92.990,19.800,5.251,hard
1294.000,249.900,47.320,7.625,1209.000,145.100,23.730,3.319,193.300,33.870,6.420,1.586,342.000,93.100,19.810,5.281,hard
1293.000,247.800,47.870,7.693,1201.000,144.600,24.000,3.305,195.500,34.170,6.393,1.582,341.900,93.470,19.910,5.272,hard
1294.000,248.000,47.210,7.741,1203.000,146.400,24.000,3.326,195.500,34.180,6.403,1.590,343.000,93.450,19.850,5.287,hard
1295.000,249.400,47.960,7.756,1202.000,146.200,24.060,3.298,196.100,33.960,6.438,1.598,344.300,93.670,19.970,5.340,hard
1296.000,249.100,47.810,7.737,1205.000,145.300,24.100,3.312,195.400,34.080,6.422,1.596,344.400,94.000,20.070,5.366,hard
1297.000,250.000,48.190,7.782,1208.000,145.800,23.950,3.344,194.100,34.130,6.473,1.611,345.100,94.120,20.120,5.376,hard
1299.000,250.900,48.360,7.792,1200.000,145.400,24.050,3.339,196.000,34.190,6.489,1.605,346.200,94.710,20.190,5.411,hard
1299.000,251.000,48.020,7.779,1206.000,145.200,23.940,3.326,196.100,34.310,6.465,1.606,343.800,93.780,19.890,5.275,hard
1293.000,249.000,47.930,7.621,1203.000,145.200,23.950,3.295,195.200,34.030,6.445,1.579,342.100,93.000,19.800,5.247,hard
1288.000,247.800,47.900,7.657,1202.000,144.800,23.800,3.307,195.900,33.840,6.382,1.582,341.600,93.110,19.790,5.246,hard
1290.000,247.100,47.760,7.741,1208.000,145.100,23.970,3.269,196.800,34.030,6.445,1.589,341.400,92.960,19.870,5.260,hard
1289.000,246.600,47.900,7.638,1202.000,145.100,24.160,3.322,193.500,34.170,6.401,1.580,342.400,92.920,19.840,5.249,hard
1290.000,248.000,47.590,7.671,1201.000,145.000,23.900,3.320,194.200,33.870,6.414,1.588,342.300,93.040,19.830,5.302,hard
1291.000,248.300,47.840,7.742,1201.000,145.600,23.980,3.320,197.000,33.970,6.418,1.597,342.300,93.770,19.940,5.295,hard
1291.000,248.800,47.930,7.681,1205.000,145.900,24.100,3.331,194.700,33.740,6.414,1.588,343.700,93.520,20.050,5.303,hard
1293.000,247.900,48.270,7.784,1203.000,145.900,24.090,3.359,195.100,33.980,6.404,1.590,344.300,93.940,20.020,5.357,hard
1295.000,249.900,48.020,7.820,1203.000,145.500,24.080,3.334,193.500,34.080,6.433,1.599,345.100,94.020,20.090,5.349,hard
1296.000,250.100,47.730,7.803,1199.000,145.300,24.110,3.285,195.600,34.090,6.443,1.592,347.000,94.570,20.130,5.406,hard
1298.000,250.000,48.640,7.789,1207.000,145.000,24.070,3.346,194.700,34.130,6.458,1.600,347.800,94.750,20.210,5.416,hard
1299.000,250.800,48.330,7.652,1202.000,145.400,23.920,3.301,195.100,34.000,6.452,1.598,344.300,93.640,19.920,5.290,hard
1292.000,247.900,47.540,7.682,1207.000,145.200,23.850,3.305,196.300,34.150,6.377,1.592,342.100,93.340,19.890,5.282,hard
1291.000,247.700,47.990,7.740,1202.000,145.000,23.720,3.316,194.200,34.030,6.434,1.581,342.200,93.050,19.860,5.280,hard
1290.000,248.400,47.620,7.664,1198.000,144.600,23.920,3.268,195.000,34.280,6.404,1.578,342.300,93.150,19.800,5.270,hard
1290.000,247.500,47.420,7.628,1198.000,144.900,24.010,3.292,195.200,33.950,6.387,1.579,342.100,93.220,19.920,5.240,hard
1291.000,248.800,47.960,7.660,1201.000,144.800,23.960,3.288,194.600,34.100,6.409,1.583,342.600,93.520,19.890,5.280,hard
1292.000,247.900,47.760,7.668,1204.000,144.900,23.940,3.318,193.700,34.130,6.395,1.585,343.600,93.550,19.950,5.330,hard
1293.000,248.100,47.580,7.740,1202.000,146.300,24.040,3.303,194.000,33.800,6.396,1.599,344.300,93.720,20.030,5.340,hard
1295.000,248.800,47.920,7.711,1207.000,145.900,24.020,3.303,194.500,33.910,6.409,1.589,344.700,94.030,20.120,5.363,hard
1298.000,248.700,47.770,7.756,1202.000,145.200,23.990,3.318,191.900,33.950,6.419,1.598,346.300,94.560,20.120,5.375,hard
1300.000,250.500,48.320,7.755,1202.000,145.200,24.050,3.312,194.300,34.090,6.451,1.595,347.300,94.830,20.190,5.440,hard
1302.000,251.300,48.070,7.779,1211.000,145.900,24.130,3.335,196.000,34.150,6.506,1.607,348.300,95.310,20.300,5.403,hard
1301.000,250.200,48.180,7.763,1198.000,145.800,23.920,3.255,196.100,34.280,6.429,1.587,343.600,93.920,19.980,5.300,hard
1293.000,247.300,47.390,7.697,1200.000,145.000,23.910,3.297,195.100,34.110,6.431,1.578,343.700,93.550,19.950,5.266,hard
1291.000,248.400,47.550,7.602,1202.000,145.000,24.100,3.291,193.800,33.950,6.380,1.588,343.300,93.400,19.900,5.280,hard
1292.000,247.300,47.750,7.670,1199.000,145.100,23.900,3.310,193.000,33.870,6.402,1.572,342.900,93.220,19.860,5.293,hard
1292.000,248.900,47.240,7.717,1203.000,145.000,23.980,3.277,193.100,33.870,6.385,1.577,343.600,93.500,19.920,5.273,hard
1291.000,248.800,47.670,7.650,1200.000,144.200,23.920,3.253,193.200,33.940,6.381,1.589,343.700,93.320,19.990,5.308,hard
1295.000,247.100,47.590,7.646,1203.000,144.600,23.940,3.315,195.800,33.870,6.429,1.583,344.500,93.820,19.970,5.332,hard
1296.000,248.600,47.980,7.761,1202.000,145.500,23.810,3.312,194.000,34.060,6.407,1.593,344.600,93.900,20.010,5.345,hard
1296.000,249.200,48.030,7.733,1203.000,145.400,23.970,3.313,192.800,33.920,6.448,1.591,345.900,94.350,20.150,5.368,hard
1300.000,249.200,48.480,7.744,1204.000,144.300,23.960,3.284,194.300,34.140,6.452,1.594,347.100,94.450,20.180,5.395,hard
1301.000,249.400,48.680,7.765,1208.000,146.100,23.880,3.298,197.300,34.320,6.466,1.609,348.300,94.850,20.270,5.423,hard
1303.000,251.800,48.530,7.793,1203.000,145.600,24.070,3.321,195.600,34.240,6.453,1.607,348.000,95.110,20.230,5.409,hard
1302.000,248.500,48.520,7.711,1208.000,145.400,23.670,3.275,196.800,33.990,6.421,1.583,345.000,93.780,20.000,5.324,hard
1296.000,247.400,47.470,7.664,1208.000,145.100,23.860,3.282,194.200,33.840,6.403,1.587,344.500,93.610,19.920,5.288,hard
1295.000,247.800,47.660,7.670,1204.000,145.900,23.980,3.273,192.800,33.730,6.417,1.578,343.000,93.470,19.980,5.308,hard
1294.000,248.800,47.810,7.641,1204.000,145.200,23.930,3.264,194.300,34.220,6.411,1.577,343.400,93.220,19.870,5.260,hard
1293.000,248.600,47.620,7.593,1202.000,146.200,23.800,3.284,195.000,34.240,6.411,1.584,342.700,93.380,19.950,5.290,hard
1294.000,247.500,47.690,7.589,1206.000,146.000,23.870,3.290,195.000,33.900,6.428,1.588,343.300,93.590,20.000,5.354,hard
1295.000,248.600,47.990,7.670,1205.000,144.700,23.950,3.273,195.800,33.990,6.406,1.583,344.300,93.840,20.140,5.348,hard
1297.000,247.900,47.870,7.800,1199.000,145.400,24.010,3.309,193.700,34.030,6.424,1.582,345.100,94.170,20.150,5.366,hard
1299.000,249.500,48.410,7.748,1201.000,145.900,23.930,3.299,194.500,34.260,6.414,1.592,345.400,94.430,20.150,5.400,hard
1302.000,251.500,48.350,7.680,1209.000,145.200,24.030,3.290,195.400,33.990,6.448,1.593,346.600,94.640,20.310,5.404,hard
1304.000,250.300,48.440,7.887,1209.000,145.600,24.030,3.340,196.000,34.340,6.433,1.590,347.800,95.080,20.290,5.447,hard
1306.000,251.600,48.420,7.890,1209.000,146.500,24.070,3.304,194.200,34.230,6.445,1.604,348.100,95.320,20.410,5.477,hard
1307.000,251.400,48.360,7.803,1205.000,145.500,24.110,3.285,195.900,33.970,6.386,1.600,346.300,94.060,20.140,5.335,hard
1299.000,248.700,48.030,7.733,1205.000,145.500,23.800,3.280,194.500,33.760,6.394,1.567,343.700,93.530,20.070,5.308,hard
1297.000,249.200,47.460,7.632,1202.000,145.200,23.830,3.256,192.700,33.880,6.379,1.575,343.300,93.480,20.020,5.307,hard
1297.000,247.600,47.410,7.727,1207.000,145.000,23.910,3.269,194.800,34.070,6.386,1.574,342.300,93.450,19.900,5.295,hard
1296.000,247.600,47.690,7.638,1203.000,145.400,23.730,3.301,193.500,33.720,6.368,1.573,342.700,93.380,19.960,5.306,hard
1297.000,248.200,47.720,7.672,1204.000,144.300,23.980,3.305,192.900,33.770,6.392,1.574,342.500,93.620,19.980,5.327,hard
1297.000,249.200,47.890,7.688,1212.000,145.100,23.880,3.298,192.300,34.030,6.384,1.577,342.800,93.820,20.110,5.340,hard
1300.000,247.600,48.270,7.705,1201.000,146.100,23.910,3.295,194.100,34.010,6.405,1.583,343.300,93.960,19.970,5.357,hard
1301.000,248.200,48.450,7.680,1209.000,145.400,23.740,3.304,194.200,34.170,6.404,1.576,344.900,94.320,20.180,5.382,hard
1304.000,250.500,48.170,7.778,1206.000,145.000,24.010,3.266,192.300,33.980,6.379,1.585,345.800,94.680,20.260,5.411,hard
1304.000,252.800,48.260,7.800,1210.000,146.200,23.940,3.253,194.000,34.140,6.392,1.584,346.600,94.690,20.250,5.423,hard
1309.000,250.100,48.380,7.822,1204.000,145.900,24.180,3.279,194.700,34.050,6.413,1.598,347.700,95.290,20.400,5.482,hard
1311.000,252.200,48.700,7.799,1211.000,146.000,23.920,3.314,194.000,34.070,6.437,1.593,344.500,94.260,20.130,5.346,hard
1301.000,248.600,48.210,7.719,1207.000,145.500,23.960,3.220,193.100,33.770,6.386,1.572,342.400,93.800,20.030,5.318,hard
1298.000,247.900,48.030,7.676,1206.000,145.300,23.950,3.269,194.200,33.800,6.368,1.572,341.400,93.490,19.980,5.302,hard
1299.000,248.500,47.250,7.699,1202.000,145.000,23.960,3.240,192.800,33.830,6.378,1.572,341.500,93.120,19.990,5.293,hard
1296.000,247.400,47.840,7.681,1200.000,145.000,23.650,3.268,192.600,33.680,6.377,1.568,341.400,93.120,19.940,5.309,hard
1297.000,247.800,47.510,7.670,1212.000,145.000,23.810,3.266,192.500,33.840,6.379,1.580,341.700,93.330,20.060,5.320,hard
1299.000,247.800,48.020,7.754,1207.000,145.400,23.860,3.272,193.700,33.840,6.340,1.569,342.400,93.510,20.070,5.343,hard
1299.000,248.600,47.530,7.690,1208.000,144.800,23.880,3.269,192.200,33.910,6.421,1.577,343.400,93.730,20.080,5.356,hard
1301.000,250.700,48.140,7.728,1208.000,146.300,23.870,3.273,193.300,33.880,6.396,1.579,343.000,93.990,20.120,5.348,hard
1302.000,249.900,48.130,7.711,1209.000,146.200,23.860,3.271,193.100,33.770,6.402,1.586,344.200,94.120,20.160,5.403,hard
1303.000,248.000,48.380,7.788,1207.000,145.400,23.910,3.304,195.100,33.960,6.377,1.586,345.200,94.660,20.250,5.437,hard
1306.000,250.400,48.570,7.768,1204.000,145.500,23.830,3.267,194.300,33.750,6.408,1.589,346.100,94.900,20.310,5.479,hard
1309.000,249.700,48.430,7.860,1211.000,145.300,23.910,3.247,196.300,34.190,6.447,1.590,346.400,94.870,20.260,5.403,hard
1304.000,250.000,47.840,7.749,1200.000,145.600,23.810,3.293,193.600,34.040,6.384,1.581,343.000,93.700,20.030,5.323,hard
1299.000,248.000,47.800,7.690,1202.000,145.000,23.740,3.222,193.400,33.910,6.389,1.566,342.200,93.340,19.990,5.299,hard
1296.000,247.400,48.000,7.653,1205.000,144.800,23.760,3.259,193.700,33.770,6.372,1.560,341.800,93.290,19.930,5.309,hard
1296.000,247.600,47.890,7.742,1200.000,144.500,23.770,3.257,192.500,33.960,6.372,1.575,341.100,93.050,19.990,5.287,hard
1294.000,249.500,48.120,7.657,1204.000,144.200,23.790,3.280,191.000,33.930,6.352,1.568,341.300,92.910,20.010,5.310,hard
1296.000,246.700,47.590,7.743,1203.000,144.500,23.680,3.268,193.600,33.660,6.384,1.571,341.400,93.450,19.930,5.347,hard
1298.000,249.200,47.400,7.723,1207.000,145.200,23.740,3.292,191.800,33.760,6.378,1.572,341.500,93.340,20.060,5.326,hard
1298.000,248.200,47.840,7.724,1200.000,145.300,23.540,3.285,192.400,33.940,6.394,1.581,342.600,93.620,20.060,5.374,hard
1300.000,248.000,48.200,7.758,1207.000,145.100,23.890,3.286,195.500,33.800,6.415,1.577,342.700,93.870,20.150,5.393,hard
1302.000,249.900,48.320,7.766,1207.000,144.500,23.780,3.254,191.000,33.950,6.372,1.584,344.000,94.340,20.230,5.403,hard
1305.000,249.900,48.460,7.767,1212.000,145.600,23.990,3.259,193.300,34.000,6.399,1.582,344.900,94.430,20.260,5.405,hard
1308.000,250.200,48.350,7.794,1209.000,145.400,23.970,3.276,192.600,34.060,6.432,1.598,346.300,95.030,20.420,5.473,hard
1309.000,251.200,48.340,7.772,1203.000,145.500,23.970,3.261,191.900,34.060,6.406,1.579,343.400,94.090,20.060,5.353,hard
1301.000,250.300,47.710,7.666,1206.000,144.800,23.920,3.274,191.700,33.760,6.346,1.567,341.800,93.610,20.020,5.321,hard
1298.000,249.200,48.040,7.680,1205.000,144.400,23.830,3.285,193.900,33.670,6.369,1.568,341.200,93.160,19.940,5.321,hard
1299.000,247.700,48.200,7.663,1203.000,144.500,23.760,3.259,192.600,33.840,6.365,1.575,341.000,93.410,19.960,5.311,hard
1297.000,245.200,47.870,7.613,1212.000,146.000,23.720,3.285,193.200,33.560,6.332,1.564,340.400,93.400,19.910,5.333,hard
1298.000,247.400,47.950,7.646,1203.000,144.600,23.820,3.260,191.600,33.640,6.371,1.578,340.900,93.570,19.990,5.343,hard
1300.000,246.600,48.020,7.695,1207.000,145.100,23.760,3.242,192.900,33.710,6.373,1.578,342.600,93.420,20.040,5.324,hard
1301.000,248.000,48.370,7.723,1204.000,145.400,23.800,3.277,192.700,34.030,6.401,1.581,342.400,93.970,20.070,5.360,hard
1302.000,251.300,48.370,7.778,1206.000,145.900,23.620,3.264,194.900,33.680,6.388,1.586,343.300,94.120,20.140,5.372,hard
1303.000,250.400,48.130,7.741,1210.000,145.800,23.970,3.251,195.100,33.590,6.382,1.592,343.600,94.190,20.170,5.420,hard
1306.000,251.800,48.730,7.833,1204.000,145.300,23.910,3.275,192.200,34.010,6.397,1.591,344.300,94.860,20.290,5.444,hard
1308.000,251.100,48.230,7.916,1217.000,145.500,24.000,3.266,192.900,33.530,6.374,1.596,344.800,94.690,20.360,5.466,hard
1311.000,250.700,48.230,7.825,1213.000,145.200,23.880,3.277,196.300,34.110,6.415,1.589,345.200,94.700,20.260,5.402,hard
1305.000,249.700,48.070,7.762,1207.000,145.000,23.910,3.266,192.200,33.670,6.407,1.579,341.600,93.650,20.030,5.310,hard
1301.000,248.800,47.890,7.758,1207.000,144.800,23.660,3.250,192.700,33.590,6.385,1.573,341.800,93.350,19.960,5.314,hard
1299.000,250.000,48.060,7.760,1205.000,145.100,23.850,3.284,191.500,33.620,6.395,1.570,341.300,93.320,20.000,5.311,hard
1299.000,248.000,48.230,7.715,1210.000,144.500,23.880,3.243,193.100,33.970,6.379,1.566,340.800,93.100,20.060,5.304,hard
1299.000,249.100,47.380,7.777,1209.000,145.000,23.790,3.281,191.800,34.000,6.360,1.576,341.200,93.430,19.940,5.313,hard
1301.000,249.700,47.840,7.784,1204.000,145.000,23.870,3.270,193.400,33.890,6.376,1.575,341.300,93.790,20.070,5.320,hard
1301.000,248.300,48.260,7.721,1202.000,145.300,23.830,3.286,191.400,33.920,6.347,1.582,343.800,93.640,20.050,5.350,hard
1303.000,250.600,48.170,7.809,1211.000,145.000,23.850,3.309,191.200,33.780,6.399,1.587,343.600,93.950,20.180,5.378,hard
1304.000,249.800,48.730,7.802,1206.000,144.600,23.950,3.262,194.600,33.890,6.447,1.584,343.400,94.230,20.210,5.383,hard
1307.000,250.100,48.160,7.847,1211.000,145.100,23.890,3.287,192.700,33.970,6.402,1.600,344.600,94.630,20.330,5.420,hard
1308.000,251.900,48.430,7.858,1212.000,145.700,23.820,3.252,192.700,34.130,6.406,1.592,344.700,94.770,20.320,5.457,hard
1310.000,252.400,48.560,7.897,1212.000,145.400,23.950,3.286,192.600,33.830,6.411,1.596,345.700,94.950,20.350,5.423,hard
1309.000,252.900,48.720,7.810,1213.000,145.100,23.760,3.285,192.000,34.070,6.394,1.588,342.200,93.620,20.080,5.339,hard
1301.000,250.100,48.340,7.810,1211.000,145.400,23.970,3.268,190.600,33.970,6.355,1.576,341.600,93.620,19.970,5.308,hard
1300.000,248.600,48.050,7.708,1209.000,145.500,23.880,3.267,191.500,33.750,6.384,1.569,341.100,93.140,19.940,5.305,hard
1298.000,250.000,48.460,7.704,1205.000,145.000,23.670,3.288,193.600,33.850,6.367,1.566,340.600,93.140,19.950,5.285,hard
1298.000,250.000,48.050,7.702,1209.000,145.000,23.800,3.257,193.100,33.710,6.381,1.574,340.900,93.140,19.950,5.300,hard
1296.000,247.900,48.000,7.772,1210.000,144.900,23.770,3.237,191.900,33.680,6.374,1.576,341.700,93.460,20.010,5.326,hard
1298.000,248.400,48.150,7.706,1207.000,145.300,23.900,3.260,191.900,33.760,6.410,1.577,342.000,93.430,20.020,5.345,hard
1300.000,250.000,48.210,7.663,1209.000,145.400,23.790,3.254,192.000,33.790,6.397,1.580,342.700,93.660,20.080,5.353,hard
1301.000,249.500,48.440,7.747,1200.000,145.400,23.870,3.295,191.500,34.190,6.391,1.593,343.500,94.160,20.090,5.384,hard
1303.000,249.800,48.650,7.761,1210.000,145.700,23.950,3.256,192.800,33.800,6.415,1.591,344.200,94.360,20.230,5.401,hard
1304.000,250.900,47.980,7.856,1209.000,145.300,23.970,3.276,193.200,33.900,6.420,1.591,345.400,94.550,20.320,5.445,hard
1307.000,251.000,48.190,7.807,1214.000,146.200,23.890,3.316,194.900,34.010,6.419,1.601,346.400,95.040,20.420,5.487,hard
1309.000,251.600,48.730,7.861,1210.000,145.100,24.040,3.259,193.100,34.210,6.453,1.599,345.600,94.670,20.270,5.401,hard
1304.000,250.700,48.290,7.682,1207.000,144.100,23.710,3.265,192.700,33.740,6.386,1.568,342.200,93.670,19.980,5.310,hard
1300.000,248.800,48.040,7.679,1202.000,144.800,23.650,3.252,192.200,34.010,6.375,1.567,342.500,93.530,19.950,5.294,hard
1296.000,248.700,47.790,7.738,1203.000,145.100,23.680,3.283,195.100,33.890,6.346,1.576,342.500,93.190,19.960,5.325,hard
1298.000,248.400,47.900,7.587,1209.000,144.900,23.830,3.224,193.700,33.660,6.383,1.586,341.700,93.230,19.900,5.284,hard
1297.000,249.300,47.820,7.743,1205.000,144.600,23.750,3.249,192.300,34.130,6.355,1.580,342.100,93.250,20.030,5.331,hard
1299.000,249.400,48.150,7.719,1201.000,145.300,23.580,3.292,193.900,34.080,6.362,1.585,342.000,93.570,20.070,5.312,hard
1301.000,249.000,48.370,7.730,1200.000,144.900,23.770,3.235,191.700,33.980,6.405,1.582,342.300,93.760,20.050,5.359,hard
1301.000,248.400,48.180,7.757,1205.000,145.100,23.680,3.291,193.500,33.910,6.394,1.582,343.200,93.890,20.060,5.348,hard
1302.000,251.600,48.380,7.818,1207.000,145.400,24.090,3.271,193.000,33.680,6.393,1.584,344.500,94.000,20.150,5.403,hard
1304.000,250.300,48.120,7.788,1201.000,145.200,23.830,3.259,194.300,34.200,6.405,1.592,343.800,94.370,20.170,5.419,hard
1306.000,249.800,48.650,7.911,1202.000,145.900,23.910,3.279,194.000,34.030,6.400,1.592,345.400,94.650,20.300,5.460,hard
1308.000,252.500,48.640,7.793,1206.000,144.700,24.040,3.278,194.100,33.660,6.410,1.603,346.800,94.910,20.270,5.428,hard
1306.000,249.600,48.320,7.738,1205.000,145.800,23.760,3.212,194.200,33.930,6.406,1.580,342.500,93.850,20.010,5.306,hard
1301.000,248.600,48.040,7.716,1198.000,145.000,23.620,3.232,194.500,33.690,6.388,1.575,341.800,93.340,20.000,5.305,hard
1298.000,249.100,48.020,7.757,1198.000,145.200,23.750,3.270,193.500,33.830,6.361,1.571,341.300,93.330,19.900,5.300,hard
1297.000,248.500,48.070,7.721,1202.000,144.000,23.930,3.258,193.200,33.750,6.377,1.571,341.200,92.910,19.880,5.291,hard
1299.000,247.800,47.910,7.669,1202.000,144.200,23.660,3.249,194.800,33.830,6.388,1.572,341.200,93.050,19.950,5.303,hard
1298.000,247.900,47.960,7.731,1208.000,144.000,23.660,3.275,193.100,33.640,6.364,1.585,342.200,93.400,19.970,5.328,hard
1300.000,249.200,48.030,7.731,1199.000,145.000,23.960,3.265,192.900,33.990,6.352,1.584,341.500,93.420,19.980,5.330,hard
1302.000,248.900,48.290,7.703,1204.000,145.000,23.770,3.248,192.500,34.030,6.375,1.576,342.800,93.780,20.120,5.349,hard
1303.000,249.300,48.120,7.844,1209.000,144.700,23.780,3.289,194.000,33.970,6.366,1.589,343.700,93.640,20.120,5.383,hard
1305.000,251.000,48.240,7.796,1207.000,144.700,23.810,3.254,193.400,34.160,6.432,1.592,343.600,94.380,20.210,5.404,hard
1306.000,252.200,48.550,7.801,1207.000,144.800,23.870,3.299,193.500,33.710,6.429,1.593,344.300,94.440,20.270,5.430,hard
1309.000,252.700,48.770,7.849,1207.000,145.200,23.870,3.272,195.300,34.190,6.396,1.580,344.300,93.980,20.170,5.377,hard
1304.000,251.100,48.300,7.731,1208.000,145.000,23.500,3.250,193.500,33.690,6.367,1.579,340.100,93.200,19.960,5.299,hard
1300.000,250.300,48.030,7.687,1206.000,145.100,23.620,3.242,193.900,33.850,6.346,1.571,341.200,92.980,19.910,5.296,hard
1298.000,248.700,48.420,7.702,1203.000,145.100,23.700,3.270,190.300,33.580,6.348,1.573,340.300,92.910,19.890,5.284,hard
1298.000,248.200,48.160,7.713,1204.000,144.500,23.660,3.219,192.800,33.890,6.373,1.564,339.500,92.840,19.880,5.286,hard
1297.000,247.800,47.870,7.700,1202.000,144.500,23.730,3.226,193.700,33.810,6.376,1.565,340.600,92.800,19.930,5.292,hard
1300.000,249.300,47.990,7.684,1208.000,144.700,23.840,3.258,194.200,33.750,6.362,1.568,340.900,93.030,19.960,5.320,hard
1301.000,251.000,48.170,7.697,1199.000,145.000,23.780,3.250,194.100,33.980,6.377,1.571,340.900,93.090,19.960,5.343,hard
1301.000,248.800,48.240,7.772,1204.000,145.100,23.780,3.226,191.500,33.610,6.368,1.570,341.800,93.280,19.980,5.345,hard
1301.000,251.100,48.580,7.797,1206.000,144.800,23.800,3.273,194.200,33.940,6.390,1.585,342.300,93.580,20.060,5.374,hard
1303.000,251.500,48.240,7.841,1203.000,144.300,23.810,3.262,193.500,33.780,6.373,1.589,343.100,94.050,20.080,5.382,hard
1304.000,250.200,48.500,7.850,1206.000,145.600,23.770,3.267,193.900,34.030,6.415,1.586,344.500,94.270,20.300,5.444,hard
1307.000,250.800,48.560,7.856,1207.000,145.000,23.840,3.260,194.600,34.160,6.399,1.582,343.200,93.750,20.010,5.337,hard
1300.000,248.700,48.480,7.689,1201.000,145.300,23.680,3.270,191.100,33.910,6.364,1.580,340.000,93.130,19.880,5.293,hard
1296.000,248.600,48.190,7.696,1202.000,144.600,23.410,3.268,191.800,33.600,6.344,1.570,339.600,92.670,19.860,5.259,hard
1295.000,247.600,48.090,7.670,1196.000,144.900,23.670,3.250,194.300,33.630,6.334,1.564,339.500,92.540,19.810,5.289,hard
1295.000,248.200,47.610,7.688,1195.000,144.200,23.710,3.249,192.800,33.660,6.339,1.571,339.100,92.460,19.820,5.286,hard
1294.000,246.200,47.530,7.707,1199.000,144.200,23.650,3.268,192.200,33.720,6.372,1.571,339.900,92.800,19.890,5.272,hard
1296.000,250.100,47.470,7.744,1194.000,143.700,23.740,3.235,193.300,33.780,6.371,1.569,341.500,92.620,19.850,5.291,hard
1296.000,249.900,47.370,7.704,1202.000,143.800,23.440,3.226,189.300,33.820,6.342,1.576,340.700,92.660,19.940,5.321,hard
1297.000,249.200,47.870,7.765,1201.000,144.400,23.730,3.253,193.700,33.760,6.332,1.575,341.100,93.300,19.910,5.330,hard
1299.000,249.400,48.160,7.734,1202.000,144.500,23.790,3.261,192.800,33.730,6.368,1.584,341.200,93.390,19.970,5.346,hard
1299.000,250.000,47.870,7.721,1205.000,144.300,23.580,3.276,192.600,33.610,6.388,1.585,343.100,93.610,20.120,5.390,hard
1302.000,248.000,48.370,7.776,1209.000,144.400,23.620,3.248,193.000,34.040,6.405,1.588,343.400,93.780,20.170,5.408,hard
1305.000,250.700,48.320,7.877,1200.000,144.200,23.700,3.247,193.600,33.990,6.370,1.583,342.900,93.610,20.010,5.328,hard
1298.000,249.400,48.160,7.691,1197.000,144.500,23.570,3.254,193.500,33.510,6.338,1.567,339.900,92.720,19.800,5.306,hard
1294.000,248.900,47.290,7.631,1200.000,144.200,23.430,3.249,191.500,33.760,6.340,1.557,339.200,92.530,19.810,5.278,hard
1292.000,248.100,47.640,7.630,1203.000,144.800,23.650,3.216,191.100,34.010,6.334,1.569,338.600,92.100,19.820,5.260,hard
1291.000,248.000,47.660,7.662,1199.000,144.000,23.530,3.253,190.700,33.760,6.306,1.560,339.300,92.350,19.730,5.254,hard
1291.000,248.300,47.720,7.639,1196.000,143.600,23.490,3.233,191.000,33.690,6.311,1.569,338.300,92.650,19.760,5.267,hard
1294.000,247.500,47.960,7.665,1199.000,144.000,23.360,3.237,192.200,33.700,6.302,1.570,340.300,92.720,19.820,5.313,hard
1295.000,249.900,47.850,7.624,1201.000,143.600,23.480,3.235,191.200,33.400,6.350,1.568,339.700,92.950,19.820,5.320,hard
1296.000,248.500,47.920,7.715,1203.000,144.100,23.500,3.224,193.200,33.600,6.318,1.573,340.800,92.870,19.890,5.327,hard
1296.000,248.000,47.720,7.751,1198.000,144.200,23.770,3.265,192.700,33.630,6.297,1.580,341.000,93.290,19.980,5.361,hard
1299.000,250.800,48.900,7.743,1201.000,144.500,23.670,3.260,192.300,33.810,6.364,1.578,342.100,93.610,20.030,5.387,hard
1300.000,250.500,48.410,7.797,1200.000,144.400,23.630,3.288,193.200,33.830,6.347,1.571,342.600,93.970,20.110,5.401,hard
1304.000,251.300,48.280,7.773,1202.000,144.000,23.770,3.226,191.700,34.010,6.345,1.586,343.700,93.880,20.020,5.362,hard
1299.000,249.300,48.380,7.742,1201.000,143.900,23.570,3.240,193.100,33.760,6.330,1.566,339.400,92.360,19.760,5.284,hard
1294.000,246.600,47.850,7.634,1199.000,143.300,23.750,3.218,192.200,33.590,6.285,1.560,338.800,92.570,19.720,5.257,hard
1293.000,247.400,47.970,7.719,1198.000,143.700,23.650,3.230,190.400,33.590,6.306,1.573,338.100,92.470,19.790,5.262,hard
1292.000,247.400,47.740,7.697,1197.000,144.100,23.650,3.229,193.100,33.360,6.324,1.567,338.000,92.040,19.800,5.266,hard
1292.000,247.900,47.210,7.648,1197.000,144.100,23.570,3.226,192.800,33.560,6.361,1.558,338.500,92.110,19.720,5.299,hard
1293.000,247.400,47.590,7.731,1200.000,144.200,23.600,3.242,192.400,33.320,6.315,1.568,340.000,92.590,19.790,5.286,hard
1295.000,246.700,48.320,7.713,1197.000,143.800,23.580,3.229,193.500,33.500,6.322,1.560,338.600,92.850,19.890,5.313,hard
1296.000,247.500,47.890,7.757,1197.000,144.100,23.530,3.216,192.200,33.570,6.315,1.566,339.800,92.930,19.880,5.336,hard
1297.000,250.600,47.720,7.738,1203.000,144.100,23.550,3.246,191.200,33.870,6.346,1.569,340.600,93.240,19.930,5.362,hard
1300.000,250.900,48.040,7.807,1201.000,144.800,23.590,3.247,192.900,33.690,6.381,1.576,342.100,93.260,20.020,5.376,hard
1301.000,249.100,48.310,7.730,1205.000,145.200,23.610,3.272,192.000,33.770,6.382,1.573,341.800,93.800,20.180,5.404,hard
1304.000,248.700,48.590,7.869,1198.000,144.000,23.600,3.268,194.400,33.690,6.385,1.577,341.800,93.610,20.050,5.337,hard
1298.000,247.200,47.900,7.746,1198.000,143.800,23.530,3.214,193.300,33.710,6.324,1.561,337.900,92.320,19.830,5.270,hard
1294.000,248.500,47.740,7.683,1198.000,143.200,23.590,3.212,192.000,33.490,6.330,1.558,337.900,92.040,19.740,5.266,hard
1291.000,249.000,47.200,7.692,1197.000,143.900,23.630,3.214,192.200,33.340,6.316,1.565,337.200,92.050,19.720,5.253,hard
1292.000,248.100,47.270,7.663,1203.000,143.600,23.680,3.194,190.100,33.690,6.279,1.563,336.900,92.360,19.720,5.244,hard
1291.000,247.400,47.650,7.640,1197.000,142.900,23.710,3.209,191.700,33.590,6.318,1.561,338.300,92.110,19.740,5.265,hard
1292.000,247.100,47.570,7.744,1198.000,144.200,23.380,3.242,193.800,33.350,6.270,1.557,338.100,92.530,19.670,5.273,hard
1294.000,247.900,47.780,7.695,1196.000,144.200,23.510,3.238,192.400,33.560,6.282,1.572,338.500,92.590,19.800,5.297,hard
1295.000,248.300,47.850,7.760,1196.000,143.600,23.580,3.254,192.700,33.660,6.320,1.570,339.400,92.400,19.900,5.321,hard
1296.000,249.500,47.840,7.678,1199.000,143.600,23.560,3.222,193.100,33.670,6.292,1.577,340.100,92.800,19.890,5.360,hard
1298.000,248.300,48.140,7.775,1199.000,144.400,23.620,3.234,191.400,33.760,6.366,1.573,340.900,93.240,19.960,5.355,hard
1300.000,249.300,47.910,7.806,1201.000,143.700,23.720,3.263,192.300,33.700,6.370,1.579,342.200,93.440,20.040,5.376,hard
1301.000,250.900,48.570,7.729,1202.000,144.200,23.620,3.233,194.000,33.770,6.348,1.578,341.900,93.480,19.940,5.324,hard
1297.000,247.900,47.830,7.739,1193.000,143.800,23.610,3.228,192.800,33.830,6.358,1.563,339.100,92.440,19.660,5.254,hard
1292.000,248.900,47.600,7.665,1197.000,143.700,23.600,3.232,192.700,33.550,6.317,1.568,338.400,92.250,19.660,5.250,hard
1290.000,248.500,47.880,7.652,1194.000,143.200,23.560,3.186,192.300,33.420,6.307,1.558,338.100,91.860,19.630,5.218,hard
1290.000,247.200,47.540,7.641,1199.000,144.200,23.500,3.231,193.400,33.670,6.307,1.555,337.600,91.800,19.560,5.236,hard
1288.000,247.900,47.510,7.548,1197.000,143.400,23.440,3.206,191.100,33.660,6.285,1.564,337.100,91.970,19.690,5.254,hard
1290.000,247.700,47.340,7.683,1194.000,143.600,23.580,3.206,194.800,33.460,6.317,1.563,338.400,91.920,19.680,5.244,hard
1291.000,247.900,47.520,7.616,1195.000,143.400,23.380,3.255,192.600,33.560,6.318,1.562,337.800,92.090,19.700,5.252,hard
1291.000,247.300,47.580,7.624,1199.000,143.100,23.490,3.248,191.000,33.560,6.319,1.563,339.100,92.520,19.750,5.273,hard
1293.000,247.600,47.990,7.673,1203.000,142.600,23.600,3.239,191.700,33.640,6.331,1.562,339.700,92.820,19.800,5.291,hard
1296.000,249.000,47.900,7.697,1201.000,143.400,23.500,3.281,193.000,33.730,6.344,1.574,340.700,93.280,19.900,5.335,hard
1296.000,247.800,48.230,7.798,1195.000,143.100,23.680,3.252,192.600,33.780,6.353,1.577,340.900,93.200,19.930,5.353,hard
1298.000,251.400,48.240,7.742,1199.000,144.000,23.610,3.238,192.200,33.760,6.386,1.584,341.700,93.860,20.010,5.342,hard
1299.000,248.600,48.020,7.743,1195.000,143.700,23.510,3.210,193.700,33.890,6.333,1.569,339.700,92.550,19.670,5.255,hard
1290.000,246.500,47.190,7.686,1195.000,143.500,23.490,3.199,189.800,33.570,6.336,1.560,337.900,91.990,19.650,5.234,hard
1289.000,247.100,47.660,7.693,1191.000,143.700,23.440,3.218,190.200,33.760,6.327,1.562,337.900,92.120,19.560,5.199,hard
1289.000,247.400,47.610,7.638,1191.000,143.300,23.510,3.233,190.300,33.730,6.286,1.564,336.300,91.690,19.620,5.218,hard
1288.000,245.600,47.460,7.618,1195.000,144.200,23.510,3.221,193.100,33.690,6.286,1.563,336.800,91.840,19.570,5.223,hard
1288.000,246.400,47.360,7.596,1196.000,143.700,23.580,3.223,191.100,33.420,6.318,1.570,338.900,91.920,19.640,5.261,hard
1291.000,247.400,47.590,7.569,1194.000,143.400,23.550,3.234,192.200,33.590,6.304,1.563,338.400,92.030,19.760,5.260,hard
1291.000,246.900,47.450,7.730,1199.000,144.100,23.500,3.242,193.400,33.630,6.328,1.569,338.600,92.260,19.720,5.288,hard
1292.000,249.000,47.600,7.709,1197.000,144.000,23.550,3.204,194.700,33.690,6.319,1.560,339.900,92.690,19.820,5.281,hard
1295.000,248.000,47.600,7.783,1200.000,143.900,23.540,3.258,191.600,33.550,6.344,1.570,340.500,93.100,19.880,5.318,hard
1295.000,248.800,48.120,7.795,1197.000,144.000,23.620,3.278,192.700,33.760,6.328,1.568,341.400,93.140,19.890,5.355,hard
