A-DC1,A-DC2,A-DC3,A-DC4,A-DC5,A-DC6,A-DC7,A-DC8,B-DC1,B-DC2,B-DC3,B-DC4,B-DC5,B-DC6,B-DC7,B-DC8,condition
1329.000,261.900,80.850,29.020,739.600,104.100,26.120,8.890,106.200,23.020,5.675,1.906,335.200,91.700,24.390,8.089,baseline
1334.000,264.500,79.080,28.640,735.000,103.200,25.840,8.647,104.400,23.140,5.633,1.867,332.900,89.860,23.810,7.820,baseline
1299.000,254.100,77.210,27.670,729.400,102.800,25.420,8.552,104.500,22.740,5.564,1.859,330.400,88.560,23.250,7.693,baseline
1288.000,252.900,76.690,27.240,730.600,103.200,25.420,8.631,104.300,23.170,5.530,1.869,326.900,88.820,23.240,7.748,baseline
1286.000,252.000,76.700,27.370,731.500,102.500,25.500,8.583,103.700,22.500,5.589,1.821,328.200,89.700,23.430,7.715,baseline
1286.000,253.800,76.700,27.350,727.600,102.800,25.470,8.607,106.400,22.590,5.522,1.843,329.700,89.330,23.400,7.752,baseline
1289.000,252.500,76.540,27.500,728.600,103.400,25.670,8.670,107.500,22.490,5.606,1.875,331.600,89.490,23.870,7.854,baseline
1298.000,254.400,77.640,27.780,733.300,103.800,25.730,8.780,108.900,22.570,5.631,1.881,334.100,91.020,24.000,7.888,baseline
1308.000,255.800,79.010,28.270,736.300,104.000,25.840,8.810,104.600,22.660,5.653,1.910,335.400,91.390,24.060,7.906,baseline
1317.000,259.800,79.750,28.480,736.500,104.800,26.140,8.784,111.600,22.840,5.578,1.886,334.900,91.640,24.250,8.055,baseline
1326.000,261.700,80.330,28.950,740.400,104.900,26.390,8.852,107.700,22.360,5.713,1.871,339.500,92.240,24.410,8.092,baseline
1330.000,261.000,79.130,28.300,735.500,103.600,25.730,8.625,107.500,22.820,5.672,1.869,330.400,89.990,23.670,7.767,baseline
1296.000,253.500,76.940,27.410,726.100,102.800,25.610,8.562,105.600,22.490,5.594,1.825,329.500,88.900,23.500,7.770,baseline
1286.000,252.100,76.640,27.270,726.100,102.700,25.530,8.624,102.800,22.350,5.581,1.861,327.500,88.820,23.560,7.759,baseline
1287.000,254.200,76.710,27.500,726.400,103.400,25.680,8.655,106.400,21.970,5.572,1.856,327.800,89.170,23.780,7.798,baseline
1288.000,254.500,77.090,27.520,727.000,103.100,25.630,8.668,105.500,22.250,5.547,1.844,329.400,89.470,23.690,7.777,baseline
1292.000,254.600,77.610,27.680,727.600,103.000,25.760,8.745,105.300,22.100,5.567,1.844,331.800,89.800,23.880,7.947,baseline
1303.000,255.200,78.010,28.140,730.300,104.100,25.830,8.812,106.600,22.680,5.674,1.867,334.900,90.500,23.950,7.973,baseline
1312.000,260.500,79.450,28.230,739.700,105.000,26.170,8.845,104.300,23.490,5.727,1.868,335.900,91.520,24.050,8.063,baseline
1322.000,261.000,79.850,28.670,738.900,105.200,26.160,8.871,109.200,22.710,5.669,1.865,339.300,92.350,24.280,8.097,baseline
1320.000,258.000,78.520,27.990,735.500,102.600,25.590,8.621,107.300,22.640,5.740,1.881,333.800,90.610,23.760,7.834,baseline
1287.000,250.700,76.120,27.390,731.400,102.700,25.580,8.668,107.100,22.730,5.634,1.908,331.300,89.700,23.810,7.720,baseline
1282.000,250.200,75.690,27.190,727.200,102.400,25.610,8.731,110.000,23.370,5.586,1.831,329.500,90.050,23.760,7.704,baseline
1283.000,250.300,76.180,27.130,723.600,103.000,25.580,8.655,105.800,22.820,5.533,1.880,332.000,90.100,23.600,7.766,baseline
1284.000,251.100,76.830,27.320,729.300,102.200,25.800,8.695,106.400,22.760,5.573,1.862,331.400,90.620,23.840,7.800,baseline
1292.000,252.900,76.650,27.690,732.300,104.200,25.970,8.753,107.800,22.690,5.588,1.892,335.100,90.310,24.300,8.015,baseline
1302.000,254.700,78.250,28.070,737.100,104.000,26.120,8.806,106.900,22.720,5.609,1.894,336.700,91.400,24.200,8.030,baseline
1314.000,258.000,78.900,28.430,740.800,105.400,26.210,8.884,109.400,22.960,5.594,1.909,337.800,91.590,24.290,8.078,baseline
1325.000,260.700,80.130,28.780,741.400,105.000,26.140,8.904,105.500,22.890,5.753,1.917,340.300,92.850,24.510,8.185,baseline
1331.000,261.000,79.640,28.220,732.600,103.300,25.950,8.683,109.000,23.450,5.709,1.878,335.300,91.810,24.030,7.855,baseline
1295.000,252.600,76.780,27.370,733.700,103.100,25.760,8.680,109.600,22.390,5.604,1.867,333.800,90.790,23.940,7.813,baseline
1286.000,251.100,76.380,27.130,726.000,102.900,25.830,8.679,108.000,22.880,5.626,1.859,333.300,91.220,23.850,7.830,baseline
1286.000,250.300,76.120,27.420,725.500,103.000,25.580,8.723,105.400,22.670,5.618,1.869,333.100,91.070,23.900,7.910,baseline
1289.000,253.300,76.450,27.500,724.200,103.000,25.650,8.725,109.700,22.620,5.661,1.898,339.100,91.680,24.130,7.923,baseline
1294.000,252.400,77.220,27.720,731.700,104.300,25.950,8.787,110.800,23.160,5.696,1.865,339.600,92.090,24.180,8.079,baseline
1305.000,256.300,78.310,28.000,737.800,104.100,26.040,8.824,109.000,23.070,5.606,1.872,343.400,92.940,24.550,8.099,baseline
1318.000,259.500,78.700,28.500,737.100,104.700,26.170,8.889,107.100,22.860,5.662,1.889,341.600,93.520,24.810,8.146,baseline
1328.000,261.400,79.990,28.760,743.000,104.700,26.080,8.809,108.700,22.660,5.624,1.886,344.400,94.040,24.770,8.139,baseline
1317.000,257.400,77.790,27.820,734.800,102.800,25.540,8.621,109.400,23.700,5.686,1.859,341.400,92.530,24.070,7.960,baseline
1291.000,252.600,76.260,27.220,725.700,102.900,25.450,8.723,110.700,23.450,5.646,1.854,336.700,92.380,24.250,7.921,baseline
1287.000,249.600,76.690,27.390,731.200,102.800,25.700,8.662,108.400,22.010,5.696,1.870,339.400,92.380,24.390,8.026,baseline
1292.000,252.100,76.710,27.340,729.900,102.700,25.830,8.692,111.700,22.820,5.664,1.869,340.300,92.560,24.250,8.016,baseline
1291.000,252.000,77.210,27.540,729.900,102.800,25.800,8.725,111.500,22.720,5.587,1.859,341.200,93.190,24.660,8.048,baseline
1302.000,254.000,77.650,27.860,735.500,103.600,26.100,8.816,110.800,23.450,5.579,1.886,341.500,93.580,24.780,8.224,baseline
1312.000,259.500,78.660,28.320,732.800,104.400,26.030,8.846,111.200,23.480,5.685,1.880,345.800,94.170,24.990,8.278,baseline
1324.000,259.800,79.300,28.470,735.100,103.900,26.240,8.760,110.000,23.100,5.693,1.887,346.700,95.250,25.020,8.157,baseline
1311.000,255.200,78.200,27.600,731.900,103.200,25.760,8.645,110.400,23.320,5.718,1.891,341.600,93.470,24.430,8.020,baseline
1289.000,251.900,75.970,27.330,730.500,102.700,25.330,8.664,112.100,22.630,5.628,1.853,341.100,92.940,24.370,8.016,baseline
1284.000,251.100,76.230,27.180,725.100,102.500,25.930,8.674,110.100,22.430,5.583,1.855,341.800,92.970,24.480,8.092,baseline
1289.000,252.300,76.400,27.340,731.800,102.700,25.620,8.654,108.200,22.950,5.618,1.851,342.400,92.990,24.860,8.083,baseline
1291.000,252.800,76.730,27.490,730.800,102.900,25.810,8.731,108.600,23.540,5.639,1.872,345.100,94.260,24.820,8.151,baseline
1302.000,254.300,77.410,27.980,733.700,104.000,25.860,8.781,111.100,23.000,5.575,1.878,347.500,94.930,25.170,8.200,baseline
1313.000,257.200,78.560,28.370,737.300,103.900,26.230,8.820,110.200,22.910,5.718,1.876,346.100,95.530,25.220,8.364,baseline
1324.000,259.600,79.520,28.650,741.500,104.800,26.270,8.850,111.000,22.920,5.652,1.879,349.200,95.580,25.550,8.379,baseline
1335.000,263.000,80.670,28.950,746.500,105.300,26.390,8.909,109.600,23.040,5.709,1.880,350.800,96.040,25.400,8.385,baseline
1328.000,260.300,78.820,27.970,735.400,103.500,25.780,8.662,109.800,22.770,5.596,1.867,347.700,94.120,24.810,8.157,baseline
1296.000,253.400,76.700,27.380,724.600,102.500,25.610,8.635,114.000,23.340,5.683,1.856,343.800,93.340,24.730,8.063,baseline
1288.000,252.200,75.980,27.400,733.700,102.500,25.620,8.689,109.000,22.500,5.583,1.865,343.700,94.240,25.050,8.147,baseline
1292.000,252.000,76.640,27.470,729.200,102.800,25.760,8.729,109.300,23.000,5.616,1.848,343.300,94.540,24.710,8.141,baseline
1293.000,253.000,76.710,27.520,733.200,103.200,25.670,8.736,111.800,22.930,5.645,1.872,344.900,94.050,25.120,8.248,baseline
1301.000,256.000,78.040,27.790,734.000,103.700,25.890,8.830,107.400,22.730,5.613,1.885,346.000,95.280,25.180,8.348,baseline
1312.000,258.200,78.670,28.150,738.000,103.800,26.080,8.923,110.800,23.140,5.666,1.876,349.800,94.730,25.350,8.362,baseline
1324.000,261.400,79.910,28.650,738.600,104.900,26.400,8.865,106.200,22.980,5.497,1.877,349.600,96.630,25.400,8.537,baseline
1335.000,264.800,80.840,28.930,739.800,105.000,26.470,8.982,110.100,23.430,5.719,1.905,352.700,96.440,25.640,8.541,baseline
1345.000,266.100,81.230,29.300,747.900,105.300,26.420,9.004,109.000,23.360,5.656,1.886,354.000,97.340,25.920,8.630,baseline
1350.000,264.200,81.180,28.710,739.300,104.300,26.030,8.779,110.100,23.180,5.597,1.881,349.300,95.470,25.250,8.283,baseline
1311.000,256.800,77.500,27.890,734.200,103.400,25.970,8.674,108.500,22.460,5.524,1.826,349.900,95.670,25.130,8.244,baseline
1302.000,255.400,76.700,27.630,728.000,103.300,25.820,8.729,104.500,22.840,5.569,1.855,347.900,94.250,25.120,8.274,baseline
1301.000,253.900,77.730,27.720,733.200,102.800,25.840,8.715,109.500,23.110,5.593,1.862,348.800,95.000,25.210,8.303,baseline
1303.000,255.000,77.580,27.900,733.100,104.100,25.990,8.735,109.300,22.900,5.584,1.884,346.000,95.700,25.180,8.350,baseline
1308.000,257.400,78.860,28.130,741.600,104.000,26.010,8.857,109.900,22.760,5.612,1.865,349.100,95.550,25.390,8.378,baseline
1321.000,258.800,79.650,28.560,739.100,104.700,26.530,8.907,111.800,22.800,5.680,1.862,352.600,96.160,25.640,8.531,baseline
1332.000,262.000,80.590,28.990,742.000,105.500,26.250,8.893,110.600,22.930,5.593,1.872,351.200,96.580,25.600,8.525,baseline
1343.000,264.700,81.640,29.240,741.200,105.200,26.390,9.028,108.500,22.310,5.718,1.869,354.800,97.390,26.130,8.544,baseline
1354.000,267.800,82.560,29.740,748.000,106.000,26.710,9.027,107.600,23.380,5.700,1.869,357.500,97.500,26.200,8.694,baseline
1367.000,271.300,83.190,30.020,745.200,106.000,26.660,8.901,114.600,23.110,5.626,1.886,357.200,98.150,26.030,8.586,baseline
1346.000,264.100,80.870,28.760,736.400,104.600,26.120,8.745,105.500,23.010,5.611,1.867,351.900,96.670,25.620,8.381,baseline
1321.000,258.600,78.700,28.270,737.000,103.200,25.980,8.691,106.000,22.650,5.733,1.870,349.300,95.790,25.340,8.301,baseline
1316.000,257.800,78.460,28.150,737.000,103.500,26.010,8.772,109.500,23.180,5.689,1.859,350.100,95.820,25.490,8.497,baseline
1320.000,259.600,78.930,28.520,738.800,103.400,25.930,8.757,107.400,23.600,5.677,1.853,350.000,96.310,25.590,8.353,baseline
1322.000,258.400,78.630,28.490,733.600,103.700,26.070,8.814,109.900,23.300,5.709,1.893,352.600,96.240,25.520,8.475,baseline
1331.000,262.200,79.700,29.120,741.000,103.900,26.270,8.863,109.200,23.170,5.647,1.876,353.700,97.110,25.850,8.522,baseline
1344.000,264.700,80.330,29.180,740.400,104.300,26.520,8.938,110.200,23.400,5.691,1.872,358.000,97.200,26.180,8.591,baseline
1353.000,267.800,82.100,29.530,748.700,105.500,26.630,8.955,109.900,23.420,5.657,1.890,356.700,97.980,26.440,8.691,baseline
1364.000,270.000,83.160,29.900,748.600,106.700,26.750,9.009,108.400,23.320,5.683,1.893,359.800,98.480,26.210,8.785,baseline
1376.000,273.200,83.960,30.450,749.200,106.500,26.540,8.961,115.600,23.160,5.717,1.907,359.000,98.170,26.460,8.623,baseline
1367.000,267.800,81.850,29.330,741.500,105.100,26.040,8.862,111.400,23.520,5.682,1.912,354.100,96.970,25.810,8.506,baseline
1334.000,263.400,80.010,28.800,737.500,104.300,25.850,8.784,110.100,22.760,5.659,1.875,351.600,96.440,25.530,8.469,baseline
1328.000,259.500,78.980,28.580,734.700,104.300,26.160,8.769,114.500,22.800,5.622,1.859,352.400,96.020,25.590,8.581,baseline
1331.000,260.800,80.300,28.710,739.300,103.800,26.050,8.812,111.600,22.850,5.681,1.863,354.600,97.470,25.570,8.528,baseline
1330.000,260.100,80.070,28.750,738.400,104.400,26.120,8.862,109.200,23.210,5.659,1.892,355.100,96.700,25.610,8.527,baseline
1340.000,263.500,81.510,29.220,739.700,104.700,26.450,8.832,110.400,22.870,5.639,1.865,357.100,97.110,25.930,8.669,baseline
1352.000,267.100,81.740,29.630,743.200,105.400,26.590,8.977,113.600,23.470,5.670,1.898,356.300,97.990,26.150,8.667,baseline
1361.000,268.600,82.250,29.840,747.900,105.500,26.570,8.945,108.700,23.220,5.703,1.895,360.300,98.480,26.490,8.757,baseline
1372.000,270.200,83.040,30.330,748.400,106.600,26.710,9.040,109.600,22.750,5.652,1.903,363.000,98.490,26.580,8.925,baseline
1385.000,274.100,84.780,30.710,752.600,106.600,26.950,9.034,111.300,23.400,5.775,1.931,360.900,99.130,26.450,8.909,baseline
1388.000,273.700,83.780,30.120,746.700,105.300,26.300,8.881,113.200,23.470,5.790,1.904,359.400,97.430,26.030,8.527,baseline
1350.000,263.600,81.180,29.170,735.400,104.500,26.030,8.797,109.100,23.550,5.665,1.877,354.200,96.670,25.840,8.544,baseline
1337.000,263.800,80.590,28.930,740.900,104.200,25.940,8.792,110.600,22.850,5.716,1.880,352.300,96.350,25.890,8.485,baseline
1336.000,261.700,80.340,29.050,740.400,104.000,26.100,8.798,110.000,23.020,5.706,1.854,354.700,96.450,25.770,8.527,baseline
1338.000,264.500,80.990,29.160,741.200,104.300,26.070,8.803,110.600,23.310,5.658,1.875,354.100,96.870,25.900,8.492,baseline
1342.000,267.500,81.120,29.320,740.700,105.100,26.290,8.916,111.600,23.470,5.719,1.898,358.800,97.730,26.090,8.624,baseline
1353.000,268.400,81.650,29.770,746.900,105.500,26.330,8.960,114.200,22.920,5.675,1.917,358.000,98.870,26.520,8.720,baseline
1364.000,269.700,83.030,29.980,744.000,105.600,26.560,9.004,108.300,22.570,5.736,1.940,360.600,98.650,26.320,8.763,baseline
1374.000,272.500,83.980,30.400,748.100,106.500,26.940,8.968,110.900,22.760,5.765,1.892,362.700,98.500,26.630,8.867,baseline
1384.000,274.100,84.500,30.840,755.000,107.200,26.720,9.041,114.300,23.180,5.796,1.907,365.000,99.220,26.880,8.924,baseline
1397.000,276.600,85.380,30.720,751.100,105.700,26.680,8.931,110.700,22.830,5.752,1.912,360.900,98.750,26.260,8.666,baseline
1362.000,269.200,81.710,29.420,746.800,104.500,26.260,8.841,112.200,23.000,5.721,1.894,358.000,98.130,26.210,8.547,baseline
1346.000,263.400,81.040,29.310,738.100,105.000,26.010,8.860,111.900,24.130,5.711,1.878,354.600,96.850,25.980,8.568,baseline
1341.000,264.600,81.500,29.210,741.700,103.500,25.930,8.893,109.600,23.270,5.638,1.874,357.700,97.160,25.870,8.607,baseline
1342.000,263.700,81.020,29.260,741.300,105.000,26.260,8.790,111.000,23.390,5.750,1.872,358.100,97.090,26.230,8.640,baseline
1346.000,264.800,81.560,29.290,742.400,105.600,26.320,8.927,110.900,23.500,5.733,1.915,357.000,97.840,25.990,8.664,baseline
1354.000,265.500,81.990,29.700,744.900,104.800,26.480,8.946,109.400,22.820,5.780,1.910,360.700,98.150,26.490,8.724,baseline
1364.000,269.300,83.070,29.910,745.100,105.300,26.630,8.911,109.900,23.090,5.765,1.924,361.800,98.400,26.500,8.712,baseline
1373.000,272.200,83.490,30.280,746.300,105.600,26.660,8.993,108.800,23.750,5.712,1.930,360.700,99.500,26.380,8.889,baseline
1384.000,276.000,84.570,30.560,751.600,106.700,26.890,8.939,113.100,23.410,5.761,1.943,364.200,99.300,26.600,8.678,baseline
1372.000,270.400,82.660,29.670,744.100,105.100,26.210,8.851,113.400,23.280,5.802,1.931,359.900,98.260,26.200,8.566,baseline
1346.000,266.100,80.940,29.100,739.200,104.100,26.190,8.852,111.100,23.370,5.653,1.883,356.700,96.910,25.950,8.538,baseline
1339.000,262.000,80.690,29.060,738.400,104.400,26.110,8.795,111.500,23.020,5.765,1.898,358.400,97.640,26.150,8.637,baseline
1343.000,264.900,81.280,29.190,738.800,103.600,26.090,8.874,115.700,23.290,5.698,1.898,359.600,97.690,26.280,8.629,baseline
1343.000,264.500,81.270,29.250,742.000,104.600,26.540,8.894,111.500,23.730,5.747,1.907,358.800,98.550,26.260,8.585,baseline
1353.000,266.600,82.260,29.680,744.600,106.000,26.660,8.972,114.300,23.680,5.639,1.908,360.600,98.710,26.200,8.682,baseline
1363.000,270.800,82.530,29.980,746.700,105.800,26.730,8.965,111.000,22.890,5.697,1.929,362.400,99.200,26.410,8.803,baseline
1371.000,270.100,83.560,30.200,746.700,106.600,26.540,9.000,114.500,23.340,5.838,1.927,363.800,99.860,26.610,8.819,baseline
1380.000,273.800,84.400,30.550,753.800,106.000,26.810,9.054,108.900,23.630,5.831,1.958,364.500,99.180,26.690,8.924,baseline
1391.000,275.300,84.740,30.200,749.000,106.200,26.500,8.889,114.700,23.700,5.831,1.932,363.600,98.870,26.130,8.666,baseline
1355.000,267.000,81.320,29.150,739.100,104.600,26.260,8.775,113.900,23.030,5.768,1.915,360.000,97.880,26.060,8.459,baseline
1339.000,263.400,80.600,28.880,735.100,104.400,26.080,8.787,116.100,23.320,5.674,1.889,357.600,97.570,26.030,8.509,baseline
1333.000,264.000,80.300,28.800,733.800,104.700,26.110,8.805,111.000,23.290,5.766,1.908,360.100,97.690,26.100,8.568,baseline
1333.000,261.400,80.240,28.970,736.500,104.100,26.170,8.835,111.700,22.960,5.799,1.917,357.600,97.270,26.080,8.606,baseline
1336.000,264.200,80.960,29.100,739.800,104.800,26.180,8.926,110.100,23.430,5.772,1.909,358.600,98.930,26.260,8.634,baseline
1344.000,263.700,81.470,29.320,739.300,105.100,26.350,8.945,110.300,23.240,5.786,1.921,361.400,99.530,26.490,8.655,baseline
1353.000,265.900,81.920,29.560,748.000,105.800,26.670,8.962,115.100,23.090,5.724,1.916,362.000,99.280,26.340,8.767,baseline
1362.000,269.100,82.500,29.900,741.400,105.800,26.580,9.035,115.100,23.240,5.787,1.958,362.800,98.780,26.540,8.791,baseline
1370.000,271.000,83.700,30.200,750.400,106.100,26.870,9.011,110.900,23.520,5.834,1.937,365.900,99.700,26.560,8.833,baseline
1377.000,273.100,83.580,29.670,740.000,105.300,26.340,8.811,112.000,23.250,5.843,1.949,361.900,98.440,26.110,8.605,baseline
1339.000,260.900,79.700,28.830,733.600,103.800,26.180,8.810,111.600,23.630,5.770,1.900,358.600,98.180,25.840,8.466,baseline
1327.000,259.800,79.170,28.410,736.800,103.900,26.190,8.780,112.700,23.570,5.842,1.913,357.200,97.210,25.750,8.426,baseline
1322.000,261.400,79.290,28.410,736.100,104.300,26.220,8.804,117.200,23.460,5.762,1.942,358.600,97.310,25.850,8.506,baseline
1322.000,259.700,78.990,28.480,738.300,104.600,26.080,8.877,112.400,23.550,5.785,1.912,357.500,97.610,25.900,8.491,baseline
1326.000,261.200,79.720,28.690,735.800,105.000,26.330,8.928,111.600,23.820,5.860,1.920,359.700,98.390,26.040,8.584,baseline
1335.000,261.100,80.420,29.000,737.100,105.500,26.260,8.953,111.400,23.410,5.841,1.915,359.900,98.510,26.240,8.619,baseline
1342.000,264.900,81.540,29.260,745.100,104.800,26.430,8.986,114.900,23.680,5.824,1.941,362.100,98.160,26.520,8.711,baseline
1350.000,268.300,82.500,29.420,740.600,106.000,26.600,9.023,110.600,23.580,5.763,1.937,365.200,98.660,26.750,8.851,baseline
1359.000,268.700,82.980,29.760,750.200,105.800,26.800,9.078,115.100,23.520,5.852,1.945,365.600,99.340,26.590,8.850,baseline
1370.000,271.700,83.180,30.000,747.500,105.900,26.650,8.919,111.000,23.780,5.852,1.927,367.000,99.490,26.240,8.687,baseline
1348.000,264.600,80.710,28.840,740.700,104.000,26.110,8.834,112.500,23.510,5.839,1.918,358.700,98.050,25.990,8.512,baseline
1324.000,258.700,79.140,28.440,741.200,103.900,26.110,8.808,111.800,23.090,5.765,1.910,359.000,97.800,25.860,8.567,baseline
1316.000,257.000,78.850,28.150,734.400,104.300,25.980,8.866,109.700,22.830,5.734,1.925,356.800,97.480,25.940,8.542,baseline
1317.000,257.400,78.540,28.290,737.900,104.000,26.120,8.866,113.600,23.230,5.822,1.952,357.200,97.720,25.760,8.538,baseline
1317.000,259.800,78.900,28.440,739.200,104.400,26.050,8.984,110.400,23.820,5.768,1.936,359.000,97.840,25.970,8.596,baseline
1324.000,260.900,80.110,28.680,738.100,104.500,26.300,8.958,113.500,23.070,5.862,1.932,360.400,98.030,26.550,8.621,baseline
1332.000,260.200,80.470,28.950,737.700,104.700,26.440,9.005,110.900,23.620,5.970,1.947,360.200,98.480,26.510,8.714,baseline
1340.000,263.900,81.100,29.270,745.000,105.600,26.570,9.021,112.000,23.670,5.845,1.949,362.100,99.050,26.390,8.756,baseline
1349.000,265.000,82.160,29.520,748.200,105.200,26.610,9.018,111.800,23.560,5.848,1.963,364.900,99.220,26.700,8.814,baseline
1358.000,267.200,82.960,29.800,745.900,105.700,26.700,9.124,111.000,23.080,5.862,1.926,365.600,100.500,26.900,8.865,baseline
1368.000,269.400,82.720,29.560,742.000,104.300,26.340,8.949,112.200,24.260,5.884,1.939,363.700,98.840,26.340,8.584,baseline
1333.000,257.700,79.280,28.580,735.200,104.400,26.110,8.828,106.300,23.510,5.848,1.922,360.800,98.130,26.120,8.573,baseline
1318.000,258.200,78.940,28.290,736.700,104.300,25.970,8.813,108.900,23.540,5.724,1.927,359.900,97.980,26.120,8.540,baseline
1313.000,257.000,78.490,28.250,734.900,103.600,26.090,8.908,112.500,23.900,5.776,1.932,361.100,98.530,25.780,8.571,baseline
1315.000,258.600,78.840,28.380,735.000,103.700,26.060,8.821,112.300,23.680,5.784,1.938,361.400,98.340,26.100,8.668,baseline
1317.000,258.800,78.740,28.460,737.600,104.300,26.300,8.969,112.900,23.520,5.806,1.901,363.400,98.390,26.350,8.650,baseline
1325.000,260.700,79.800,28.850,740.900,104.500,26.380,8.971,109.600,23.100,5.725,1.939,362.000,98.980,26.420,8.758,baseline
1334.000,260.900,81.340,29.130,739.900,105.700,26.590,9.007,109.700,23.590,5.860,1.945,366.100,99.790,26.630,8.837,baseline
1342.000,264.700,81.440,29.400,741.700,106.100,26.580,9.051,110.600,23.630,5.851,1.937,366.400,99.680,26.830,8.897,baseline
1353.000,266.700,82.520,29.640,744.800,105.600,26.730,9.085,111.000,23.190,5.817,1.944,368.100,100.100,26.820,8.978,baseline
1363.000,268.400,83.760,30.210,749.300,106.100,26.740,9.079,110.300,23.120,5.818,1.960,370.100,101.300,27.030,8.942,baseline
1357.000,266.700,81.410,29.230,740.700,104.700,26.200,8.887,112.300,23.170,5.817,1.945,367.200,99.020,26.540,8.773,baseline
1325.000,258.600,79.530,28.590,737.900,104.500,26.070,8.839,110.800,23.110,5.881,1.934,363.300,98.950,26.390,8.675,baseline
1318.000,256.300,78.730,28.390,732.300,103.800,26.010,8.861,111.500,22.940,5.786,1.921,361.500,98.490,26.480,8.715,baseline
1318.000,260.000,79.190,28.400,733.300,104.200,26.160,8.862,112.000,22.940,5.717,1.917,363.700,99.290,26.330,8.723,baseline
1316.000,258.600,78.550,28.440,734.700,103.700,26.070,8.911,110.100,23.120,5.728,1.923,362.800,99.350,26.560,8.759,baseline
1321.000,260.100,80.060,29.000,741.600,104.500,26.300,8.971,110.200,23.530,5.695,1.919,364.300,99.410,26.580,8.815,baseline
1333.000,262.600,80.250,29.220,740.300,104.800,26.390,8.999,111.900,23.590,5.846,1.922,365.000,100.400,26.880,8.869,baseline
1341.000,263.900,82.010,29.480,739.900,105.600,26.330,8.996,110.800,23.220,5.865,1.925,366.600,100.300,27.140,8.980,baseline
1349.000,266.800,82.460,29.840,742.100,105.900,26.480,9.006,113.100,23.250,5.781,1.934,370.900,101.000,27.200,9.055,baseline
1360.000,270.900,83.500,30.070,744.600,105.800,26.710,9.053,111.400,23.690,5.801,1.930,370.800,101.200,27.230,9.082,baseline
1371.000,271.200,83.810,30.260,748.500,106.400,26.600,8.962,112.200,23.100,5.857,1.935,372.100,101.900,27.180,8.966,baseline
1348.000,264.400,81.140,28.990,736.500,104.800,25.950,8.799,111.200,23.430,5.757,1.914,366.700,100.300,26.970,8.746,baseline
1326.000,260.000,80.210,28.810,735.100,103.200,25.830,8.805,112.000,23.450,5.739,1.898,364.900,100.100,26.690,8.836,baseline
1319.000,258.800,79.260,28.720,730.900,103.700,26.170,8.762,115.600,23.050,5.747,1.884,365.200,100.000,26.620,8.853,baseline
1321.000,260.100,79.850,28.770,730.200,103.700,25.910,8.819,112.200,23.290,5.736,1.924,367.400,99.830,26.730,8.847,baseline
1323.000,260.900,79.980,29.000,737.400,104.500,26.060,8.835,111.300,23.490,5.822,1.900,367.700,100.500,26.930,8.893,baseline
1331.000,265.600,80.530,29.320,736.700,103.700,26.360,8.897,109.600,23.470,5.701,1.916,366.900,101.200,27.140,9.001,baseline
1341.000,263.100,82.270,29.690,740.200,104.500,26.230,8.913,112.300,23.200,5.777,1.916,370.400,101.100,27.290,9.009,baseline
1349.000,266.700,82.500,29.900,741.700,105.100,26.480,8.957,110.600,23.190,5.722,1.934,368.300,102.000,27.260,9.171,baseline
1359.000,270.200,83.280,30.170,745.700,105.500,26.330,8.969,110.200,23.050,5.771,1.904,373.500,102.100,27.450,9.209,baseline
1371.000,272.100,84.180,30.520,749.400,106.200,26.560,8.939,110.200,23.280,5.762,1.910,375.500,102.500,27.630,9.233,baseline
1370.000,268.700,83.530,29.690,740.900,104.200,26.260,8.755,111.900,22.890,5.773,1.920,372.100,101.500,26.830,8.954,baseline
1336.000,263.400,80.200,29.130,734.700,103.000,25.840,8.715,112.200,23.050,5.742,1.877,369.100,101.300,27.030,8.912,baseline
1327.000,261.600,80.260,28.890,735.700,103.200,26.000,8.662,112.200,22.910,5.676,1.888,367.600,100.700,27.000,8.935,baseline
1326.000,262.700,80.350,28.960,732.900,103.300,25.920,8.720,111.200,23.320,5.698,1.881,368.300,100.700,27.000,8.919,baseline
1328.000,261.800,80.440,29.080,732.100,103.800,25.960,8.739,112.200,23.630,5.667,1.889,367.300,101.200,27.310,9.062,baseline
1334.000,262.000,81.190,29.350,736.200,103.800,26.040,8.834,111.400,23.160,5.749,1.886,370.500,101.700,27.100,9.052,baseline
1344.000,266.300,82.330,29.810,740.700,104.500,26.070,8.835,108.600,23.050,5.731,1.914,373.200,102.100,27.400,9.117,baseline
1354.000,267.800,82.860,30.030,738.600,104.500,26.200,8.813,112.400,23.830,5.718,1.918,373.800,102.300,27.580,9.217,baseline
1364.000,270.300,83.160,30.480,745.200,104.600,26.540,8.860,114.700,22.510,5.692,1.893,374.100,102.700,27.870,9.210,baseline
1375.000,273.000,84.910,30.720,748.600,106.300,26.420,8.989,112.800,23.350,5.703,1.936,376.700,103.800,27.870,9.303,baseline
1386.000,274.000,85.370,31.040,750.100,105.500,26.340,8.888,112.200,23.070,5.714,1.901,377.400,103.700,27.840,9.255,baseline
1370.000,271.200,83.550,29.840,738.400,103.200,25.960,8.716,114.800,22.770,5.715,1.880,370.100,102.000,27.610,9.086,baseline
1341.000,263.000,81.510,29.380,733.400,104.100,25.660,8.622,115.100,23.230,5.694,1.887,369.900,101.400,27.180,9.066,baseline
1334.000,261.400,80.960,29.190,733.200,103.100,25.800,8.628,108.600,23.180,5.752,1.871,373.000,100.600,27.300,9.027,baseline
1334.000,262.600,80.580,29.350,733.600,104.100,25.680,8.609,111.500,22.490,5.713,1.885,372.300,101.900,27.580,9.070,baseline
1336.000,262.200,81.120,29.310,740.300,103.300,25.880,8.614,110.300,22.590,5.682,1.864,371.800,102.200,27.380,9.139,baseline
1343.000,264.500,82.570,29.670,741.200,104.400,26.090,8.674,109.600,23.370,5.651,1.915,372.500,102.800,27.360,9.113,baseline
1354.000,269.100,83.110,29.990,741.100,104.300,25.940,8.734,110.700,23.200,5.672,1.904,375.500,103.600,27.620,9.235,baseline
1364.000,270.600,83.730,30.380,742.100,104.000,26.060,8.772,113.700,23.280,5.720,1.893,376.600,102.900,27.650,9.345,baseline
1373.000,272.500,84.440,30.710,745.100,105.100,26.180,8.829,110.400,23.100,5.681,1.895,376.900,103.500,27.990,9.396,baseline
1383.000,275.900,85.750,31.090,747.300,105.500,26.430,8.927,113.500,23.190,5.698,1.888,382.400,104.000,28.050,9.403,baseline
1394.000,275.400,85.540,31.000,747.500,104.600,25.780,8.733,113.400,23.540,5.703,1.917,377.000,104.000,27.750,9.121,baseline
1361.000,265.900,82.710,29.740,737.000,103.700,25.710,8.558,109.800,22.980,5.662,1.864,371.400,102.300,27.150,9.006,baseline
1344.000,265.800,81.430,29.440,735.600,103.300,25.620,8.572,110.500,23.040,5.634,1.862,373.800,102.700,27.260,9.101,baseline
1339.000,263.100,81.440,29.390,732.400,103.600,25.680,8.568,111.500,23.040,5.659,1.868,374.000,102.600,27.290,9.050,baseline
1340.000,263.900,81.240,29.550,733.500,103.600,25.660,8.610,113.300,22.610,5.617,1.889,371.700,102.300,27.490,9.091,baseline
1343.000,265.300,81.710,29.620,739.300,104.000,25.660,8.669,109.900,23.350,5.683,1.891,374.000,102.000,27.440,9.175,baseline
1353.000,268.000,82.790,29.940,735.500,103.500,25.980,8.740,109.200,23.540,5.697,1.884,375.000,102.900,27.670,9.209,baseline
1364.000,269.500,83.530,30.310,739.200,104.300,25.940,8.761,115.100,23.350,5.646,1.914,377.100,103.100,27.900,9.256,baseline
1373.000,271.400,84.430,30.690,745.600,104.900,26.130,8.742,109.800,23.510,5.704,1.899,377.500,103.400,27.840,9.289,baseline
1383.000,273.300,85.520,30.960,745.600,104.800,26.040,8.827,110.300,22.700,5.660,1.883,378.300,105.100,27.960,9.397,baseline
1394.000,277.600,86.370,31.460,749.700,105.500,26.400,8.755,112.800,23.010,5.753,1.896,382.800,104.800,28.060,9.418,baseline
1390.000,274.300,84.530,30.300,737.400,104.500,25.720,8.590,113.400,23.580,5.673,1.863,376.100,103.000,27.370,9.105,baseline
1356.000,266.300,82.680,29.750,738.800,103.800,25.730,8.562,112.400,23.360,5.711,1.863,374.000,102.800,27.260,9.045,baseline
1346.000,265.200,81.720,29.430,738.400,103.300,25.620,8.538,111.400,22.820,5.547,1.861,373.500,101.700,27.490,9.105,baseline
1346.000,264.600,81.820,29.650,733.900,103.100,25.540,8.565,111.500,23.170,5.617,1.860,373.200,102.400,27.390,9.111,baseline
1346.000,266.000,81.990,29.530,739.500,102.800,25.680,8.632,112.400,23.140,5.599,1.851,373.300,102.300,27.510,9.133,baseline
1352.000,267.900,82.840,29.990,739.800,103.100,25.780,8.662,116.000,23.180,5.675,1.867,374.400,102.900,27.700,9.202,baseline
1363.000,269.600,83.560,30.250,741.300,103.900,26.050,8.642,107.500,22.850,5.667,1.856,375.500,103.500,27.880,9.305,baseline
1372.000,273.400,83.990,30.690,744.400,104.300,25.920,8.756,108.900,23.420,5.574,1.880,379.700,104.600,27.830,9.339,baseline
1382.000,275.800,84.990,30.960,746.300,104.500,26.340,8.741,115.900,23.070,5.696,1.861,378.800,104.200,28.090,9.369,baseline
1392.000,277.000,86.070,31.190,752.100,105.300,26.360,8.818,109.900,23.620,5.732,1.879,381.100,104.600,28.220,9.455,baseline
1402.000,278.900,86.080,31.060,743.900,104.100,25.990,8.616,109.400,23.630,5.778,1.873,378.600,103.900,27.690,9.222,baseline
1368.000,270.400,83.040,29.980,739.800,103.200,25.720,8.583,109.900,23.020,5.684,1.840,374.000,102.700,27.390,9.028,baseline
1352.000,265.700,82.120,29.590,732.900,103.000,25.610,8.539,106.000,23.240,5.572,1.859,374.000,102.100,27.470,9.050,baseline
1346.000,264.800,82.380,29.580,736.300,103.300,25.650,8.574,111.200,22.930,5.747,1.871,373.900,102.000,27.440,9.193,baseline
1349.000,266.200,81.790,29.810,734.800,104.300,25.530,8.631,113.500,23.700,5.585,1.849,374.000,102.000,27.550,9.074,baseline
1351.000,267.000,82.290,29.900,736.300,104.000,25.730,8.590,108.800,23.320,5.613,1.866,374.900,103.000,27.500,9.185,baseline
1361.000,269.900,83.450,30.380,738.300,104.100,26.000,8.682,112.700,22.890,5.672,1.857,373.700,103.400,27.690,9.240,baseline
1371.000,273.400,83.780,30.580,740.900,104.800,25.970,8.691,111.900,23.160,5.662,1.870,376.300,103.900,28.000,9.215,baseline
1379.000,273.300,85.070,30.770,742.900,105.100,26.060,8.719,110.000,23.160,5.670,1.874,380.100,104.300,27.910,9.354,baseline
1389.000,274.700,85.200,31.060,748.100,105.000,26.190,8.798,105.800,23.780,5.645,1.888,381.100,104.400,28.150,9.403,baseline
1399.000,277.500,86.020,30.820,746.700,104.100,26.110,8.622,109.700,23.420,5.697,1.878,378.200,103.500,27.490,9.155,baseline
1365.000,268.000,82.680,29.850,737.900,103.700,25.720,8.566,113.100,23.030,5.624,1.841,375.600,101.800,27.490,9.080,baseline
1351.000,264.900,82.580,29.550,735.900,103.000,25.660,8.608,110.300,22.750,5.581,1.857,373.000,102.400,27.250,9.067,baseline
1346.000,264.100,82.060,29.540,731.700,103.200,25.630,8.572,111.200,23.070,5.556,1.851,374.500,102.400,27.370,9.043,baseline
1348.000,265.700,82.490,29.680,738.100,103.200,25.860,8.622,109.600,22.640,5.641,1.853,372.600,101.900,27.560,9.149,baseline
1350.000,267.400,82.620,29.870,738.600,103.900,25.830,8.603,111.000,22.930,5.607,1.855,375.100,103.000,27.430,9.236,baseline
1360.000,269.000,83.580,30.170,737.200,104.500,25.930,8.728,110.600,23.020,5.556,1.855,375.600,102.800,27.670,9.185,baseline
1369.000,268.100,84.610,30.600,747.500,104.400,26.130,8.696,108.400,23.150,5.687,1.879,379.200,103.600,27.980,9.326,baseline
1379.000,273.500,84.980,30.800,740.700,104.400,26.380,8.816,108.600,22.880,5.613,1.875,378.200,103.700,28.090,9.343,baseline
1388.000,276.400,85.860,31.050,745.400,105.400,26.370,8.817,113.800,22.730,5.703,1.889,381.900,104.300,28.120,9.492,baseline
1399.000,277.900,85.370,30.800,743.900,104.200,26.050,8.652,116.200,23.230,5.731,1.857,376.900,103.300,27.610,9.137,baseline
1363.000,269.300,82.000,29.960,739.100,103.700,25.430,8.615,111.300,22.830,5.637,1.859,374.600,101.700,27.360,9.119,baseline
1348.000,266.200,82.300,29.530,735.500,102.800,25.590,8.554,111.800,22.250,5.569,1.846,373.100,102.200,27.380,9.129,baseline
1343.000,262.600,81.310,29.570,737.000,103.000,25.660,8.610,109.700,23.050,5.589,1.871,373.900,102.600,26.990,9.035,baseline
1344.000,265.200,82.540,29.540,739.900,103.600,25.910,8.589,109.700,22.760,5.613,1.869,374.000,102.600,27.270,9.038,baseline
1346.000,265.000,82.060,29.840,736.500,104.200,26.090,8.657,107.600,22.970,5.633,1.873,374.600,103.000,27.490,9.210,baseline
1357.000,266.800,83.740,30.010,737.100,103.700,25.950,8.722,107.900,23.550,5.626,1.882,375.100,103.300,27.530,9.236,baseline
1364.000,272.300,83.480,30.340,740.900,104.000,26.130,8.751,113.700,23.010,5.623,1.865,377.400,103.700,27.990,9.305,baseline
1373.000,273.100,84.380,30.680,745.800,104.100,26.270,8.774,107.400,23.000,5.658,1.878,379.600,104.400,28.120,9.380,baseline
1383.000,274.400,85.130,30.930,743.900,105.800,26.200,8.812,109.900,23.040,5.749,1.902,381.300,104.000,28.160,9.338,baseline
1386.000,272.200,84.370,30.330,737.900,104.200,26.020,8.686,110.300,23.400,5.725,1.882,376.000,103.000,27.570,9.069,baseline
1353.000,265.900,82.700,29.520,732.100,102.400,25.740,8.614,110.200,22.360,5.696,1.829,372.800,102.400,27.390,9.037,baseline
1343.000,265.100,81.490,29.260,736.000,103.200,25.800,8.635,110.000,23.190,5.587,1.855,373.500,102.800,27.240,8.971,baseline
1341.000,262.900,81.230,29.340,737.200,103.200,25.660,8.621,111.300,22.840,5.615,1.853,374.700,102.200,27.410,9.012,baseline
1341.000,263.700,81.420,29.380,738.800,103.900,25.770,8.707,113.100,22.630,5.574,1.852,373.100,102.400,27.250,9.077,baseline
1344.000,267.700,81.790,29.670,737.400,103.700,25.870,8.750,112.200,22.770,5.644,1.868,374.800,101.900,27.560,9.196,baseline
1353.000,267.900,82.620,29.940,737.600,104.100,25.850,8.746,106.800,23.340,5.536,1.861,373.800,102.400,27.660,9.210,baseline
1361.000,268.800,83.980,30.160,737.100,104.600,26.030,8.745,110.900,23.020,5.678,1.863,376.300,103.500,27.510,9.246,baseline
1368.000,271.300,84.450,30.510,742.600,104.500,26.330,8.828,112.500,22.950,5.641,1.878,378.600,103.700,27.740,9.325,baseline
1375.000,269.700,83.940,30.090,736.500,103.300,25.920,8.681,108.400,23.380,5.629,1.867,374.900,102.100,27.270,9.012,baseline
1345.000,263.900,80.750,29.300,733.100,103.600,25.780,8.580,111.500,22.560,5.593,1.878,373.500,101.600,27.410,8.978,baseline
1335.000,261.200,80.650,29.100,732.200,102.900,25.870,8.653,105.500,23.160,5.587,1.871,373.600,101.100,27.330,9.071,baseline
1335.000,261.600,81.330,29.240,733.100,103.300,26.110,8.635,111.700,23.150,5.680,1.874,373.300,102.200,27.260,9.101,baseline
1333.000,264.900,80.700,29.300,737.000,103.000,25.940,8.727,112.100,22.890,5.655,1.878,374.200,101.700,27.140,9.024,baseline
1339.000,265.000,81.190,29.590,735.000,103.900,26.020,8.781,112.200,23.090,5.708,1.899,376.300,101.800,27.570,9.084,baseline
1349.000,267.600,82.470,29.700,739.700,104.200,25.980,8.765,110.000,23.170,5.763,1.892,377.800,103.100,28.110,9.213,baseline
1356.000,266.500,83.460,29.980,736.700,105.000,26.110,8.808,109.900,23.060,5.608,1.887,380.100,103.300,27.810,9.241,baseline
1364.000,271.400,83.690,30.330,738.400,104.800,26.330,8.894,117.300,23.190,5.752,1.887,378.500,103.400,27.760,9.317,baseline
1375.000,273.100,84.300,30.590,739.700,104.700,26.080,8.812,108.200,23.240,5.680,1.912,381.000,103.300,27.660,9.046,baseline
1353.000,265.900,81.630,29.340,733.200,102.600,25.800,8.653,111.800,23.190,5.667,1.874,372.800,101.700,27.490,8.911,baseline
1331.000,261.100,79.740,28.930,729.500,102.900,25.490,8.663,110.100,23.340,5.706,1.873,372.900,101.500,27.120,8.853,baseline
1322.000,258.800,79.970,28.700,732.500,102.800,25.620,8.666,108.800,23.030,5.667,1.844,373.400,101.100,27.100,8.913,baseline
1323.000,259.700,79.460,28.740,733.600,102.800,25.910,8.690,109.600,22.620,5.689,1.867,372.900,102.000,27.020,8.972,baseline
1322.000,259.800,79.530,28.870,733.900,103.100,25.910,8.754,109.600,23.390,5.631,1.869,373.600,101.500,27.200,8.995,baseline
1329.000,262.200,80.860,29.070,733.800,102.900,26.050,8.754,109.000,23.010,5.634,1.863,373.500,102.400,27.290,9.062,baseline
1338.000,263.200,81.310,29.420,732.200,103.900,26.060,8.813,109.500,22.970,5.637,1.859,377.100,102.300,27.420,9.042,baseline
1345.000,264.600,82.070,29.620,737.800,104.000,26.140,8.857,109.600,22.940,5.731,1.896,375.800,102.900,27.550,9.116,baseline
1355.000,268.900,82.630,29.870,737.100,104.800,26.200,8.932,107.000,22.640,5.687,1.889,379.200,103.500,27.510,9.257,baseline
1365.000,269.900,83.840,30.170,743.700,104.200,26.240,8.789,108.200,23.050,5.653,1.908,379.000,103.100,27.760,9.119,baseline
1348.000,264.800,81.440,29.050,730.600,103.200,25.870,8.672,111.400,23.080,5.683,1.865,373.400,101.900,27.100,8.918,baseline
1323.000,260.500,79.530,28.620,725.300,102.500,25.650,8.675,104.800,22.950,5.664,1.861,374.300,101.800,26.810,8.862,baseline
1313.000,256.700,79.170,28.450,728.600,102.200,25.630,8.720,109.400,23.020,5.572,1.860,372.300,101.600,27.070,8.835,baseline
1314.000,257.700,79.400,28.440,731.000,102.700,25.650,8.703,109.500,22.660,5.638,1.867,371.500,100.600,27.100,8.821,baseline
1315.000,258.000,79.490,28.500,729.400,103.000,25.520,8.723,108.700,23.280,5.586,1.894,373.800,101.100,27.190,8.922,baseline
1321.000,259.100,80.110,28.800,733.400,102.500,25.960,8.760,114.600,23.240,5.677,1.855,374.000,102.100,27.370,9.021,baseline
1330.000,260.600,80.220,29.220,732.100,103.300,26.180,8.808,111.800,23.070,5.622,1.889,375.600,101.900,27.240,9.047,baseline
1339.000,264.400,81.250,29.380,735.000,104.100,25.890,8.915,110.500,22.920,5.719,1.916,377.100,102.900,27.450,9.064,baseline
1349.000,264.800,82.150,29.530,737.600,105.000,26.330,8.907,113.000,22.850,5.651,1.901,377.300,102.900,27.710,9.142,baseline
1358.000,267.700,83.900,29.890,742.300,104.800,26.580,8.963,110.500,22.910,5.814,1.910,379.200,103.500,27.850,9.247,baseline
1364.000,269.100,83.000,29.300,740.000,103.600,26.080,8.769,114.500,22.910,5.699,1.893,378.500,102.400,27.210,8.885,baseline
1330.000,259.800,80.090,28.570,732.000,102.700,25.900,8.710,109.700,22.400,5.636,1.865,373.000,101.500,27.060,8.950,baseline
1318.000,258.000,78.500,28.220,726.000,102.900,25.710,8.713,109.800,22.990,5.686,1.874,373.000,101.700,26.980,8.781,baseline
1313.000,256.900,78.920,28.350,729.200,101.900,25.970,8.758,111.900,22.560,5.685,1.859,375.400,101.300,26.880,8.896,baseline
1314.000,258.600,78.830,28.390,727.600,103.100,25.760,8.711,109.700,23.470,5.650,1.867,374.800,101.700,26.980,8.894,baseline
1320.000,258.000,79.260,28.650,729.200,103.800,25.840,8.767,107.400,22.460,5.585,1.869,375.700,102.200,27.100,9.000,baseline
1329.000,259.300,80.220,28.890,732.900,104.300,26.170,8.806,111.300,22.680,5.583,1.897,374.300,102.400,27.250,9.008,baseline
1338.000,264.500,81.090,29.000,738.900,103.900,26.240,8.872,111.700,23.450,5.730,1.900,378.900,103.300,27.550,9.095,baseline
1348.000,266.400,81.990,29.350,743.100,105.300,26.290,8.972,112.900,22.780,5.626,1.877,381.300,103.000,27.540,9.275,baseline
1356.000,270.600,82.750,29.760,741.000,104.900,26.510,9.042,112.000,23.130,5.691,1.908,379.900,102.900,27.800,9.267,baseline
1369.000,270.500,83.970,29.960,739.400,104.700,26.360,8.879,108.900,23.300,5.660,1.896,381.700,103.700,27.430,9.044,baseline
1347.000,263.700,81.150,28.900,735.100,103.400,25.900,8.716,109.400,23.400,5.608,1.878,375.200,102.300,27.400,8.812,baseline
1326.000,259.900,80.020,28.490,730.200,103.100,26.000,8.744,111.600,22.660,5.677,1.846,377.000,102.400,27.070,8.880,baseline
1320.000,256.500,79.230,28.460,733.600,103.500,25.830,8.776,107.200,22.760,5.615,1.873,375.800,101.900,27.090,8.960,baseline
1323.000,259.900,79.610,28.590,729.900,103.300,25.930,8.722,110.200,22.880,5.656,1.894,376.300,101.800,27.170,8.957,baseline
1324.000,259.100,79.400,28.630,730.400,103.900,25.970,8.765,111.800,22.120,5.624,1.863,378.200,101.900,27.400,9.026,baseline
1332.000,260.600,80.900,28.890,732.700,104.100,26.250,8.872,111.000,22.970,5.716,1.871,378.400,102.800,27.390,9.048,baseline
1343.000,264.300,81.620,29.180,735.000,104.000,26.510,8.888,109.200,22.670,5.659,1.915,379.200,103.700,27.740,9.070,baseline
1352.000,269.800,81.850,29.640,739.200,103.800,26.410,8.975,109.400,22.990,5.732,1.895,383.300,103.900,27.800,9.118,baseline
1363.000,270.000,82.940,29.800,746.800,104.500,26.550,8.889,115.800,23.240,5.750,1.910,383.000,104.500,27.840,9.201,baseline
1363.000,267.300,81.520,29.220,734.900,103.000,26.160,8.772,110.600,23.170,5.721,1.874,380.200,102.300,27.050,8.971,baseline
1331.000,260.100,79.540,28.400,728.800,103.400,25.770,8.757,110.900,22.950,5.602,1.872,379.100,102.100,26.890,8.893,baseline
1321.000,259.100,79.380,28.290,727.600,102.800,25.880,8.759,111.600,22.980,5.581,1.871,376.400,102.500,27.350,8.911,baseline
1322.000,259.100,79.450,28.320,729.200,103.600,26.040,8.765,109.300,23.090,5.653,1.850,378.100,102.200,27.200,8.915,baseline
1323.000,259.800,79.320,28.600,732.900,103.400,26.020,8.763,111.500,23.000,5.580,1.865,377.300,102.500,27.320,8.954,baseline
1330.000,262.000,80.360,28.760,734.800,103.600,26.420,8.888,109.800,22.540,5.606,1.878,378.900,102.900,27.250,9.016,baseline
1341.000,262.700,80.990,29.080,735.600,104.500,26.200,8.890,113.200,23.220,5.746,1.899,379.200,103.500,27.520,9.119,baseline
1350.000,267.100,81.280,29.390,739.000,104.600,26.370,8.916,108.300,23.320,5.673,1.895,381.300,103.500,27.760,9.097,baseline
1361.000,271.600,82.670,29.690,742.600,105.100,26.510,8.983,113.100,22.940,5.667,1.889,383.700,104.500,27.730,9.192,baseline
1372.000,271.700,83.040,30.130,740.400,105.600,26.820,8.898,115.100,23.050,5.775,1.889,384.100,104.600,27.660,9.085,baseline
1362.000,265.500,81.210,29.000,737.200,103.800,26.020,8.738,109.100,23.590,5.723,1.892,378.300,103.600,27.300,8.876,baseline
1331.000,260.500,79.470,28.230,736.200,102.300,25.900,8.750,111.300,22.970,5.655,1.861,377.900,102.400,27.230,8.875,baseline
1321.000,259.100,78.930,27.990,728.800,102.600,25.790,8.749,116.100,23.070,5.650,1.855,377.800,102.400,27.280,8.858,baseline
1320.000,257.300,78.530,28.220,728.800,102.400,25.710,8.759,110.800,22.720,5.644,1.901,377.600,102.300,26.990,8.808,baseline
1320.000,257.700,78.740,28.250,726.000,103.600,26.060,8.807,111.700,23.060,5.661,1.849,376.300,102.300,27.120,8.919,baseline
1328.000,259.600,79.650,28.680,733.200,104.400,26.100,8.824,112.300,22.500,5.678,1.889,379.700,102.900,27.300,9.044,baseline
1338.000,263.100,81.020,29.000,734.000,104.000,26.320,8.925,114.200,23.150,5.624,1.895,381.200,103.000,27.550,9.055,baseline
1350.000,266.000,81.830,29.270,738.500,103.700,26.410,8.917,112.000,23.640,5.672,1.875,382.800,103.600,27.680,9.078,baseline
1359.000,267.900,82.790,29.510,739.000,104.400,26.530,8.970,110.900,23.090,5.690,1.881,378.300,104.300,27.610,9.186,baseline
1371.000,271.600,83.250,29.970,749.000,105.100,26.730,8.990,114.100,23.000,5.664,1.929,384.700,105.200,27.850,9.196,baseline
1374.000,270.100,82.240,29.280,735.200,103.900,26.050,8.823,110.100,23.310,5.738,1.884,380.700,103.100,27.290,8.852,baseline
1337.000,264.700,79.980,28.340,730.200,102.800,25.940,8.684,114.100,22.730,5.608,1.872,377.900,101.900,27.110,8.819,baseline
1324.000,257.900,78.760,28.180,732.300,102.800,25.820,8.722,112.600,23.050,5.581,1.842,377.600,102.000,27.020,8.867,baseline
1322.000,259.600,78.850,28.080,730.300,102.800,25.740,8.691,113.400,23.080,5.591,1.864,379.200,102.500,27.320,8.798,baseline
1324.000,259.800,78.780,28.190,732.300,102.600,25.920,8.778,113.500,22.930,5.620,1.867,378.900,103.200,27.040,8.837,baseline
1329.000,260.100,79.440,28.510,727.500,103.300,25.870,8.829,113.200,22.750,5.661,1.889,378.800,103.200,27.340,8.959,baseline
1341.000,261.200,80.710,28.630,732.700,104.100,26.140,8.846,115.700,22.530,5.654,1.876,381.400,103.300,27.430,9.063,baseline
1353.000,266.500,81.450,29.150,738.500,104.300,26.300,8.902,112.700,23.510,5.689,1.854,382.200,103.500,27.420,9.077,baseline
1361.000,267.300,82.610,29.520,741.500,105.100,26.590,8.990,111.500,22.910,5.719,1.865,382.800,103.800,27.500,9.126,baseline
1374.000,271.000,83.270,29.830,744.200,104.900,26.710,8.975,112.400,23.010,5.716,1.912,383.800,105.400,27.850,9.129,baseline
1376.000,270.200,82.160,29.180,738.400,104.300,26.310,8.780,114.700,23.660,5.702,1.877,382.300,103.700,27.330,8.895,baseline
1341.000,263.400,79.560,28.460,735.200,103.600,25.820,8.690,111.400,23.200,5.557,1.873,380.000,102.700,27.290,8.870,baseline
1329.000,259.200,78.950,28.330,725.500,102.800,25.990,8.756,107.800,22.570,5.623,1.864,378.300,102.900,27.030,8.847,baseline
1332.000,259.700,79.260,28.400,734.900,103.100,25.990,8.704,109.000,23.230,5.611,1.859,380.900,103.800,27.100,8.817,baseline
1330.000,260.400,78.810,28.220,737.900,103.200,25.890,8.750,111.800,23.010,5.640,1.861,377.400,102.900,27.120,8.973,baseline
1367.000,268.200,80.990,28.870,738.400,103.600,25.790,8.718,111.800,23.790,5.703,1.880,381.300,103.900,27.390,8.817,hard
1337.000,262.100,79.290,28.200,735.600,103.400,25.850,8.711,111.900,23.040,5.642,1.881,378.600,102.700,27.040,8.858,hard
1328.000,260.300,78.760,28.090,730.700,103.300,25.860,8.731,111.500,23.010,5.604,1.857,378.400,103.200,27.170,8.913,hard
1329.000,258.400,79.330,28.120,730.500,103.700,25.930,8.689,112.200,22.720,5.665,1.841,382.000,103.200,27.070,8.839,hard
1331.000,261.500,79.260,28.180,731.900,103.700,25.800,8.795,110.400,23.050,5.621,1.863,380.300,103.000,27.090,8.854,hard
1337.000,262.600,80.100,28.500,738.900,103.400,26.050,8.828,114.800,23.570,5.654,1.867,381.700,103.800,27.410,9.000,hard
1349.000,265.500,80.410,28.700,740.100,104.000,26.260,8.867,111.300,23.200,5.658,1.887,382.000,103.400,27.620,9.013,hard
1359.000,267.300,82.090,29.000,743.500,104.900,26.500,8.893,108.100,23.510,5.669,1.887,384.800,104.300,27.690,9.023,hard
1369.000,270.700,82.730,29.520,742.000,105.000,26.760,8.910,113.300,23.490,5.616,1.909,386.100,105.200,27.900,9.181,hard
1379.000,271.500,82.380,29.230,741.200,104.500,26.100,8.731,112.100,22.880,5.772,1.898,384.300,104.200,27.150,8.840,hard
1342.000,261.900,79.510,28.240,730.300,102.600,25.960,8.689,112.100,22.750,5.693,1.853,379.300,103.400,26.890,8.675,hard
1328.000,258.100,78.430,27.900,731.700,102.800,25.770,8.643,113.700,22.950,5.734,1.849,379.800,102.400,26.730,8.795,hard
1322.000,257.800,78.050,27.800,731.600,103.300,25.740,8.628,112.300,23.380,5.599,1.887,378.500,102.700,26.910,8.809,hard
1323.000,258.800,78.440,27.850,728.900,103.900,25.780,8.709,110.900,23.230,5.713,1.857,378.700,103.100,26.990,8.856,hard
1327.000,260.300,79.000,27.990,736.000,104.100,26.020,8.667,112.500,24.000,5.799,1.873,388.600,106.500,27.600,9.035,hard
1339.000,262.300,79.400,28.000,737.500,103.700,26.050,8.658,118.300,24.440,5.884,1.922,403.500,109.300,28.130,9.263,hard
1354.000,263.400,80.330,28.440,749.200,105.600,26.120,8.872,115.400,23.990,5.917,1.977,404.000,109.700,28.310,9.237,hard
1366.000,268.500,81.370,28.860,746.200,105.600,26.350,8.882,117.600,24.280,5.932,1.954,399.200,108.900,27.900,9.255,hard
1372.000,270.500,82.380,29.360,748.100,105.500,26.590,8.921,118.700,24.250,5.798,1.966,397.000,107.100,28.400,9.235,hard
1377.000,271.500,82.100,28.820,741.100,104.600,25.850,8.727,110.400,23.930,5.754,1.919,387.500,104.800,27.520,8.977,hard
1339.000,262.700,78.950,27.890,736.500,103.200,25.750,8.571,113.200,23.510,5.795,1.911,383.900,104.000,27.160,8.818,hard
1326.000,260.200,78.560,27.480,728.900,102.900,25.750,8.623,116.700,23.970,5.747,1.894,384.500,103.500,27.020,8.824,hard
1323.000,259.000,78.110,27.600,726.600,103.000,25.740,8.656,113.000,23.600,5.712,1.901,383.100,103.400,27.020,8.838,hard
1322.000,259.700,78.580,27.630,729.300,102.900,25.770,8.603,115.700,23.550,5.755,1.888,381.400,103.200,27.130,8.925,hard
1328.000,259.200,79.100,27.880,731.000,103.200,25.870,8.723,113.200,23.710,5.725,1.887,383.500,103.000,27.300,8.986,hard
1339.000,265.000,79.710,28.380,738.500,105.000,26.010,8.747,110.000,23.680,5.698,1.919,387.000,104.400,27.540,8.976,hard
1352.000,264.400,80.790,28.630,743.100,105.200,26.340,8.903,115.900,23.700,5.738,1.888,387.000,105.400,27.840,9.055,hard
1364.000,269.000,82.210,29.040,742.500,105.000,26.460,8.846,115.700,24.040,5.830,1.932,387.700,104.100,27.700,9.001,hard
1356.000,265.800,80.000,28.090,734.300,103.500,26.060,8.751,115.700,23.480,5.845,1.899,384.700,103.800,27.130,8.806,hard
1334.000,260.600,79.210,27.750,734.600,104.200,26.070,8.732,115.600,23.540,5.756,1.890,381.700,102.400,26.980,8.755,hard
1328.000,260.500,79.110,27.790,730.700,103.400,26.080,8.776,109.500,23.250,5.725,1.882,381.900,102.800,27.240,8.788,hard
1333.000,261.000,78.920,27.900,732.600,103.600,26.050,8.784,112.500,22.950,5.718,1.898,382.100,102.900,27.060,8.784,hard
1334.000,261.200,79.020,27.970,735.100,104.500,26.120,8.893,108.500,23.880,5.754,1.914,383.700,103.200,27.060,8.848,hard
1340.000,263.100,80.110,28.090,736.600,104.200,26.250,8.857,112.800,22.970,5.740,1.876,381.300,102.800,27.580,8.893,hard
1351.000,266.400,81.110,28.680,740.500,105.200,26.620,8.899,111.900,23.060,5.714,1.908,383.100,104.000,27.430,8.879,hard
1362.000,267.900,81.650,28.740,745.000,104.500,26.320,8.789,114.300,23.780,5.789,1.914,382.500,103.100,27.230,8.824,hard
1338.000,259.900,78.830,27.590,731.500,102.500,25.930,8.683,113.400,23.300,5.757,1.884,378.100,101.900,26.600,8.696,hard
1322.000,256.200,77.330,27.330,734.400,103.200,25.990,8.662,113.100,23.410,5.728,1.873,377.800,101.000,26.620,8.639,hard
1317.000,258.200,77.300,27.320,729.200,103.000,25.860,8.771,112.800,23.480,5.718,1.908,379.300,102.300,27.010,8.688,hard
1320.000,258.400,77.760,27.360,729.400,103.200,25.670,8.758,112.300,23.310,5.732,1.893,377.800,101.900,26.800,8.757,hard
1320.000,259.000,78.740,27.450,734.700,103.700,25.840,8.789,119.300,23.210,5.730,1.875,380.200,101.800,26.720,8.780,hard
1330.000,260.500,78.960,27.880,733.600,104.200,26.370,8.859,111.500,22.920,5.712,1.908,377.600,102.600,26.980,8.805,hard
1339.000,262.200,79.500,28.070,738.800,104.000,26.270,8.882,111.600,23.660,5.753,1.938,381.500,102.600,27.150,8.922,hard
1348.000,266.500,80.110,28.250,739.000,104.200,25.860,8.752,111.300,23.470,5.740,1.910,381.000,102.000,26.660,8.727,hard
1323.000,257.400,77.830,27.110,728.600,102.600,25.660,8.665,109.000,23.480,5.731,1.896,375.700,100.200,26.420,8.600,hard
1305.000,252.800,76.570,26.810,728.500,101.800,25.540,8.647,109.200,22.870,5.696,1.881,374.400,100.300,26.220,8.513,hard
1298.000,252.100,75.820,26.690,724.300,102.300,25.770,8.607,107.600,23.340,5.655,1.870,371.900,100.300,26.400,8.575,hard
1300.000,252.700,75.510,26.710,722.000,102.300,25.630,8.620,107.100,23.260,5.698,1.898,375.200,100.300,26.390,8.559,hard
1299.000,254.200,76.020,26.710,721.300,103.100,25.770,8.707,112.100,23.400,5.651,1.903,376.600,100.100,26.470,8.631,hard
1306.000,255.500,76.870,26.930,728.100,102.100,25.880,8.800,111.000,23.060,5.718,1.919,375.100,100.400,26.740,8.621,hard
1315.000,256.600,77.660,27.120,732.700,103.200,26.030,8.860,110.300,23.010,5.748,1.908,374.500,101.300,26.920,8.785,hard
1324.000,260.600,77.830,27.540,735.900,102.700,26.310,8.758,106.400,23.040,5.745,1.928,378.000,101.900,26.790,8.651,hard
1314.000,254.500,76.630,26.650,727.600,102.100,25.760,8.665,111.700,23.580,5.631,1.901,372.300,100.400,26.360,8.499,hard
1290.000,251.000,74.760,26.130,726.000,102.400,25.560,8.620,109.600,22.910,5.713,1.888,368.900,98.940,26.210,8.457,hard
1282.000,247.600,74.270,25.960,719.500,102.100,25.430,8.619,106.800,22.220,5.703,1.870,370.900,99.450,25.900,8.427,hard
1284.000,248.900,74.560,25.970,719.800,102.100,25.480,8.646,111.100,23.000,5.726,1.927,369.600,99.810,26.180,8.505,hard
1284.000,250.600,74.780,26.230,723.200,102.700,25.500,8.685,108.600,23.030,5.673,1.873,370.600,98.840,26.490,8.520,hard
1291.000,253.100,75.950,26.470,725.700,102.300,25.850,8.747,114.500,23.220,5.735,1.888,372.100,100.200,26.450,8.587,hard
1301.000,254.200,76.070,26.990,729.200,102.600,25.950,8.767,108.700,23.140,5.779,1.891,373.300,100.100,26.620,8.645,hard
1311.000,255.300,77.260,27.140,734.600,103.100,26.210,8.842,111.900,23.330,5.742,1.909,376.700,100.900,26.730,8.818,hard
1323.000,258.800,77.710,27.480,733.500,103.400,26.090,8.876,109.400,23.460,5.748,1.919,378.300,101.100,26.670,8.690,hard
1311.000,255.200,76.370,26.520,725.100,101.500,25.570,8.683,111.100,23.280,5.664,1.889,373.700,100.100,26.430,8.519,hard
1286.000,248.600,74.690,26.200,724.000,101.600,25.490,8.677,109.100,23.540,5.745,1.877,370.100,100.000,26.150,8.471,hard
1279.000,249.200,74.160,25.990,725.800,101.300,25.600,8.629,109.500,23.060,5.776,1.891,370.100,99.250,26.390,8.510,hard
1283.000,248.300,74.250,26.070,723.700,101.900,25.470,8.731,107.300,22.780,5.710,1.881,371.100,99.000,26.400,8.598,hard
1283.000,248.700,74.950,26.080,726.500,102.100,25.920,8.743,109.300,22.750,5.787,1.901,372.400,100.000,26.420,8.572,hard
1291.000,249.500,75.560,26.510,728.800,102.100,25.770,8.839,108.200,23.180,5.685,1.915,372.600,99.510,26.830,8.651,hard
1302.000,254.200,76.560,26.920,727.700,103.100,25.940,8.923,109.500,23.110,5.682,1.915,377.700,100.800,26.670,8.710,hard
1311.000,255.600,77.350,27.260,730.500,104.300,26.310,8.855,112.600,23.060,5.705,1.920,377.700,100.800,27.180,8.752,hard
1303.000,251.300,76.010,26.300,724.500,102.800,25.770,8.676,113.400,22.960,5.808,1.883,371.900,99.890,26.450,8.567,hard
1282.000,246.900,74.230,26.060,722.200,102.000,25.420,8.690,113.200,22.930,5.622,1.889,371.100,99.850,26.510,8.589,hard
1277.000,246.600,74.150,25.970,723.400,102.100,25.560,8.670,112.400,22.620,5.716,1.867,370.900,100.300,26.420,8.650,hard
1281.000,248.400,74.920,26.100,719.800,101.900,25.600,8.718,111.800,23.050,5.768,1.909,374.400,100.600,26.330,8.636,hard
1284.000,248.500,75.110,26.320,722.800,102.300,25.890,8.707,114.200,23.260,5.757,1.874,372.700,100.600,26.720,8.743,hard
1292.000,251.400,75.850,26.680,726.400,102.600,25.960,8.819,110.100,23.580,5.735,1.903,374.200,100.300,27.040,8.727,hard
1303.000,255.000,76.640,26.840,731.700,103.400,26.000,8.912,113.100,23.480,5.715,1.916,376.300,101.800,27.190,8.801,hard
1315.000,255.500,77.590,27.130,729.200,103.100,25.920,8.776,113.500,22.960,5.849,1.938,378.000,101.200,26.690,8.611,hard
1291.000,249.600,75.150,26.270,719.100,102.100,25.350,8.743,111.100,23.470,5.636,1.907,374.600,100.400,26.470,8.589,hard
1277.000,246.100,74.100,25.820,722.200,101.500,25.610,8.653,111.600,23.190,5.713,1.897,371.300,99.950,26.370,8.510,hard
1275.000,246.000,74.570,25.950,718.900,101.800,25.710,8.730,112.100,22.470,5.723,1.883,373.200,100.600,26.810,8.595,hard
1279.000,248.500,74.180,26.160,723.700,101.600,25.690,8.787,108.600,23.700,5.743,1.900,371.400,99.880,26.480,8.578,hard
1283.000,248.100,74.680,26.330,725.200,102.500,25.790,8.777,111.700,23.080,5.768,1.918,374.600,101.000,26.690,8.714,hard
1291.000,250.800,75.550,26.610,726.400,102.900,26.170,8.869,112.800,22.930,5.794,1.914,375.900,101.500,26.880,8.772,hard
1303.000,254.700,76.850,27.010,732.000,102.600,26.080,8.905,111.900,23.240,5.780,1.909,379.200,102.300,27.220,8.829,hard
1314.000,256.300,77.700,27.210,733.200,103.500,26.410,8.984,115.600,22.900,5.874,1.898,381.600,102.100,27.160,8.919,hard
1324.000,259.300,78.500,27.640,738.700,104.500,26.150,8.920,110.500,23.800,5.759,1.930,381.700,103.100,27.250,8.789,hard
1310.000,254.900,75.920,26.700,727.100,102.300,25.640,8.721,109.300,23.090,5.808,1.889,374.300,101.400,26.610,8.663,hard
1285.000,249.600,74.540,26.150,726.200,101.300,25.620,8.713,112.200,23.200,5.743,1.920,373.100,100.000,26.940,8.706,hard
1280.000,247.500,74.550,26.020,727.000,101.900,25.620,8.741,114.600,22.970,5.720,1.881,374.800,100.500,26.880,8.676,hard
1283.000,247.400,74.420,26.320,727.100,102.300,25.580,8.755,108.100,22.730,5.773,1.912,373.600,100.700,26.790,8.704,hard
1283.000,249.800,75.000,26.320,726.400,102.600,25.670,8.785,114.300,23.020,5.838,1.917,374.500,100.900,27.050,8.780,hard
1292.000,252.800,75.630,26.600,729.200,102.700,26.180,8.854,110.600,23.540,5.806,1.909,378.400,101.000,26.960,8.791,hard
1303.000,253.500,76.740,27.110,734.400,102.600,26.090,8.940,110.600,23.690,5.873,1.909,377.500,102.100,27.060,8.826,hard
1313.000,256.600,77.180,27.420,733.800,103.800,26.370,8.983,111.200,23.480,5.726,1.903,380.700,102.100,27.300,8.892,hard
1325.000,257.700,78.100,27.730,740.800,103.900,26.370,8.984,113.200,23.260,5.806,1.929,380.800,103.000,27.760,9.030,hard
1333.000,259.900,78.640,27.500,732.700,103.100,25.900,8.834,114.000,23.100,5.767,1.925,378.900,101.700,26.960,8.731,hard
1296.000,252.800,75.220,26.650,725.700,102.300,25.800,8.724,112.200,23.830,5.748,1.891,376.400,100.900,26.850,8.712,hard
1289.000,251.000,74.930,26.330,728.900,102.100,25.690,8.758,111.600,23.300,5.773,1.909,372.800,100.900,27.000,8.635,hard
1290.000,249.900,75.370,26.530,726.700,102.200,25.780,8.787,109.900,23.230,5.715,1.898,377.200,101.300,27.100,8.772,hard
1294.000,251.400,75.480,26.660,728.100,102.700,25.800,8.771,111.400,23.400,5.728,1.896,375.100,100.900,26.970,8.761,hard
1298.000,254.100,76.140,26.880,728.200,102.900,26.090,8.868,110.600,22.940,5.766,1.888,376.200,102.000,26.890,8.795,hard
1311.000,256.100,76.960,27.380,732.600,104.100,26.260,8.935,111.700,23.170,5.801,1.924,380.000,102.300,27.380,8.902,hard
1323.000,261.000,78.730,27.810,737.200,103.800,26.250,8.936,111.500,23.370,5.800,1.935,382.600,103.400,27.450,9.005,hard
1334.000,261.300,79.250,28.110,738.600,104.200,26.560,9.063,111.900,23.560,5.820,1.932,384.500,103.300,27.680,9.125,hard
1347.000,264.200,80.340,28.280,737.700,104.200,26.280,8.887,111.300,23.540,5.799,1.942,382.100,103.300,27.400,9.014,hard
1322.000,256.800,77.360,27.250,726.400,103.000,25.730,8.784,110.900,23.620,5.707,1.927,379.200,102.300,27.140,8.769,hard
1304.000,255.300,75.980,26.850,726.600,101.900,25.790,8.738,109.600,23.270,5.755,1.900,379.000,102.100,27.210,8.744,hard
1302.000,254.000,77.110,26.980,728.600,102.300,25.850,8.790,115.000,23.490,5.788,1.912,381.200,102.400,27.000,8.869,hard
1308.000,254.000,76.760,27.160,727.400,103.100,25.810,8.785,112.900,22.990,5.786,1.920,378.900,103.200,27.300,8.819,hard
1310.000,255.400,77.350,27.390,732.100,102.500,25.920,8.851,112.000,23.620,5.830,1.932,381.400,103.700,27.510,8.942,hard
1321.000,256.700,78.420,27.800,734.500,103.300,26.100,8.887,110.000,23.340,5.797,1.942,383.600,102.300,27.520,9.031,hard
1332.000,260.200,79.680,28.090,738.000,103.800,26.310,8.949,113.200,23.390,5.784,1.928,384.400,104.300,27.540,9.082,hard
1343.000,262.400,79.890,28.450,742.300,104.600,26.440,8.943,109.300,23.760,5.807,1.954,387.500,104.300,28.020,9.176,hard
1349.000,262.800,80.170,28.130,737.600,103.800,25.970,8.756,111.700,23.350,5.824,1.931,381.900,103.300,27.360,8.886,hard
1316.000,256.600,77.470,27.480,733.400,103.000,25.810,8.725,112.500,23.370,5.801,1.890,379.300,102.800,27.420,8.821,hard
1309.000,255.800,77.420,27.230,731.500,103.200,25.780,8.695,110.500,23.670,5.699,1.906,382.400,103.100,27.290,8.915,hard
1311.000,256.200,77.330,27.480,731.200,103.400,25.920,8.745,114.500,23.570,5.807,1.913,383.000,102.500,27.380,8.948,hard
1313.000,255.900,77.830,27.580,731.100,103.400,25.840,8.762,113.600,23.430,5.788,1.933,380.900,103.200,27.570,8.987,hard
1320.000,260.000,78.500,27.890,731.500,103.800,26.070,8.825,111.900,23.930,5.868,1.917,387.600,104.000,27.730,9.075,hard
1333.000,263.100,79.500,28.160,741.800,103.900,26.190,8.928,115.200,23.950,5.751,1.931,387.300,104.900,27.560,9.147,hard
1345.000,264.300,81.110,28.580,741.600,105.200,26.270,8.947,116.200,23.960,5.862,1.937,388.400,104.200,28.120,9.218,hard
1356.000,266.600,81.950,29.020,743.000,104.900,26.420,8.932,110.000,23.650,5.861,1.951,390.800,105.100,28.150,9.173,hard
1350.000,263.000,79.640,28.180,733.700,103.400,25.850,8.718,115.600,23.740,5.816,1.976,382.500,104.500,27.610,8.916,hard
1319.000,255.600,78.220,27.490,729.700,103.000,25.690,8.676,112.500,23.650,5.800,1.922,381.700,103.300,27.400,8.969,hard
1314.000,255.800,77.910,27.420,731.800,103.000,25.990,8.694,112.300,23.370,5.849,1.919,382.500,103.300,27.540,8.989,hard
1314.000,258.600,77.460,27.570,729.600,102.800,25.830,8.660,115.400,23.930,5.849,1.932,383.600,103.700,27.710,8.930,hard
1317.000,256.900,78.040,27.710,730.800,102.900,25.960,8.762,112.400,23.660,5.872,1.943,384.700,103.700,27.660,8.944,hard
1325.000,258.900,79.110,28.100,734.700,103.700,25.970,8.809,109.200,23.460,5.904,1.940,384.800,104.000,27.980,9.144,hard
1337.000,262.300,79.820,28.460,739.100,104.300,26.230,8.898,110.300,23.640,5.860,1.929,388.700,104.700,27.870,9.182,hard
1348.000,264.100,80.190,28.880,743.800,104.400,26.630,8.916,115.700,23.580,5.860,1.943,390.600,104.500,27.920,9.297,hard
1357.000,268.600,82.110,29.240,743.500,105.300,26.640,8.993,117.600,23.780,5.883,1.949,391.200,105.700,28.450,9.429,hard
1370.000,270.500,82.760,29.230,744.800,103.600,26.330,8.837,116.300,23.980,5.930,1.954,390.900,104.700,28.050,9.129,hard
1338.000,263.900,79.540,28.120,733.900,103.000,25.850,8.787,112.900,23.070,5.899,1.966,388.600,104.100,27.720,9.060,hard
1321.000,259.000,78.420,27.690,734.700,103.000,25.900,8.709,111.800,23.880,5.902,1.932,384.900,104.000,27.700,8.915,hard
1317.000,258.300,78.730,27.980,734.700,103.100,25.810,8.730,114.000,23.390,5.862,1.925,383.400,103.900,27.570,9.082,hard
1322.000,257.600,78.730,27.960,735.400,103.400,26.040,8.783,114.000,23.930,5.905,1.926,388.000,104.200,28.000,9.108,hard
1326.000,261.800,79.390,28.280,739.300,103.200,26.050,8.786,111.800,23.710,5.804,1.950,385.900,104.900,27.780,9.164,hard
1337.000,262.500,80.840,28.570,735.900,103.800,26.100,8.844,115.700,23.950,5.820,1.952,386.900,105.400,27.820,9.216,hard
1349.000,266.400,81.300,29.080,747.600,104.500,26.450,8.870,112.400,23.470,5.819,1.940,388.600,105.400,28.420,9.284,hard
1362.000,268.500,83.020,29.260,746.600,104.900,26.700,8.926,118.300,23.750,5.965,1.978,390.400,106.000,28.490,9.308,hard
1374.000,271.700,83.760,29.780,747.100,105.700,26.520,8.890,116.000,24.380,5.815,1.984,393.000,106.300,28.530,9.281,hard
1362.000,267.800,80.710,28.670,740.400,104.400,26.020,8.729,111.200,24.180,5.934,1.947,387.700,104.500,27.990,9.152,hard
1333.000,261.100,80.070,28.240,736.000,103.300,26.010,8.746,117.000,23.550,5.835,1.932,386.200,104.500,27.980,9.110,hard
1328.000,259.900,79.540,28.210,732.500,104.300,26.060,8.720,117.100,24.220,5.870,1.946,387.600,105.000,28.050,9.216,hard
1334.000,263.200,79.540,28.350,734.400,103.200,25.940,8.728,112.300,23.790,5.909,1.966,385.700,104.200,28.240,9.223,hard
1335.000,261.800,79.940,28.450,740.800,103.900,26.010,8.767,114.800,23.660,5.819,1.962,388.000,104.900,27.690,9.258,hard
1345.000,267.100,80.870,28.900,741.000,105.200,26.360,8.900,117.100,23.900,5.919,1.946,389.100,105.200,28.200,9.336,hard
1356.000,267.200,82.330,29.370,744.400,104.700,26.430,8.883,112.500,24.050,5.854,1.957,387.200,105.500,28.370,9.339,hard
1367.000,268.900,82.510,29.710,746.200,105.000,26.610,8.948,116.100,23.470,5.897,1.990,392.600,106.400,28.450,9.486,hard
1378.000,273.700,83.810,29.800,746.000,105.000,26.410,8.826,114.100,23.810,5.938,2.015,393.400,106.300,28.350,9.268,hard
1355.000,267.900,80.940,28.790,736.700,104.100,26.080,8.749,115.400,24.150,5.897,1.932,388.100,105.100,28.170,9.075,hard
1334.000,262.700,79.930,28.510,733.300,103.600,25.870,8.691,114.200,24.580,5.941,1.972,385.800,104.500,28.050,9.132,hard
1334.000,262.700,80.320,28.530,742.200,103.300,25.910,8.783,113.000,24.240,5.940,1.930,389.900,104.600,27.830,9.194,hard
1337.000,263.700,80.140,28.620,733.400,103.400,25.920,8.775,110.500,24.070,5.898,1.981,387.400,105.000,28.390,9.228,hard
1339.000,262.700,80.080,28.760,736.900,103.700,25.930,8.846,118.100,23.630,5.884,1.983,388.600,104.800,28.140,9.290,hard
1350.000,267.300,81.250,29.170,742.400,104.500,26.270,8.863,113.300,23.530,5.954,1.980,392.300,105.800,28.340,9.372,hard
1360.000,269.200,82.290,29.470,747.000,103.700,26.350,8.875,117.500,23.650,5.958,1.964,392.400,106.300,28.670,9.372,hard
1370.000,271.700,83.790,29.820,746.100,104.900,26.340,8.961,114.700,23.980,5.936,1.979,394.600,106.500,28.640,9.501,hard
1379.000,272.900,83.550,29.760,741.100,105.200,26.270,8.802,114.500,23.960,5.987,1.990,392.900,105.400,28.060,9.275,hard
1349.000,262.800,81.090,28.710,734.700,103.700,25.930,8.663,114.300,23.950,5.936,1.963,389.000,104.800,27.910,9.176,hard
1331.000,261.000,79.700,28.250,736.100,102.600,25.880,8.684,120.000,23.390,5.885,1.976,387.000,104.600,27.780,9.112,hard
1326.000,259.100,79.850,28.360,736.600,102.900,25.950,8.668,114.900,23.630,5.862,1.978,389.100,104.300,27.690,9.157,hard
1330.000,261.000,79.730,28.440,735.500,103.500,26.160,8.729,113.000,24.500,5.978,1.997,389.300,104.800,27.790,9.188,hard
1331.000,261.200,80.340,28.570,738.000,103.000,25.950,8.787,116.200,23.870,5.958,1.958,388.400,104.900,28.200,9.196,hard
1341.000,264.700,81.220,28.930,738.100,104.100,26.380,8.812,111.500,23.970,5.947,1.980,390.100,105.700,28.100,9.346,hard
1350.000,267.400,81.680,29.290,745.000,104.600,26.410,8.868,114.500,23.920,5.902,1.982,388.800,106.300,28.310,9.313,hard
1358.000,268.400,82.740,29.500,745.300,104.400,26.410,8.848,115.000,24.310,5.950,1.971,392.100,105.500,28.390,9.414,hard
1366.000,269.100,82.510,29.150,738.700,104.200,25.890,8.721,117.700,24.050,6.008,1.984,389.400,105.700,27.930,9.199,hard
1332.000,261.500,80.100,28.240,730.900,103.000,25.790,8.663,116.300,24.040,5.879,1.955,386.100,104.200,27.680,9.123,hard
1319.000,258.000,78.890,28.190,731.900,103.300,25.650,8.672,115.100,24.160,5.816,1.968,383.700,103.300,27.670,9.089,hard
1317.000,258.800,79.010,28.210,734.800,102.500,25.680,8.661,110.200,23.780,6.054,1.972,385.800,104.000,28.070,9.117,hard
1317.000,257.200,79.160,28.110,732.600,102.800,25.970,8.705,117.300,23.610,5.961,1.985,385.200,103.900,27.610,9.093,hard
1322.000,259.100,79.630,28.400,732.900,103.000,25.920,8.727,109.700,23.410,5.886,1.956,385.300,104.500,27.830,9.215,hard
1331.000,264.200,80.410,28.660,739.200,104.200,26.000,8.773,115.200,23.900,5.973,1.978,387.100,105.000,28.280,9.248,hard
1341.000,266.400,81.390,29.160,740.700,103.500,26.120,8.899,115.800,24.390,5.959,1.950,391.400,105.400,28.030,9.249,hard
1350.000,268.000,82.110,29.340,740.500,104.500,26.530,8.941,113.200,24.110,5.915,1.999,391.000,105.600,28.450,9.399,hard
1361.000,269.200,82.320,29.170,743.500,103.800,25.990,8.817,114.000,24.200,5.938,1.974,387.700,104.900,28.010,9.154,hard
1328.000,260.500,79.060,28.210,737.700,103.400,25.760,8.661,114.600,23.880,5.897,1.994,385.500,103.700,27.630,9.019,hard
1317.000,259.100,78.890,27.970,730.400,102.500,25.780,8.688,111.400,24.230,5.898,1.964,382.300,103.000,27.710,9.015,hard
1313.000,257.200,78.970,28.000,736.500,102.900,25.870,8.716,109.300,24.250,5.926,1.979,385.500,104.100,27.840,9.041,hard
1315.000,257.700,78.500,28.060,732.800,102.600,25.820,8.739,113.100,24.090,5.960,1.973,384.300,103.800,27.790,9.072,hard
1317.000,259.200,79.110,28.340,734.700,104.100,25.910,8.778,114.100,23.920,6.044,1.990,386.800,104.900,27.960,9.123,hard
1328.000,260.100,79.970,28.520,732.000,104.700,26.130,8.809,114.800,23.860,5.941,1.990,386.400,104.400,28.120,9.160,hard
1335.000,263.700,81.140,28.860,738.700,104.400,26.340,8.877,117.900,24.060,5.928,1.993,388.500,105.000,28.180,9.247,hard
1346.000,266.500,81.510,29.180,736.900,104.900,26.320,8.880,112.700,23.650,6.009,1.993,392.700,105.100,28.240,9.320,hard
1343.000,262.400,79.980,28.420,732.700,103.200,25.800,8.750,118.700,24.130,5.938,1.999,386.700,103.400,27.520,9.124,hard
1314.000,257.200,78.610,27.890,731.200,102.600,25.590,8.725,116.100,23.890,5.937,1.973,386.400,103.900,27.650,9.063,hard
1307.000,257.000,78.080,27.860,727.400,102.700,25.790,8.747,112.400,23.420,5.931,2.004,385.600,103.100,27.700,9.129,hard
1312.000,258.800,78.570,27.880,735.700,102.300,25.740,8.777,114.700,23.700,5.911,1.985,384.500,103.400,27.530,9.093,hard
1310.000,258.400,79.200,28.020,734.100,103.600,26.020,8.776,116.200,23.660,5.956,1.988,384.800,104.000,27.920,9.136,hard
1317.000,256.500,79.390,28.300,738.300,103.300,26.200,8.829,115.300,23.850,6.025,1.973,387.900,105.000,27.970,9.189,hard
1327.000,260.200,79.860,28.420,740.100,104.300,26.200,8.897,115.800,24.010,6.080,2.012,390.100,104.600,28.010,9.309,hard
1335.000,264.000,81.310,28.790,739.600,104.500,26.320,8.939,117.100,24.620,6.101,2.005,390.900,105.200,28.090,9.326,hard
1345.000,265.100,81.430,28.950,743.900,104.800,26.360,8.891,113.400,24.090,6.065,2.051,390.500,105.400,27.910,9.154,hard
1328.000,260.600,78.970,28.030,739.500,102.800,25.920,8.716,118.800,24.290,5.957,2.017,383.600,104.300,27.700,9.115,hard
1305.000,255.300,77.930,27.620,730.700,103.300,25.800,8.747,114.500,23.900,6.019,1.988,384.300,103.600,27.630,8.907,hard
1299.000,254.800,77.510,27.570,734.200,102.600,26.010,8.784,112.700,23.320,6.045,1.984,385.700,103.400,27.710,9.049,hard
1301.000,255.800,77.580,27.590,731.400,102.400,25.920,8.759,117.100,24.100,5.979,1.993,385.500,103.300,27.650,9.133,hard
1301.000,255.000,78.080,27.670,730.500,103.500,26.000,8.851,115.000,24.090,6.034,1.998,386.200,104.400,27.590,9.129,hard
1309.000,255.100,78.880,27.920,735.400,103.900,25.950,8.830,112.100,24.110,6.055,1.986,385.500,104.800,28.080,9.239,hard
1317.000,258.400,78.900,28.410,733.700,103.700,26.100,8.913,118.500,24.190,6.144,2.029,387.000,105.600,27.910,9.303,hard
1325.000,261.100,80.270,28.480,742.000,104.200,26.270,8.961,117.600,23.520,6.004,2.007,389.600,105.200,28.070,9.284,hard
1335.000,264.200,80.690,28.800,746.400,104.800,26.400,8.979,113.300,23.920,6.042,2.036,391.900,105.700,28.250,9.418,hard
1339.000,262.500,80.110,28.490,742.200,102.800,25.820,8.830,115.100,24.270,6.080,1.996,386.400,104.600,27.990,9.094,hard
1305.000,255.700,77.480,27.490,727.800,103.000,25.580,8.701,113.200,24.180,5.975,2.019,383.200,103.300,27.480,9.042,hard
1296.000,252.700,76.770,27.410,725.700,102.300,25.680,8.740,115.400,24.290,6.047,1.994,382.900,103.900,27.720,9.005,hard
1294.000,253.200,77.090,27.400,728.100,102.400,25.920,8.795,113.800,23.650,6.012,1.996,385.300,103.600,27.790,9.103,hard
1296.000,253.200,77.430,27.540,732.700,103.000,25.990,8.855,108.800,23.960,6.132,2.013,384.200,103.900,27.790,9.176,hard
1299.000,255.800,77.410,27.690,733.600,104.000,26.160,8.880,110.600,24.370,6.009,2.000,385.000,104.400,27.830,9.208,hard
1309.000,256.800,78.750,27.930,734.300,102.900,26.300,8.888,120.200,23.900,6.091,2.002,386.800,104.000,28.150,9.235,hard
1318.000,258.900,79.190,28.340,740.600,104.600,26.460,8.946,114.400,24.070,6.046,2.037,388.900,104.900,28.450,9.281,hard
1328.000,262.100,79.850,28.690,741.400,104.800,26.450,9.005,112.900,24.030,6.054,2.029,389.300,104.400,28.400,9.407,hard
1338.000,263.100,81.760,28.920,744.100,105.800,26.660,9.008,114.500,24.130,6.087,2.062,389.500,106.200,28.520,9.432,hard
1337.000,261.800,79.950,28.260,738.300,103.500,26.010,8.881,117.100,24.070,6.111,2.026,389.900,104.300,27.970,9.146,hard
1305.000,254.900,78.230,27.630,733.300,102.800,26.060,8.832,110.700,23.970,5.939,2.030,387.600,103.800,27.740,9.156,hard
1298.000,255.000,77.540,27.470,725.900,102.400,26.000,8.832,110.800,24.370,6.000,2.015,384.900,103.900,27.810,9.110,hard
1300.000,253.800,77.710,27.690,728.400,103.500,26.030,8.822,115.500,23.950,6.084,1.990,383.400,103.900,27.910,9.187,hard
1300.000,253.700,77.440,27.780,730.200,103.500,26.070,8.914,116.000,24.240,6.066,2.032,385.700,104.400,28.140,9.214,hard
1307.000,255.700,78.600,28.060,739.100,103.200,26.430,8.924,114.900,24.050,6.011,2.024,384.100,104.800,27.810,9.226,hard
1316.000,258.300,79.650,28.340,744.100,104.000,26.310,9.005,114.000,23.540,5.996,2.017,390.000,105.600,28.160,9.373,hard
1326.000,261.200,79.960,28.630,739.600,103.800,26.360,9.027,113.200,24.110,5.990,2.025,389.600,105.000,28.380,9.405,hard
1335.000,263.500,80.290,28.900,742.200,103.800,26.610,9.036,119.300,23.900,6.130,2.021,389.300,105.400,28.430,9.385,hard
1346.000,267.200,81.470,28.860,744.800,104.600,26.380,8.936,112.900,23.940,6.028,2.020,393.800,104.800,28.040,9.251,hard
1321.000,258.400,78.730,27.880,729.500,103.800,26.040,8.849,117.100,24.000,6.053,2.011,386.600,104.600,27.830,9.205,hard
1304.000,254.800,77.680,27.610,728.200,103.200,25.910,8.816,117.700,24.380,6.020,2.015,384.200,104.000,27.950,9.111,hard
1301.000,253.400,78.380,27.760,739.300,103.300,25.990,8.894,113.800,24.110,5.959,1.994,388.000,104.200,27.930,9.246,hard
1306.000,254.800,78.330,27.720,730.600,103.400,26.040,8.859,114.300,24.500,5.978,2.005,385.000,104.200,28.090,9.233,hard
1308.000,255.100,78.610,27.970,737.800,103.600,26.300,8.899,115.600,24.320,6.001,2.030,386.700,105.300,28.240,9.338,hard
1318.000,257.700,79.260,28.440,734.900,104.200,26.710,8.938,115.900,24.220,6.076,2.033,390.300,105.300,28.340,9.369,hard
1327.000,261.300,79.570,28.610,738.800,104.500,26.590,9.046,114.400,23.810,6.052,2.030,389.600,105.800,28.600,9.410,hard
1337.000,264.100,81.000,28.980,744.300,105.400,26.720,9.010,116.400,24.060,6.098,2.008,392.300,106.200,28.760,9.474,hard
1348.000,266.600,82.230,29.190,742.600,104.700,26.470,9.018,114.800,24.350,6.066,2.013,392.500,106.400,28.720,9.393,hard
1340.000,264.900,79.760,28.310,735.700,103.400,26.270,8.866,115.400,23.760,6.026,1.990,387.900,104.900,28.120,9.313,hard
1310.000,255.000,77.960,27.910,735.300,102.800,26.040,8.813,116.300,23.670,5.985,1.967,387.900,104.200,28.050,9.202,hard
1303.000,255.700,77.950,27.620,737.400,103.200,26.030,8.820,113.800,24.420,5.968,2.000,384.000,104.100,28.010,9.207,hard
1306.000,255.200,78.120,27.800,736.700,103.300,26.070,8.836,114.900,24.450,5.958,1.968,387.000,104.400,28.050,9.302,hard
1307.000,255.000,78.550,27.790,732.700,103.700,26.250,8.928,113.000,24.130,5.934,1.999,389.200,105.400,28.200,9.301,hard
1314.000,258.800,79.010,28.290,737.600,103.600,26.270,8.927,116.100,24.050,5.991,2.002,389.300,105.500,28.290,9.401,hard
1323.000,259.800,80.200,28.590,738.200,105.500,26.430,8.969,118.200,24.100,5.983,2.028,390.500,106.000,28.500,9.426,hard
1335.000,261.900,81.180,28.930,745.500,104.700,26.440,8.977,117.600,24.410,5.978,1.991,392.900,106.200,28.480,9.426,hard
1344.000,264.300,81.330,29.220,745.800,105.300,26.600,9.050,115.800,24.540,6.026,2.030,391.900,107.500,28.730,9.507,hard
1354.000,268.400,82.760,29.470,746.600,105.400,26.680,8.936,115.900,23.820,5.995,2.015,395.300,106.800,28.790,9.433,hard
1342.000,262.700,80.400,28.470,739.400,104.400,26.020,8.847,113.700,24.800,6.006,2.021,390.400,105.000,28.210,9.286,hard
1314.000,257.700,78.560,27.860,736.100,103.500,26.130,8.794,116.100,24.070,5.974,1.969,390.500,104.700,27.990,9.159,hard
1305.000,256.700,77.910,27.760,735.700,103.400,26.040,8.783,118.500,24.290,5.995,2.011,384.700,104.100,28.100,9.305,hard
1307.000,256.700,78.600,27.820,733.100,103.400,26.090,8.809,118.100,24.150,6.000,1.990,386.800,105.300,28.000,9.252,hard
1309.000,255.700,78.670,28.010,739.100,103.600,26.250,8.909,112.400,23.990,6.037,1.977,389.500,105.200,28.460,9.331,hard
1317.000,258.300,78.790,28.310,735.500,104.400,26.270,8.967,114.800,24.160,6.003,2.000,389.700,105.400,28.420,9.375,hard
1328.000,260.900,79.980,28.690,741.300,105.300,26.290,8.993,118.000,24.440,6.088,2.014,393.200,106.500,28.480,9.403,hard
1338.000,263.800,80.740,28.950,741.800,105.300,26.450,8.994,115.400,24.090,5.970,2.017,393.600,106.600,28.710,9.515,hard
1346.000,266.800,82.170,29.340,743.200,105.100,26.720,9.038,117.800,24.060,5.998,2.019,394.400,106.800,28.600,9.609,hard
1357.000,267.300,82.700,29.660,748.100,105.500,26.500,8.992,116.300,24.750,6.121,2.020,394.800,107.000,28.750,9.512,hard
1345.000,262.900,80.370,28.520,741.200,103.800,26.200,8.838,118.000,24.300,6.099,2.001,389.700,105.700,28.200,9.286,hard
1319.000,257.700,79.170,28.080,733.800,103.200,26.130,8.796,116.300,23.660,6.017,1.994,388.700,105.400,28.440,9.257,hard
1310.000,257.500,78.030,27.960,735.800,104.000,26.250,8.835,120.500,23.900,5.985,1.970,388.200,105.200,28.190,9.251,hard
1315.000,259.900,79.050,28.160,739.600,104.000,26.280,8.796,111.500,23.940,5.986,1.994,387.600,105.000,28.370,9.379,hard
1315.000,258.800,78.980,28.090,733.500,103.300,26.200,8.849,115.600,24.330,6.035,2.023,390.100,105.600,28.130,9.382,hard
1323.000,263.000,80.310,28.410,740.000,104.100,26.210,8.915,115.100,24.710,6.010,1.961,391.700,105.500,28.530,9.410,hard
1334.000,260.800,80.790,28.800,738.000,105.300,26.460,9.017,115.300,23.730,6.001,2.026,392.000,106.700,28.470,9.540,hard
1343.000,266.100,80.860,29.070,744.800,105.000,26.650,8.975,116.500,24.200,5.988,1.998,390.400,106.300,28.780,9.586,hard
1352.000,268.700,82.080,29.400,744.300,105.700,26.710,9.062,116.800,24.360,6.055,2.003,396.200,106.700,28.900,9.634,hard
1364.000,269.000,83.790,29.480,748.700,104.600,26.450,8.853,116.500,24.290,6.043,2.029,393.500,106.600,28.470,9.449,hard
1335.000,261.200,80.010,28.350,738.900,104.500,26.020,8.807,114.700,24.050,5.943,1.973,388.500,105.500,28.280,9.338,hard
1319.000,257.000,79.050,28.100,739.100,103.200,26.060,8.737,112.900,23.910,5.966,1.978,389.700,105.700,28.060,9.360,hard
1316.000,256.900,79.150,28.140,736.000,103.900,26.100,8.756,115.600,23.960,5.978,1.990,388.100,105.500,28.200,9.296,hard
1318.000,260.600,79.580,28.230,737.000,103.900,26.240,8.800,114.500,24.250,5.945,1.975,390.900,105.300,28.180,9.336,hard
1322.000,261.300,79.690,28.340,738.400,104.200,26.450,8.863,116.300,24.300,6.009,1.981,391.000,105.400,28.440,9.511,hard
1332.000,261.600,80.930,28.810,743.000,104.300,26.220,8.912,115.500,23.980,5.895,2.013,393.000,106.700,28.630,9.576,hard
1341.000,265.300,81.740,29.050,743.800,105.000,26.490,8.968,116.700,23.940,5.948,2.000,395.600,106.600,28.880,9.594,hard
1351.000,267.700,82.120,29.410,749.500,104.800,26.590,8.952,118.000,24.500,5.997,1.992,394.200,107.200,28.800,9.652,hard
1361.000,269.700,83.380,29.550,747.300,104.500,26.280,8.877,122.000,24.170,5.962,1.990,394.200,106.700,28.550,9.464,hard
1336.000,261.800,80.370,28.450,738.500,103.600,26.070,8.716,115.700,24.500,6.015,1.977,389.900,105.200,28.330,9.340,hard
1317.000,259.300,78.850,28.010,735.300,103.800,25.800,8.687,116.400,24.250,5.995,1.970,387.600,104.500,28.010,9.280,hard
1311.000,258.400,78.580,27.990,736.900,103.800,25.880,8.758,114.200,23.940,5.990,1.984,388.100,105.100,28.120,9.335,hard
1315.000,259.000,79.010,28.060,737.100,103.600,26.020,8.775,114.300,23.870,6.019,1.965,389.700,105.900,28.060,9.348,hard
1317.000,260.300,79.340,28.270,738.200,104.400,26.130,8.783,116.500,24.330,5.915,2.007,388.700,104.900,28.480,9.392,hard
1326.000,262.200,79.540,28.760,743.000,104.400,26.210,8.884,115.800,24.300,5.992,1.969,392.400,106.000,28.460,9.549,hard
1335.000,264.800,80.900,28.930,744.700,104.600,26.540,8.913,119.600,24.220,5.930,1.996,392.700,105.600,28.690,9.593,hard
1345.000,264.700,81.820,29.250,747.600,104.900,26.310,8.964,119.100,24.400,6.037,2.002,395.900,107.000,28.570,9.597,hard
1356.000,268.900,82.570,29.570,743.900,104.000,26.550,8.896,113.900,24.280,6.097,1.996,396.000,107.300,28.810,9.459,hard
1350.000,264.700,81.100,28.690,740.600,103.200,25.860,8.819,111.800,23.920,5.927,2.003,389.200,105.300,28.470,9.310,hard
1319.000,260.000,79.250,28.150,735.900,104.400,25.930,8.717,117.800,23.700,6.007,1.981,388.900,105.200,27.820,9.317,hard
1310.000,258.800,78.320,27.930,736.500,103.300,25.930,8.804,111.600,23.740,5.954,1.968,386.900,105.200,27.980,9.318,hard
1312.000,258.100,79.400,28.040,737.100,103.900,26.030,8.811,116.400,24.190,5.958,1.982,389.000,105.100,28.180,9.212,hard
1311.000,256.700,78.610,28.080,736.700,103.200,26.150,8.778,114.400,24.200,5.922,1.990,387.200,105.400,28.160,9.301,hard
1319.000,258.800,80.050,28.320,741.000,103.700,26.310,8.819,116.000,24.080,6.004,1.983,392.000,105.600,28.600,9.393,hard
1328.000,260.800,80.420,28.810,743.800,104.000,26.390,8.868,117.100,23.970,5.959,1.994,391.400,105.700,28.450,9.383,hard
1337.000,262.700,81.640,28.970,748.000,104.600,26.540,8.926,115.300,24.540,5.995,1.983,391.300,106.100,28.530,9.481,hard
1348.000,266.400,81.790,29.270,745.900,105.000,26.630,8.953,113.400,24.620,5.970,2.003,393.800,106.100,28.750,9.549,hard
1359.000,269.000,82.470,29.320,747.900,104.300,26.500,8.888,118.700,24.280,5.999,1.996,391.300,105.500,28.260,9.328,hard
1331.000,261.800,80.050,28.380,738.600,103.100,25.990,8.761,117.000,24.190,6.054,2.009,389.100,104.400,28.260,9.214,hard
1315.000,259.600,78.910,27.950,738.900,103.700,25.970,8.778,115.200,24.560,5.984,2.002,384.300,104.500,28.160,9.174,hard
1310.000,258.300,78.230,28.070,735.800,104.200,26.180,8.852,117.000,23.500,5.970,1.973,388.400,104.000,27.750,9.250,hard
1312.000,259.600,78.770,27.990,739.000,103.600,26.150,8.829,117.200,24.350,6.034,2.002,387.800,105.000,28.030,9.221,hard
1315.000,257.700,78.820,28.180,741.600,104.700,25.960,8.868,114.000,24.130,6.006,2.030,385.900,105.000,28.330,9.313,hard
1324.000,260.200,80.080,28.460,744.200,104.900,26.330,8.921,113.700,24.510,6.062,2.019,388.500,104.900,28.110,9.341,hard
1332.000,261.500,80.980,28.910,743.300,105.100,26.640,8.905,113.700,23.400,6.038,1.982,390.500,105.600,28.650,9.457,hard
1341.000,263.600,81.540,29.100,749.100,105.500,26.760,8.997,114.300,24.590,5.972,2.014,390.000,106.500,28.480,9.482,hard
1351.000,264.800,82.250,29.280,746.300,105.200,26.550,8.915,113.800,23.590,6.026,1.993,392.600,106.200,28.410,9.337,hard
1334.000,262.100,79.150,28.320,742.100,103.700,26.140,8.762,117.800,23.360,5.993,1.975,385.900,104.200,28.310,9.174,hard
1313.000,258.500,78.820,27.940,739.200,103.400,26.130,8.740,114.900,23.940,6.029,1.989,386.100,104.600,27.940,9.165,hard
1310.000,257.000,78.210,27.970,735.600,103.800,26.110,8.800,114.700,24.490,5.992,2.000,388.700,104.600,28.010,9.238,hard
1313.000,257.400,79.500,28.090,735.100,103.400,26.120,8.811,114.200,24.100,6.022,1.994,385.700,105.100,28.060,9.192,hard
1314.000,258.500,79.540,28.210,737.600,104.000,26.040,8.876,114.900,23.820,5.978,2.009,386.500,104.900,28.130,9.342,hard
1324.000,260.200,80.200,28.500,740.400,104.900,26.410,8.864,114.200,24.560,6.030,2.017,387.100,105.100,28.100,9.325,hard
1333.000,261.500,80.900,28.870,743.600,104.600,26.430,8.906,117.300,24.910,6.026,2.007,391.200,105.000,28.290,9.360,hard
1340.000,265.000,81.100,29.020,741.200,105.200,26.550,8.992,114.500,24.890,6.054,2.016,391.900,106.100,28.390,9.492,hard
1350.000,264.600,81.820,28.950,742.600,104.000,26.450,8.849,113.900,24.180,6.036,2.012,388.800,104.700,27.980,9.267,hard
1319.000,258.100,78.860,27.980,738.100,103.000,26.030,8.808,117.800,24.490,5.984,1.972,384.400,103.900,27.760,9.128,hard
1307.000,255.400,77.780,27.720,728.400,103.200,26.180,8.772,117.000,24.120,6.002,1.989,386.000,103.800,27.880,9.147,hard
1302.000,255.400,77.790,27.790,735.300,103.500,25.950,8.793,115.000,24.360,6.016,2.018,384.600,103.900,27.770,9.169,hard
1305.000,256.600,78.340,27.810,735.900,103.400,26.240,8.837,115.900,24.080,6.037,1.983,385.000,104.100,27.870,9.159,hard
1308.000,257.700,78.260,28.000,741.800,103.700,26.410,8.866,116.100,24.080,6.024,2.002,387.800,104.800,27.920,9.245,hard
1317.000,260.800,79.400,28.160,738.900,104.400,26.550,8.918,112.800,24.960,6.122,2.034,388.900,104.900,28.200,9.226,hard
1327.000,262.300,80.490,28.650,742.300,105.200,26.430,8.994,115.800,23.760,6.086,2.015,389.400,105.600,28.340,9.316,hard
1335.000,263.500,80.840,28.890,744.800,104.400,26.640,9.025,116.100,24.320,6.033,2.028,391.400,105.500,28.250,9.327,hard
1344.000,265.900,82.000,29.160,742.400,105.100,26.700,9.025,119.200,24.380,6.066,2.013,393.900,105.600,28.580,9.462,hard
1348.000,265.100,81.200,28.520,737.300,103.900,26.370,8.831,116.500,24.270,6.012,2.035,387.800,104.400,28.020,9.149,hard
1314.000,256.600,78.110,27.880,735.500,103.200,26.010,8.770,116.600,24.140,5.967,2.010,385.100,104.600,28.110,9.142,hard
1303.000,256.500,77.850,27.560,735.000,103.100,26.100,8.791,115.100,24.640,6.116,2.000,383.900,103.500,27.700,9.171,hard
1302.000,255.000,78.040,27.680,732.500,103.900,26.080,8.820,113.500,24.700,5.965,1.978,385.600,103.400,27.840,9.156,hard
1302.000,255.500,77.930,27.740,736.700,104.000,26.200,8.895,116.200,23.950,6.003,2.002,386.000,104.600,27.860,9.255,hard
1307.000,258.900,78.730,28.020,738.200,103.400,26.470,8.947,115.600,24.030,6.074,2.021,385.600,104.800,27.910,9.292,hard
1317.000,258.700,79.770,28.230,736.500,104.400,26.280,8.978,114.200,24.600,6.085,2.032,387.300,104.500,28.090,9.334,hard
1326.000,262.200,80.340,28.610,748.800,105.100,26.680,9.021,115.900,24.290,5.973,2.014,389.400,105.600,28.150,9.430,hard
1334.000,263.600,80.960,28.910,744.100,105.200,26.780,9.090,118.900,24.090,6.157,2.016,389.400,105.100,28.480,9.499,hard
1344.000,266.000,81.750,29.190,748.200,104.900,26.520,9.085,114.800,24.080,6.013,2.015,392.500,106.500,28.680,9.426,hard
1353.000,268.500,82.040,28.950,743.800,104.800,26.280,8.903,116.800,24.390,6.132,2.031,389.400,105.300,28.200,9.196,hard
1319.000,258.500,78.470,27.960,735.300,103.800,26.090,8.868,114.400,24.420,6.004,1.991,386.700,104.100,27.690,9.198,hard
1306.000,255.900,77.950,27.790,731.600,103.300,26.000,8.816,111.200,24.050,5.979,2.011,383.800,103.600,27.950,9.168,hard
1303.000,254.600,78.260,27.690,736.900,103.400,26.180,8.847,112.900,24.020,6.020,1.991,385.500,104.300,27.850,9.152,hard
1304.000,256.000,78.700,27.690,735.600,103.500,26.150,8.897,118.900,24.610,6.002,2.012,385.700,104.100,27.920,9.160,hard
1309.000,258.500,78.080,27.980,742.300,104.300,26.260,8.931,115.700,24.700,6.071,2.014,387.800,104.200,27.850,9.196,hard
1318.000,260.100,79.740,28.360,740.000,104.400,26.430,8.933,116.200,23.990,6.027,2.015,388.500,104.800,28.130,9.411,hard
1326.000,261.800,80.210,28.790,742.800,104.600,26.620,9.016,118.400,24.470,6.126,2.019,391.100,105.600,28.310,9.366,hard
1313.000,256.900,79.400,28.140,738.900,104.500,26.150,8.842,114.600,24.150,5.980,2.003,386.200,104.800,28.070,9.307,bogus
1316.000,258.900,79.030,28.280,739.600,104.600,26.360,8.931,110.400,24.210,6.027,1.997,390.300,105.800,28.070,9.323,bogus
1325.000,259.400,80.440,28.540,742.900,104.900,26.620,8.941,114.800,24.230,5.990,2.016,390.500,105.800,28.290,9.347,bogus
1335.000,261.900,80.740,28.960,740.300,105.300,26.790,8.927,112.000,24.440,6.057,1.989,391.900,106.300,28.390,9.379,bogus
1344.000,264.900,81.670,29.160,745.700,105.400,26.840,9.021,118.200,24.990,6.066,2.013,392.600,106.500,28.630,9.455,bogus
1395.000,279.600,87.100,31.640,751.400,104.800,26.580,8.868,117.100,23.470,5.938,1.973,394.300,107.200,29.360,9.710,hard
1403.000,279.300,87.990,31.000,744.100,104.200,26.210,8.663,119.100,24.450,6.019,1.936,391.000,106.200,28.600,9.502,hard
1368.000,272.200,84.400,30.180,740.000,103.200,26.180,8.629,117.700,24.210,5.808,1.924,386.300,105.300,28.380,9.401,hard
1355.000,269.200,83.870,29.990,737.200,102.800,25.630,8.618,115.600,23.840,5.901,1.919,386.700,105.300,28.150,9.376,hard
1353.000,270.500,83.680,30.040,736.600,103.700,25.900,8.632,118.200,23.950,5.846,1.910,389.000,104.700,28.510,9.382,hard
1354.000,269.300,84.450,30.080,737.900,103.000,25.940,8.593,113.300,23.570,5.854,1.903,386.200,106.100,28.280,9.417,hard
1357.000,270.000,84.470,30.350,736.500,103.200,26.060,8.746,115.900,24.150,5.976,1.933,389.300,105.900,28.540,9.565,hard
1367.000,275.200,85.100,30.640,741.300,103.100,26.460,8.760,115.000,23.810,5.873,1.966,389.100,106.300,28.730,9.624,hard
1378.000,275.500,86.560,31.080,747.000,104.500,26.400,8.756,117.000,23.800,5.906,1.930,390.800,106.900,28.950,9.733,hard
1388.000,278.300,86.590,31.410,745.400,104.000,26.590,8.810,112.700,23.980,5.917,1.919,392.900,107.100,29.040,9.757,hard
1397.000,281.600,87.640,31.680,753.500,104.800,26.490,8.785,116.200,23.710,5.937,1.929,396.300,107.400,29.250,9.687,hard
1392.000,275.500,85.690,30.670,740.200,102.900,25.940,8.628,120.200,24.470,5.882,1.917,388.500,104.500,28.300,9.526,hard
1360.000,269.000,84.110,29.960,741.300,103.100,25.810,8.527,116.500,24.180,5.887,1.925,383.800,105.900,28.440,9.420,hard
1353.000,270.100,83.280,29.870,737.700,102.600,26.010,8.625,116.300,24.030,5.940,1.890,387.800,104.800,28.300,9.348,hard
1353.000,271.100,83.430,30.080,738.500,103.300,26.100,8.574,118.800,23.880,5.856,1.897,384.800,104.500,28.480,9.446,hard
1354.000,268.200,83.730,30.100,737.900,104.100,25.980,8.674,117.400,23.540,5.817,1.902,384.900,105.500,28.450,9.455,hard
1360.000,272.200,84.620,30.540,739.000,103.300,26.150,8.712,117.200,23.260,5.925,1.907,388.600,105.400,28.270,9.556,hard
1371.000,273.900,85.390,30.920,737.600,104.000,26.220,8.744,115.100,23.710,5.841,1.890,389.700,106.100,29.150,9.653,hard
1381.000,277.100,86.660,31.370,744.200,104.500,26.340,8.760,120.600,23.940,5.838,1.905,391.000,107.000,28.840,9.792,hard
1393.000,277.300,87.780,31.650,745.700,104.900,26.640,8.789,116.800,23.970,5.716,1.923,390.900,107.200,29.040,9.845,hard
1405.000,283.000,88.450,31.910,751.000,104.300,26.750,8.728,114.300,23.670,5.830,1.896,392.500,106.700,28.940,9.653,hard
1390.000,278.600,85.770,30.650,743.200,103.600,26.120,8.621,116.800,24.420,5.751,1.880,385.900,105.500,28.360,9.430,hard
1364.000,270.800,84.420,30.300,733.300,102.600,25.860,8.612,117.200,23.540,5.779,1.886,385.100,105.300,28.440,9.445,hard
1357.000,270.100,83.760,30.210,740.500,102.700,25.850,8.608,114.400,23.000,5.758,1.896,383.000,105.100,28.440,9.392,hard
1361.000,269.700,84.450,30.250,737.900,103.700,25.970,8.598,114.900,23.460,5.728,1.868,383.600,104.700,28.300,9.400,hard
1359.000,270.100,84.630,30.380,739.000,103.900,26.120,8.632,115.300,24.060,5.839,1.888,384.100,105.100,28.150,9.518,hard
1368.000,271.200,85.020,30.620,741.800,103.900,26.280,8.645,115.900,23.300,5.764,1.893,384.700,104.900,28.600,9.659,hard
1378.000,274.900,86.220,30.900,744.500,104.200,26.240,8.702,118.600,23.720,5.858,1.873,386.100,105.400,28.800,9.591,hard
1388.000,278.600,87.170,31.290,745.000,105.400,26.540,8.768,114.300,23.480,5.745,1.875,388.900,106.900,28.860,9.664,hard
1397.000,278.800,87.650,31.480,747.700,104.600,26.120,8.630,118.500,23.780,5.767,1.903,389.400,106.200,28.670,9.484,hard
1378.000,272.800,85.470,30.290,739.100,102.700,25.840,8.569,117.000,23.750,5.765,1.863,383.300,104.400,28.040,9.395,hard
1358.000,270.300,83.560,30.130,738.700,102.800,25.730,8.528,112.900,23.940,5.680,1.870,380.300,104.500,28.040,9.343,hard
1354.000,270.600,84.350,30.250,740.600,103.700,25.910,8.587,114.400,23.550,5.599,1.858,381.600,103.400,28.170,9.391,hard
1358.000,270.200,84.640,30.160,737.000,103.100,25.960,8.655,117.000,23.470,5.724,1.845,381.000,104.100,27.990,9.391,hard
1358.000,271.100,84.370,30.410,735.300,103.700,25.760,8.621,109.500,23.400,5.741,1.865,381.100,104.400,28.150,9.507,hard
1368.000,270.900,85.260,30.800,741.500,104.100,26.040,8.673,113.900,23.710,5.684,1.854,383.500,104.700,28.260,9.541,hard
1378.000,275.700,86.480,31.140,738.200,104.700,26.200,8.747,113.600,23.580,5.719,1.865,382.700,104.800,28.410,9.620,hard
1390.000,279.300,87.030,31.300,743.000,104.300,26.330,8.743,115.300,23.840,5.712,1.859,386.500,105.800,28.950,9.629,hard
1397.000,280.200,87.330,31.020,741.900,103.600,25.960,8.593,112.600,23.560,5.783,1.871,380.500,104.000,27.990,9.270,hard
1362.000,272.400,84.240,30.030,737.000,103.200,25.620,8.556,111.900,23.670,5.644,1.832,379.000,103.600,27.570,9.208,hard
1348.000,268.900,83.630,29.930,732.100,102.500,25.860,8.528,115.300,23.850,5.652,1.820,375.900,103.500,27.570,9.202,hard
1347.000,269.300,83.380,30.030,736.900,102.600,25.960,8.526,115.600,23.370,5.625,1.857,375.400,101.800,27.510,9.189,hard
1348.000,268.800,82.960,29.920,735.700,103.100,25.720,8.576,113.000,22.830,5.592,1.840,371.800,102.000,27.720,9.252,hard
1351.000,268.900,83.710,30.100,736.700,103.000,26.100,8.620,111.100,24.040,5.638,1.850,375.500,103.500,27.730,9.243,hard
1361.000,272.100,84.490,30.440,739.800,103.400,26.370,8.633,111.100,23.340,5.628,1.860,379.600,103.600,27.850,9.377,hard
1371.000,274.900,85.560,30.870,743.000,103.600,26.120,8.680,110.400,23.570,5.657,1.869,380.900,103.900,28.130,9.348,hard
1381.000,273.400,86.560,31.150,742.700,104.200,26.310,8.728,113.800,23.630,5.631,1.877,382.400,104.100,28.180,9.407,hard
1379.000,274.100,85.190,30.270,738.700,102.600,25.600,8.551,114.000,22.970,5.589,1.859,371.800,101.800,27.230,9.056,hard
1347.000,265.900,83.320,29.670,732.400,101.900,25.660,8.473,113.600,22.850,5.609,1.827,372.200,100.100,26.750,9.063,hard
1338.000,266.300,82.420,29.510,730.500,102.200,25.680,8.481,110.400,22.910,5.634,1.849,370.400,101.000,27.240,8.943,hard
1340.000,265.600,82.720,29.500,732.200,102.200,25.770,8.561,115.300,23.450,5.572,1.843,366.600,100.500,27.020,9.091,hard
1338.000,265.500,82.580,29.660,729.100,102.200,25.830,8.577,114.800,23.460,5.696,1.842,368.700,100.800,27.190,9.022,hard
1343.000,266.600,83.030,29.880,736.100,102.500,26.030,8.673,111.800,23.160,5.666,1.829,371.300,100.900,27.290,9.149,hard
1355.000,269.800,83.950,30.330,739.200,103.500,26.270,8.712,111.800,23.880,5.623,1.852,369.300,101.300,27.350,9.127,hard
1362.000,273.000,84.250,30.540,740.000,103.000,26.400,8.793,115.600,22.930,5.631,1.854,375.100,102.100,27.470,9.190,hard
1373.000,272.200,85.840,31.000,743.600,104.200,26.160,8.675,112.400,23.590,5.688,1.870,372.900,101.900,27.570,9.104,hard
1357.000,270.500,83.660,29.750,736.300,102.800,25.650,8.574,114.200,23.280,5.637,1.829,365.400,99.700,26.670,8.908,hard
1334.000,264.100,82.030,29.210,728.500,102.200,25.500,8.568,108.100,23.750,5.547,1.847,363.800,98.550,26.610,8.903,hard
1327.000,264.100,81.470,29.350,733.000,102.700,25.790,8.544,108.200,22.900,5.538,1.813,364.200,99.580,26.730,8.899,hard
1332.000,263.800,81.780,29.310,730.700,103.300,25.690,8.584,108.200,22.720,5.598,1.837,363.800,99.230,26.730,8.849,hard
1330.000,262.900,82.230,29.410,736.500,102.000,26.020,8.670,112.200,22.680,5.620,1.836,361.500,99.640,26.580,8.881,hard
1339.000,267.000,82.570,29.730,734.500,102.600,26.230,8.701,114.700,23.380,5.622,1.815,365.500,100.200,26.430,9.022,hard
1349.000,268.500,83.950,30.080,737.800,103.400,26.250,8.739,108.000,22.700,5.659,1.843,367.800,100.700,27.200,9.050,hard
1357.000,272.200,83.980,30.430,737.600,103.500,26.230,8.714,115.500,23.570,5.635,1.874,369.200,99.810,27.130,9.126,hard
1367.000,272.400,84.570,30.260,741.300,103.000,26.010,8.633,108.900,23.540,5.588,1.877,364.900,100.100,26.890,8.868,hard
1336.000,265.300,81.860,29.240,731.400,102.000,25.780,8.557,115.100,23.050,5.688,1.833,360.100,98.710,26.100,8.725,hard
1323.000,263.400,81.010,29.040,731.500,102.300,25.930,8.609,114.200,22.790,5.573,1.837,358.400,98.470,25.810,8.784,hard
1321.000,263.800,80.970,29.220,731.200,102.700,25.910,8.685,111.000,23.330,5.599,1.869,359.800,98.740,26.350,8.695,hard
1324.000,262.000,81.470,29.190,733.300,102.700,25.910,8.725,108.700,22.940,5.621,1.840,360.900,97.900,26.250,8.776,hard
1327.000,262.800,82.140,29.400,735.900,102.600,26.180,8.768,112.400,23.300,5.591,1.871,360.500,98.370,26.590,8.884,hard
1337.000,266.200,82.270,29.750,736.600,103.400,26.260,8.872,109.300,23.560,5.717,1.867,363.300,99.160,26.370,8.929,hard
1346.000,268.000,83.520,30.070,737.100,104.500,26.330,8.858,107.000,23.460,5.670,1.892,364.400,99.480,26.770,9.040,hard
1355.000,270.100,84.120,30.330,741.900,104.100,26.410,8.805,106.000,23.430,5.602,1.880,362.800,100.200,26.670,8.900,hard
1345.000,265.200,82.530,29.330,732.200,102.600,25.870,8.637,114.300,23.390,5.700,1.848,357.800,97.490,26.160,8.644,hard
1320.000,261.100,80.420,28.570,728.200,102.500,25.760,8.631,106.600,23.330,5.673,1.878,357.600,97.170,25.840,8.556,hard
1313.000,259.900,80.340,28.690,727.400,102.000,26.150,8.680,112.100,22.690,5.577,1.857,356.300,96.720,25.850,8.683,hard
1315.000,259.000,80.530,28.850,732.100,102.400,26.050,8.672,108.900,23.290,5.663,1.854,357.300,97.330,25.890,8.586,hard
1313.000,260.500,80.450,28.840,732.000,102.100,26.030,8.745,113.400,22.710,5.698,1.868,355.500,96.300,26.140,8.700,hard
1322.000,260.600,81.290,29.180,736.000,103.100,26.120,8.787,106.000,22.690,5.690,1.878,358.000,97.960,26.220,8.717,hard
1330.000,265.700,81.960,29.460,733.100,104.000,26.410,8.872,112.600,23.500,5.725,1.884,360.000,97.640,26.300,8.758,hard
1340.000,267.100,83.220,29.870,741.500,104.200,26.600,8.924,112.700,23.040,5.740,1.893,360.700,98.460,26.620,8.862,hard
1349.000,270.500,83.860,29.960,736.800,105.300,26.710,8.923,111.000,22.770,5.753,1.891,362.500,98.660,26.340,8.820,hard
1348.000,265.600,82.490,29.170,730.900,102.500,26.170,8.723,111.600,23.520,5.821,1.877,356.200,96.940,25.670,8.549,hard
1314.000,259.600,79.710,28.400,729.700,102.700,25.850,8.662,115.500,22.910,5.619,1.841,352.300,96.080,25.740,8.541,hard
1306.000,257.300,79.950,28.340,721.500,102.800,26.020,8.665,114.500,23.060,5.616,1.870,353.200,95.570,25.870,8.521,hard
1306.000,257.800,79.760,28.500,725.200,102.300,26.240,8.721,106.600,23.050,5.741,1.860,353.300,96.030,25.880,8.566,hard
1306.000,257.800,79.630,28.460,730.700,102.400,26.140,8.781,111.400,23.360,5.667,1.905,352.600,96.240,25.410,8.591,hard
1310.000,258.200,79.900,28.770,731.300,103.100,26.060,8.837,111.300,23.100,5.686,1.901,353.500,96.830,25.840,8.614,hard
1321.000,262.400,81.260,29.160,732.700,104.000,26.490,8.917,111.000,23.260,5.671,1.895,359.400,97.050,26.210,8.694,hard
1331.000,265.500,81.620,29.490,737.600,103.700,26.410,8.977,111.100,23.310,5.731,1.896,357.800,98.180,26.150,8.771,hard
1340.000,267.300,82.570,29.750,740.100,104.400,26.570,9.007,113.800,22.540,5.770,1.907,360.100,97.630,26.360,8.844,hard
1349.000,267.600,83.020,29.570,740.100,103.600,26.200,8.882,109.800,22.950,5.760,1.930,357.200,97.590,25.830,8.601,hard
1319.000,259.500,79.830,28.560,731.200,102.500,25.980,8.778,113.000,22.890,5.693,1.870,353.100,95.920,25.680,8.492,hard
1304.000,257.700,79.260,28.170,725.800,101.900,25.930,8.777,116.000,22.740,5.613,1.880,350.700,95.820,25.640,8.470,hard
1299.000,256.400,79.640,28.110,727.000,102.600,26.150,8.789,111.100,22.950,5.598,1.902,353.900,95.490,25.450,8.528,hard
1302.000,258.400,79.340,28.300,730.700,101.900,26.190,8.770,111.200,23.130,5.700,1.875,352.900,96.070,25.540,8.501,hard
1305.000,257.700,80.210,28.460,728.400,103.400,26.180,8.892,114.800,22.900,5.681,1.898,353.100,96.360,25.730,8.590,hard
1313.000,259.400,80.800,28.780,733.400,103.600,26.360,8.892,110.800,22.920,5.802,1.910,354.900,96.560,25.770,8.579,hard
1324.000,262.200,81.150,29.110,736.900,103.600,26.720,8.966,108.800,23.340,5.780,1.913,359.300,97.420,25.910,8.763,hard
1333.000,264.700,82.520,29.520,737.600,104.100,26.780,8.969,112.300,23.380,5.795,1.934,356.900,98.600,26.260,8.847,hard
1344.000,266.100,82.540,29.770,739.200,104.100,26.820,8.997,113.400,22.940,5.800,1.917,361.300,97.970,26.140,8.764,hard
1343.000,265.300,81.900,28.920,733.400,103.100,26.230,8.849,110.600,23.140,5.645,1.885,352.400,96.650,25.650,8.600,hard
1310.000,257.900,79.930,28.290,725.500,102.400,26.240,8.836,112.300,23.010,5.660,1.864,354.500,95.660,25.710,8.554,hard
1302.000,257.600,78.570,28.080,730.200,102.200,26.160,8.833,112.000,23.410,5.675,1.890,353.000,96.370,25.580,8.509,hard
1305.000,255.400,79.800,28.280,728.600,102.900,26.200,8.869,109.800,23.160,5.708,1.901,353.800,96.390,25.550,8.513,hard
1304.000,256.500,79.440,28.420,729.600,103.000,26.150,8.862,111.800,23.210,5.716,1.890,356.000,96.820,25.610,8.595,hard
1311.000,259.300,80.210,28.610,728.500,103.800,26.380,8.910,112.700,23.170,5.698,1.906,356.500,96.290,25.880,8.674,hard
1322.000,259.800,81.210,29.070,735.700,104.000,26.460,8.967,110.200,23.500,5.721,1.906,357.500,97.810,26.080,8.670,hard
1331.000,265.100,81.970,29.460,736.600,104.000,26.650,8.984,112.600,22.710,5.720,1.921,358.200,98.760,26.210,8.821,hard
1342.000,267.200,82.730,29.670,742.800,104.100,26.530,8.990,111.400,23.150,5.759,1.896,358.300,98.790,26.270,8.703,hard
1332.000,261.800,80.540,28.720,732.200,102.900,26.230,8.811,111.300,23.160,5.682,1.882,355.500,96.240,25.610,8.460,hard
1305.000,258.200,79.200,28.140,728.400,102.900,26.020,8.784,109.000,22.950,5.640,1.891,353.000,96.510,25.840,8.500,hard
1300.000,256.500,78.840,28.190,732.900,102.400,26.220,8.806,112.700,23.310,5.759,1.896,354.700,96.310,25.710,8.529,hard
1303.000,257.600,79.440,28.140,728.300,102.700,26.060,8.850,111.400,23.010,5.798,1.875,354.800,96.690,25.640,8.501,hard
1303.000,257.200,79.200,28.450,731.400,103.300,26.380,8.908,113.400,23.700,5.684,1.888,356.100,97.000,25.690,8.589,hard
1312.000,257.700,79.590,28.660,733.400,102.600,26.220,8.891,108.600,22.780,5.685,1.896,355.100,97.270,26.120,8.726,hard
1322.000,261.900,80.840,28.960,738.000,104.000,26.680,8.975,110.400,23.140,5.704,1.895,357.500,98.030,26.390,8.791,hard
1332.000,265.400,81.900,29.400,734.500,104.800,26.560,9.010,108.800,23.360,5.731,1.916,359.300,98.410,26.320,8.846,hard
1342.000,265.400,82.490,29.820,740.300,104.100,26.900,9.001,111.600,23.740,5.805,1.939,362.500,98.910,26.530,8.809,hard
1352.000,267.400,83.100,29.370,737.200,103.500,26.400,8.884,113.800,22.910,5.882,1.912,358.400,97.520,25.850,8.624,hard
1317.000,258.600,79.450,28.410,728.600,102.400,26.000,8.724,113.300,23.170,5.678,1.884,354.000,96.770,25.690,8.614,hard
1304.000,255.800,78.700,28.120,728.500,102.600,25.890,8.754,107.200,23.260,5.673,1.900,354.500,97.020,25.760,8.550,hard
1302.000,257.500,79.470,28.350,727.500,102.300,25.920,8.839,112.900,23.090,5.711,1.881,355.800,97.230,25.850,8.563,hard
1304.000,259.900,79.900,28.220,729.800,102.800,26.360,8.837,111.400,22.950,5.728,1.910,355.700,96.970,25.990,8.607,hard
1307.000,259.000,80.080,28.520,730.200,103.000,26.300,8.927,112.100,22.990,5.732,1.886,358.500,97.290,26.130,8.687,hard
1318.000,261.100,80.930,28.990,732.200,103.600,26.630,9.000,114.000,23.300,5.758,1.910,357.900,97.680,26.290,8.776,hard
1328.000,262.200,81.800,29.190,739.100,104.100,26.570,8.985,114.600,23.590,5.721,1.913,360.900,97.970,26.310,8.893,hard
1339.000,265.800,82.430,29.520,737.300,104.400,26.790,9.044,107.100,23.310,5.744,1.898,361.500,99.530,26.580,8.873,hard
1348.000,266.800,83.540,29.860,742.600,104.700,26.920,9.082,113.100,23.860,5.748,1.931,363.800,99.460,26.580,8.977,hard
1356.000,268.300,83.200,29.460,733.600,103.600,26.210,8.855,109.900,23.270,5.754,1.934,360.700,98.630,26.310,8.679,hard
1318.000,260.300,80.210,28.500,730.000,102.600,26.150,8.797,105.100,23.360,5.757,1.905,356.400,97.350,26.070,8.622,hard
1308.000,258.100,78.630,28.360,727.900,101.800,26.160,8.773,113.600,23.750,5.659,1.872,358.200,97.940,26.010,8.686,hard
1307.000,256.500,79.700,28.540,728.300,102.500,26.160,8.828,115.300,23.000,5.674,1.886,356.400,97.960,25.930,8.664,hard
1309.000,258.900,79.890,28.470,732.300,102.600,26.130,8.852,112.100,23.470,5.677,1.904,357.200,97.030,26.140,8.631,hard
1314.000,260.700,79.770,28.770,735.700,103.600,26.500,8.912,115.200,23.240,5.750,1.888,360.300,98.300,26.390,8.736,hard
1323.000,262.600,80.980,29.200,736.000,103.700,26.650,8.976,110.500,23.410,5.790,1.904,363.300,98.540,26.380,8.797,hard
1334.000,265.600,82.130,29.360,736.200,103.700,26.500,9.032,111.400,23.640,5.661,1.916,363.800,99.510,26.870,8.937,hard
1345.000,268.700,83.530,29.810,739.700,104.900,26.610,9.037,113.700,23.210,5.786,1.913,367.700,100.700,26.900,9.054,hard
1357.000,269.900,83.830,29.890,740.200,104.500,26.420,8.893,111.300,24.050,5.836,1.928,367.500,100.100,26.870,8.856,hard
1336.000,261.900,81.280,28.840,731.200,102.500,26.090,8.778,112.600,23.500,5.800,1.914,362.600,99.790,26.400,8.686,hard
1315.000,256.900,79.640,28.540,730.400,103.400,26.060,8.749,109.200,23.460,5.734,1.902,361.100,99.030,26.430,8.729,hard
1310.000,257.800,80.060,28.590,734.000,102.700,26.170,8.840,113.600,23.610,5.741,1.888,364.100,98.740,26.410,8.780,hard
1315.000,259.300,80.760,28.740,731.900,103.100,26.190,8.856,112.200,23.320,5.727,1.913,361.800,98.510,26.450,8.824,hard
1319.000,261.100,80.340,28.860,736.600,103.400,26.400,8.864,112.600,23.820,5.868,1.906,366.500,99.280,26.870,8.827,hard
1327.000,262.600,81.820,29.300,742.000,103.600,26.330,8.930,108.500,23.810,5.799,1.914,366.700,100.000,26.950,8.926,hard
1337.000,264.400,81.770,29.540,740.800,104.000,26.520,8.950,109.400,23.650,5.802,1.919,368.900,100.800,27.140,9.084,hard
1347.000,266.800,82.830,29.570,736.900,103.900,26.620,9.026,114.000,23.640,5.872,1.922,370.000,101.300,27.520,9.017,hard
1354.000,266.600,83.070,29.590,739.700,103.800,26.210,8.829,113.800,23.650,5.840,1.921,370.700,100.800,26.940,8.910,hard
1327.000,262.000,80.750,28.700,730.100,102.700,26.150,8.828,116.000,23.960,5.793,1.915,369.000,99.540,26.800,8.912,hard
1317.000,258.000,80.460,28.540,730.300,101.900,26.150,8.830,117.100,24.120,5.793,1.943,367.700,100.000,26.740,8.853,hard
1317.000,259.200,80.050,28.710,735.000,102.900,26.380,8.843,110.300,23.820,5.863,1.922,367.800,100.500,26.590,8.915,hard
1318.000,262.600,80.190,28.810,730.800,103.500,26.100,8.820,114.500,23.410,5.856,1.917,370.400,101.100,26.810,8.958,hard
1322.000,260.600,80.560,29.070,737.100,103.900,26.420,8.915,114.100,23.660,5.839,1.923,369.700,101.000,26.910,9.057,hard
1332.000,264.000,81.660,29.230,740.300,104.700,26.620,8.932,111.300,23.440,5.841,1.933,373.500,101.600,27.080,9.114,hard
1342.000,266.200,82.570,29.720,732.000,104.300,26.670,8.986,111.700,23.350,5.854,1.963,375.400,102.500,27.530,9.152,hard
1351.000,269.700,83.090,30.040,740.400,104.800,26.660,8.976,115.200,23.450,5.858,1.949,376.300,103.400,27.790,9.168,hard
1351.000,267.200,82.400,29.370,732.600,102.800,26.180,8.804,113.600,24.460,5.908,1.936,373.900,101.300,26.990,9.005,hard
1319.000,263.800,80.410,28.570,732.800,102.800,26.110,8.797,114.100,23.650,5.845,1.918,371.400,100.700,27.040,8.861,hard
1311.000,258.700,79.600,28.330,733.200,102.900,26.160,8.758,116.100,23.800,5.794,1.932,371.500,101.000,27.050,9.012,hard
1310.000,260.600,79.480,28.420,730.700,102.600,26.230,8.821,110.900,23.650,5.906,1.937,370.400,101.300,27.000,8.925,hard
1311.000,258.000,79.900,28.600,727.800,102.700,26.120,8.851,113.300,23.230,5.731,1.964,371.700,101.500,27.150,9.021,hard
1317.000,258.700,80.910,28.980,733.900,103.700,26.340,8.932,114.000,23.570,5.864,1.956,374.000,101.300,27.320,9.040,hard
1325.000,263.000,81.750,29.250,736.300,103.800,26.590,8.986,112.800,23.490,5.824,1.959,375.700,102.200,27.510,9.177,hard
1335.000,264.800,82.080,29.490,743.100,104.400,26.790,9.024,112.200,24.030,5.866,1.974,373.700,103.100,27.420,9.253,hard
1344.000,266.400,82.960,29.510,743.100,103.700,26.220,8.890,112.100,23.760,5.968,1.933,376.200,101.900,27.570,8.959,hard
1322.000,260.100,79.920,28.590,730.000,103.200,26.230,8.779,114.900,23.990,5.833,1.930,370.900,101.000,26.940,8.866,hard
1305.000,257.700,78.730,28.250,728.600,102.700,26.140,8.754,113.500,24.070,5.857,1.962,368.600,101.100,27.070,8.813,hard
1301.000,256.800,79.100,28.280,726.200,102.700,26.210,8.874,112.400,22.930,5.832,1.949,370.800,101.300,26.900,8.919,hard
1303.000,258.500,79.560,28.430,732.400,103.400,26.250,8.906,116.300,24.040,5.842,1.950,370.600,100.700,27.020,8.925,hard
1305.000,257.700,79.630,28.640,730.000,103.500,26.460,8.926,114.700,23.690,5.852,1.963,375.500,102.300,27.280,9.023,hard
1315.000,259.200,80.980,28.850,734.200,103.200,26.290,8.970,113.800,24.040,5.863,1.939,374.500,101.200,27.370,9.030,hard
1322.000,262.100,80.560,29.120,737.300,104.300,26.570,8.981,110.600,23.840,5.998,1.979,374.600,102.600,27.160,9.032,hard
1331.000,263.900,82.080,29.610,742.600,105.100,26.520,9.094,117.700,23.920,5.932,2.005,374.600,103.300,27.790,9.116,hard
1338.000,264.300,81.850,29.060,737.800,103.400,26.270,8.894,115.600,23.840,5.939,1.943,373.000,101.400,26.810,8.946,hard
1308.000,256.600,79.480,28.270,727.800,102.400,26.100,8.809,115.100,23.400,5.910,1.942,370.500,100.600,26.690,8.939,hard
1299.000,255.300,78.840,28.030,725.800,102.800,26.130,8.805,115.600,23.620,5.814,1.948,371.700,100.200,26.870,8.949,hard
1298.000,256.300,78.990,28.320,730.900,102.300,26.160,8.871,112.700,23.380,5.886,1.959,370.300,99.680,26.900,8.973,hard
1299.000,256.300,78.810,28.200,729.600,102.500,26.370,8.903,113.000,23.670,5.895,1.948,371.700,100.300,27.050,8.931,hard
1304.000,256.600,79.460,28.510,738.300,102.900,26.570,8.952,115.400,23.920,5.857,1.962,371.300,100.900,27.120,8.996,hard
1313.000,260.300,79.990,28.820,733.600,103.500,26.430,9.002,114.100,23.750,5.887,1.945,371.500,101.600,27.350,9.003,hard
1322.000,261.800,81.210,29.070,737.800,103.500,26.540,9.088,111.200,23.780,5.926,1.967,373.500,101.400,27.240,9.095,hard
1330.000,265.600,81.570,29.400,741.000,104.400,26.780,9.042,113.900,23.990,5.947,1.956,372.800,102.900,27.350,9.078,hard
1324.000,262.300,80.370,28.460,735.400,103.000,26.320,8.923,113.400,23.740,5.907,1.985,372.400,101.100,27.050,8.898,hard
1300.000,256.500,78.190,28.080,727.200,102.900,26.050,8.842,114.300,23.920,5.828,1.939,370.200,100.200,26.600,8.920,hard
1293.000,254.700,78.830,27.920,731.200,102.900,26.360,8.954,115.500,24.350,5.852,1.946,371.100,100.100,26.880,8.914,hard
1296.000,254.900,78.850,27.960,727.700,102.900,26.460,8.973,108.500,23.890,5.963,1.965,371.600,101.100,26.900,8.890,hard
1296.000,254.000,78.950,28.260,730.700,102.400,26.480,8.921,113.300,23.850,5.932,1.951,369.800,100.400,26.890,8.930,hard
1302.000,257.500,79.280,28.510,731.000,103.500,26.760,9.040,115.500,23.570,5.886,1.980,374.400,101.600,27.050,8.993,hard
1312.000,260.000,80.530,28.720,734.600,103.600,26.660,9.104,113.700,23.910,5.921,1.979,376.100,102.000,27.330,9.115,hard
1320.000,261.800,81.080,28.860,739.200,103.900,26.780,9.151,114.300,23.480,5.935,1.958,374.700,101.800,27.270,9.101,hard
1328.000,264.000,81.070,28.930,734.800,103.700,26.500,9.001,111.400,24.380,5.929,1.965,374.600,101.400,27.060,8.910,hard
1304.000,254.700,78.680,28.100,727.900,102.800,26.150,8.948,114.000,23.440,5.807,1.979,370.500,100.600,26.510,8.797,hard
1290.000,253.200,78.110,27.510,729.800,103.200,26.260,8.889,112.600,24.080,5.895,1.954,371.400,100.800,26.680,8.808,hard
1286.000,252.600,78.390,27.700,729.700,103.100,26.440,8.939,114.000,23.360,5.929,1.964,371.600,100.700,26.640,8.836,hard
1289.000,251.800,77.780,27.800,729.600,102.900,26.490,8.960,112.200,23.880,5.876,1.977,370.800,100.400,26.990,8.855,hard
1291.000,254.900,78.320,27.960,728.000,103.500,26.220,9.061,111.700,23.580,5.951,1.941,368.900,100.600,26.930,8.878,hard
1299.000,256.500,78.970,28.120,732.600,103.400,26.740,9.102,114.600,23.760,5.934,1.959,372.500,100.800,27.070,9.016,hard
1308.000,257.600,79.730,28.500,736.500,103.400,26.640,9.094,114.000,23.780,5.863,1.988,374.500,101.600,26.990,8.996,hard
1317.000,257.800,80.560,28.700,737.600,104.300,26.900,9.163,113.900,24.640,5.967,1.979,376.100,102.400,27.240,9.090,hard
1326.000,261.300,81.080,28.960,734.900,103.900,26.640,8.981,115.100,23.930,5.990,1.991,375.600,101.100,27.070,8.948,hard
1302.000,256.200,78.260,27.810,729.200,102.800,26.130,8.903,114.100,23.960,5.940,1.973,370.500,99.760,26.450,8.764,hard
1287.000,251.000,77.180,27.530,724.500,102.800,26.310,8.889,111.400,23.530,5.910,1.957,368.600,100.100,26.640,8.687,hard
1280.000,251.100,76.980,27.490,728.600,103.000,26.500,8.854,116.200,23.330,5.831,1.964,370.100,99.890,26.780,8.797,hard
1283.000,253.400,77.830,27.620,726.700,102.800,26.420,9.016,114.500,23.990,5.824,1.953,370.900,100.300,26.730,8.771,hard
1285.000,252.800,77.590,27.800,728.400,103.100,26.690,9.038,111.700,23.540,5.878,1.972,370.900,100.500,26.870,8.828,hard
1293.000,256.100,78.460,28.020,731.300,103.700,26.550,9.082,113.800,23.580,5.945,1.985,373.200,101.400,27.110,8.986,hard
1302.000,256.300,79.510,28.400,735.000,104.000,26.730,9.120,112.000,24.010,5.973,1.997,375.100,101.200,27.040,8.999,hard
1312.000,260.900,79.620,28.690,738.000,104.300,27.070,9.137,111.100,24.600,5.990,2.010,375.500,101.500,27.620,9.124,hard
1323.000,260.000,81.350,28.900,740.500,105.200,26.820,9.126,112.000,24.400,6.046,1.975,379.300,101.800,27.020,8.979,hard
1309.000,257.200,78.530,27.970,730.600,102.800,26.300,8.972,114.900,24.480,6.034,1.976,374.000,100.500,26.980,8.669,hard
1288.000,254.900,77.500,27.430,724.000,102.000,26.190,8.878,115.400,23.980,5.855,1.955,371.400,100.500,26.880,8.794,hard
1282.000,251.600,76.970,27.420,726.400,103.000,26.220,8.950,115.700,23.500,5.930,1.977,371.700,100.000,26.630,8.746,hard
1286.000,251.800,77.500,27.710,727.500,102.700,26.260,9.021,112.800,24.010,5.953,1.968,372.600,100.800,26.760,8.845,hard
1287.000,253.500,77.660,27.820,729.800,103.800,26.560,9.050,114.700,23.980,5.860,1.978,372.600,100.600,26.860,8.905,hard
1296.000,255.700,78.890,27.950,733.900,103.200,26.670,9.127,113.600,23.980,5.914,2.003,372.800,100.700,27.010,8.923,hard
1306.000,258.300,79.400,28.420,735.900,104.200,26.830,9.134,114.700,23.960,5.901,2.018,373.700,101.300,27.110,8.960,hard
1314.000,259.000,80.460,28.680,735.400,104.600,26.890,9.208,113.900,23.960,5.994,2.026,376.800,101.900,27.200,9.042,hard
1325.000,261.600,81.130,28.950,738.400,104.200,26.950,9.066,115.700,23.540,6.001,2.022,378.400,102.300,27.250,9.024,hard
1309.000,257.800,79.210,27.850,734.200,103.200,26.500,8.986,116.100,24.300,5.915,1.976,374.600,100.600,27.010,8.841,hard
1291.000,252.400,77.450,27.660,731.200,103.200,26.420,8.938,115.800,24.010,5.926,2.004,372.700,101.000,26.790,8.760,hard
1286.000,251.800,77.600,27.550,729.200,103.000,26.390,8.977,112.200,24.130,5.918,1.991,373.900,101.200,26.700,8.808,hard
1292.000,253.900,77.460,27.700,731.700,103.000,26.500,8.965,116.300,24.180,6.012,2.005,373.500,101.200,27.050,8.824,hard
1292.000,253.700,78.270,27.730,735.200,103.500,26.520,9.058,116.500,24.210,5.937,1.949,373.900,101.600,26.920,8.857,hard
1301.000,256.100,78.990,28.160,734.800,103.700,26.770,9.129,114.400,24.040,5.925,2.002,374.300,102.100,27.440,9.068,hard
1310.000,259.200,79.770,28.390,738.400,105.200,27.060,9.093,114.100,23.460,6.016,1.999,379.700,102.300,27.220,8.960,hard
1320.000,261.500,80.180,28.730,736.300,105.000,27.030,9.139,114.200,23.620,6.035,1.971,379.400,102.800,27.450,9.079,hard
1321.000,262.100,79.080,28.130,729.400,103.800,26.470,8.919,113.100,24.040,6.040,1.977,376.700,101.600,27.040,8.814,hard
1293.000,253.000,77.950,27.590,728.200,102.700,26.440,8.933,114.300,24.110,5.947,1.998,374.700,102.000,26.910,8.770,hard
1287.000,252.000,76.740,27.420,731.100,102.400,26.290,8.918,110.300,23.680,6.055,1.955,375.200,101.100,26.880,8.836,hard
1289.000,253.000,77.640,27.590,728.300,102.400,26.400,8.985,116.100,24.020,6.002,1.956,373.200,101.500,26.860,8.803,hard
1290.000,253.100,77.750,27.810,732.000,103.000,26.500,8.983,111.600,24.080,5.943,1.989,373.800,101.100,26.880,8.874,hard
1298.000,253.000,78.450,28.110,732.400,103.600,26.410,9.086,117.900,23.750,5.944,1.986,376.600,102.200,27.370,8.919,hard
1308.000,257.200,79.640,28.420,733.800,103.900,26.750,9.138,113.700,24.640,6.002,2.018,378.000,102.500,27.160,9.072,hard
1317.000,260.000,80.140,28.570,737.300,104.800,26.990,9.132,119.600,24.490,5.955,1.980,381.600,103.500,27.510,9.075,hard
1328.000,261.800,81.080,29.010,738.200,104.800,27.170,9.162,120.200,23.960,5.933,2.000,382.700,103.400,27.670,9.184,hard
1330.000,261.400,80.240,28.530,730.200,103.500,26.570,8.980,119.000,23.760,5.990,2.012,377.500,102.400,26.910,8.892,hard
1299.000,252.500,77.840,27.720,734.400,102.600,26.280,8.947,113.500,24.060,5.937,1.995,377.100,101.300,27.200,8.886,hard
1291.000,252.900,77.080,27.480,732.000,102.400,26.310,8.896,116.200,24.390,5.955,1.963,379.500,101.200,27.030,8.824,hard
1291.000,253.100,77.670,27.620,732.000,102.800,26.540,8.969,115.500,24.070,5.923,1.990,378.200,102.400,27.100,8.872,hard
1295.000,253.200,78.530,27.750,734.200,103.300,26.480,8.978,114.600,24.090,5.981,1.985,376.000,102.000,27.090,9.009,hard
1301.000,255.600,78.710,27.970,731.900,104.000,26.590,9.043,115.800,24.130,6.043,1.986,378.800,102.600,27.280,9.040,hard
1311.000,258.000,79.640,28.400,735.100,104.200,26.760,9.119,117.800,24.000,5.957,1.993,380.200,102.900,27.350,9.142,hard
1322.000,260.400,80.480,28.710,738.500,104.900,26.890,9.138,115.000,24.710,6.021,1.995,381.800,103.600,27.690,9.157,hard
1330.000,263.500,81.620,29.070,744.000,105.500,26.940,9.181,115.400,24.600,6.051,1.998,380.800,104.000,27.700,9.234,hard
1341.000,266.100,82.320,29.280,747.900,105.500,26.880,9.126,113.600,24.490,5.986,2.011,383.500,104.400,27.840,9.225,hard
1330.000,261.300,79.660,28.410,738.600,103.400,26.400,8.952,112.500,24.240,6.111,1.980,381.500,102.200,27.270,8.925,hard
1305.000,255.600,78.260,27.880,731.500,103.100,26.400,8.897,117.200,23.790,5.958,1.992,378.400,102.200,27.140,8.954,hard
1297.000,253.000,77.910,27.820,734.400,103.200,26.500,8.888,117.700,24.640,5.995,1.976,379.200,102.900,27.160,8.991,hard
1301.000,256.400,78.790,27.900,731.800,103.400,26.430,8.930,116.000,23.780,5.958,1.999,378.000,103.300,27.140,9.029,hard
1302.000,255.500,78.570,28.110,730.600,103.300,26.640,8.964,114.300,24.430,5.969,1.992,378.800,103.000,27.330,9.076,hard
1312.000,258.300,79.700,28.440,735.500,103.400,26.710,9.052,117.400,24.370,6.018,1.949,381.800,104.100,27.770,9.101,hard
1321.000,261.000,80.410,28.760,736.000,104.000,26.880,9.122,116.300,24.440,6.053,1.993,383.500,103.900,27.780,9.101,hard
1331.000,262.400,81.040,29.110,743.000,105.000,27.020,9.131,113.900,24.470,6.043,2.009,384.600,103.700,27.760,9.253,hard
1341.000,263.100,82.380,29.420,744.200,105.100,27.060,9.205,115.800,24.640,6.048,2.007,384.500,104.700,28.000,9.283,hard
1351.000,268.600,83.160,29.880,745.800,105.400,27.120,9.104,117.800,24.100,5.973,1.994,385.800,105.000,27.840,9.258,hard
1346.000,264.400,80.870,28.790,734.600,104.400,26.500,8.943,115.700,24.440,5.951,1.976,382.000,102.900,27.460,9.030,hard
1317.000,257.100,79.370,28.290,732.000,103.200,26.510,8.888,113.900,24.520,5.919,2.014,381.800,103.100,27.450,9.024,hard
1310.000,259.100,79.230,28.240,729.200,103.300,26.450,9.001,112.500,23.560,6.020,2.000,379.600,102.400,27.370,9.060,hard
1313.000,257.500,79.260,28.360,732.800,103.500,26.520,8.914,115.400,24.040,5.953,1.964,380.700,103.100,27.530,9.125,hard
1314.000,257.800,79.200,28.530,738.400,103.400,26.500,9.031,115.300,24.320,5.952,1.983,383.200,103.800,27.600,9.188,hard
1323.000,260.700,80.420,28.810,739.100,103.800,26.800,9.034,117.100,24.560,5.955,2.004,381.900,103.600,27.680,9.230,hard
1332.000,265.100,81.550,29.170,740.300,104.300,26.820,9.051,117.300,24.260,5.933,1.964,381.900,104.400,27.770,9.268,hard
1342.000,264.700,82.210,29.610,743.800,105.500,26.760,9.140,115.600,24.120,5.967,1.985,384.800,104.800,27.990,9.385,hard
1351.000,266.300,82.660,29.680,744.800,105.600,27.250,9.128,115.000,23.970,5.967,1.986,387.700,105.100,28.060,9.407,hard
1356.000,266.700,82.730,29.120,741.100,103.500,26.550,8.936,115.700,24.240,6.013,1.970,383.100,104.100,27.630,9.121,hard
1325.000,260.600,80.630,28.550,736.200,103.400,26.270,8.881,117.700,24.070,5.915,1.992,382.300,102.600,27.320,9.021,hard
1315.000,258.300,79.820,28.220,734.600,103.300,26.150,8.819,113.800,23.870,5.908,1.960,380.300,103.600,27.280,9.085,hard
1316.000,258.600,79.860,28.510,737.200,104.500,26.370,8.906,115.400,23.980,5.901,2.004,381.600,103.500,27.260,9.086,hard
1317.000,260.800,80.090,28.630,734.400,103.700,26.400,8.972,113.900,23.910,5.921,1.960,379.700,103.500,27.620,9.132,hard
1323.000,261.400,80.580,28.950,736.300,103.500,26.540,9.026,114.500,24.330,5.977,1.968,382.800,103.800,27.840,9.165,hard
1335.000,264.600,81.230,29.210,736.200,104.200,26.950,9.021,113.900,24.290,5.937,1.995,383.400,104.900,27.860,9.265,hard
1345.000,265.500,82.150,29.490,740.900,104.900,26.870,9.093,116.400,23.680,5.987,1.986,383.800,104.500,28.240,9.302,hard
1354.000,267.400,82.840,29.890,743.800,105.100,27.020,9.112,111.900,24.890,6.038,2.013,386.700,105.500,28.210,9.404,hard
1364.000,269.900,83.950,29.840,744.300,105.200,26.780,8.914,115.100,24.330,5.990,1.999,385.300,104.400,27.780,9.174,hard
1337.000,264.800,80.940,28.750,736.500,104.500,26.510,8.813,114.800,24.370,5.944,1.959,380.800,102.900,27.490,9.071,hard
1321.000,260.300,80.080,28.500,734.700,103.400,26.280,8.838,115.000,24.240,6.040,1.926,378.200,103.500,27.380,8.980,hard
1315.000,259.500,80.210,28.650,737.000,103.700,26.250,8.886,117.200,23.640,6.030,1.976,380.000,103.400,27.570,9.113,hard
1320.000,260.000,79.950,28.620,731.300,103.500,26.230,8.874,114.400,24.110,6.020,1.992,380.700,102.900,27.620,9.111,hard
1323.000,258.800,81.100,28.980,733.700,104.100,26.530,8.927,114.000,24.360,5.943,1.960,383.100,104.400,27.860,9.160,hard
1332.000,264.000,81.560,29.200,736.800,104.200,26.620,9.001,120.000,24.330,5.905,1.973,382.000,104.100,27.860,9.297,hard
1342.000,264.900,82.780,29.550,743.200,104.600,27.000,9.084,116.300,24.290,5.959,1.990,385.400,104.800,28.060,9.381,hard
1350.000,269.100,83.090,29.880,744.100,105.400,26.840,9.073,118.600,24.640,6.030,1.999,385.500,105.000,28.180,9.367,hard
1361.000,270.300,83.090,30.130,744.400,104.900,26.860,9.005,117.600,24.480,5.972,2.000,386.800,104.800,28.080,9.338,hard
1351.000,267.300,82.150,29.100,734.300,104.000,26.600,8.844,116.500,24.640,6.057,1.976,381.400,103.100,27.650,9.163,hard
1326.000,261.300,80.570,28.620,732.900,103.900,26.240,8.739,115.700,23.950,5.961,1.957,379.000,102.900,27.400,9.094,hard
1317.000,258.600,79.200,28.430,737.300,102.300,26.220,8.879,116.700,24.290,5.911,1.969,378.800,103.400,27.650,9.092,hard
1321.000,259.800,79.610,28.560,739.400,104.200,26.430,8.863,115.500,24.360,5.938,1.958,380.700,102.500,27.600,9.180,hard
