A-DC1,A-DC2,A-DC3,A-DC4,A-DC5,A-DC6,A-DC7,A-DC8,B-DC1,B-DC2,B-DC3,B-DC4,B-DC5,B-DC6,B-DC7,B-DC8,condition
1306.000,266.300,56.660,10.180,994.200,183.100,37.230,6.628,172.700,29.060,6.264,1.587,332.800,68.770,15.090,3.760,baseline
1285.000,262.500,55.410,10.080,990.100,182.400,37.040,6.577,172.000,29.300,6.236,1.572,330.400,68.430,15.120,3.746,baseline
1279.000,260.900,55.720,10.000,988.800,181.300,37.060,6.588,171.500,29.470,6.198,1.573,330.900,68.320,15.070,3.732,baseline
1279.000,261.300,55.750,10.020,990.000,181.400,37.160,6.584,170.500,29.150,6.223,1.580,329.900,68.250,15.060,3.727,baseline
1278.000,261.700,55.800,10.010,988.500,182.000,37.030,6.573,172.900,29.230,6.194,1.566,330.000,68.350,15.120,3.733,baseline
1280.000,261.700,55.720,10.050,991.500,182.700,37.210,6.638,173.100,29.490,6.213,1.570,331.900,68.490,15.090,3.767,baseline
1286.000,264.600,56.040,10.180,992.900,182.900,37.240,6.642,172.500,29.990,6.275,1.566,332.400,68.790,15.180,3.763,baseline
1292.000,264.100,56.450,10.170,999.100,182.900,37.370,6.665,171.700,29.250,6.180,1.573,333.100,69.510,15.220,3.809,baseline
1298.000,267.600,56.190,10.290,1002.000,183.400,37.340,6.713,171.500,29.370,6.189,1.567,334.700,69.390,15.320,3.811,baseline
1305.000,267.800,56.910,10.300,1000.000,183.600,37.450,6.678,174.300,29.360,6.242,1.582,336.500,69.470,15.330,3.781,baseline
1303.000,265.900,56.400,10.170,996.100,183.100,37.030,6.620,171.000,29.430,6.228,1.568,331.100,68.420,15.080,3.743,baseline
1282.000,262.000,55.520,10.010,990.200,181.300,36.850,6.591,171.300,29.510,6.166,1.563,329.000,67.970,14.960,3.714,baseline
1277.000,261.200,55.430,9.967,990.700,181.900,36.980,6.604,172.200,29.310,6.188,1.562,328.100,68.110,15.020,3.726,baseline
1278.000,260.800,55.660,10.000,993.900,181.900,37.080,6.597,170.600,29.370,6.197,1.547,328.400,68.410,14.970,3.741,baseline
1278.000,260.900,55.420,10.040,991.400,182.000,37.080,6.588,172.700,29.310,6.217,1.550,330.000,68.120,14.900,3.720,baseline
1279.000,262.100,55.880,10.070,990.900,182.000,37.120,6.611,168.900,29.050,6.163,1.568,329.400,68.440,15.070,3.718,baseline
1285.000,263.000,55.640,10.170,991.700,182.500,37.110,6.663,172.700,29.300,6.191,1.564,333.100,68.500,15.100,3.746,baseline
1292.000,263.800,56.210,10.180,994.700,183.000,37.220,6.646,173.800,29.320,6.197,1.559,331.700,68.790,15.110,3.762,baseline
1297.000,264.900,56.550,10.270,999.000,183.500,37.360,6.655,171.200,29.630,6.245,1.570,334.100,69.200,15.240,3.784,baseline
1303.000,266.500,56.580,10.210,997.800,182.600,37.200,6.625,170.800,29.290,6.211,1.565,332.300,68.320,15.060,3.723,baseline
1286.000,262.500,55.890,10.010,993.700,182.300,36.980,6.604,168.500,29.270,6.191,1.541,328.700,67.540,14.960,3.700,baseline
1276.000,260.400,55.420,9.995,988.700,181.200,36.900,6.604,170.400,29.330,6.222,1.561,329.300,67.870,15.000,3.726,baseline
1277.000,262.100,55.790,9.980,986.800,181.700,36.840,6.584,170.600,29.170,6.245,1.552,329.400,68.200,14.980,3.702,baseline
1277.000,262.100,55.550,10.010,989.900,181.700,36.920,6.596,170.000,28.980,6.197,1.563,328.600,67.880,15.010,3.725,baseline
1277.000,260.900,55.750,10.050,994.500,182.200,36.950,6.616,170.700,28.930,6.185,1.559,329.000,68.240,15.050,3.709,baseline
1282.000,263.100,56.120,10.120,993.200,182.600,37.110,6.611,171.900,29.020,6.232,1.565,331.000,68.440,15.040,3.751,baseline
1290.000,264.700,56.500,10.210,994.200,183.000,37.180,6.658,172.800,29.050,6.219,1.569,331.700,68.690,15.140,3.781,baseline
1296.000,264.800,56.380,10.230,998.400,183.200,37.440,6.654,169.300,29.130,6.183,1.571,332.600,68.760,15.350,3.779,baseline
1299.000,266.400,56.230,10.160,991.900,182.400,37.110,6.572,170.400,29.390,6.267,1.554,328.200,68.010,15.030,3.715,baseline
1279.000,262.500,55.320,10.020,989.800,181.700,36.890,6.577,172.400,28.900,6.214,1.557,327.500,67.810,14.840,3.713,baseline
1273.000,260.900,55.120,9.960,990.200,181.100,36.770,6.581,169.700,29.060,6.181,1.554,326.800,67.310,14.890,3.713,baseline
1272.000,260.200,55.360,9.948,988.000,181.900,36.950,6.560,169.700,29.500,6.167,1.554,327.300,67.730,14.840,3.682,baseline
1272.000,260.800,55.420,9.968,991.400,181.100,36.890,6.580,169.000,28.840,6.169,1.545,327.000,67.770,14.880,3.692,baseline
1274.000,261.400,55.300,10.070,990.000,182.100,37.020,6.617,170.500,28.850,6.228,1.551,328.600,68.190,14.950,3.705,baseline
1280.000,262.100,55.840,10.070,995.900,182.400,37.080,6.608,170.500,29.470,6.167,1.561,330.100,68.320,15.010,3.740,baseline
1287.000,263.800,56.300,10.160,993.100,183.000,37.380,6.636,168.400,29.250,6.207,1.558,330.200,68.640,15.120,3.732,baseline
1294.000,265.400,56.630,10.260,997.700,183.600,37.270,6.646,172.000,28.830,6.212,1.554,331.800,68.690,14.970,3.757,baseline
1293.000,263.300,56.080,10.100,990.500,182.000,37.150,6.551,171.100,29.270,6.204,1.549,328.200,67.670,14.920,3.663,baseline
1271.000,260.000,55.450,9.920,984.500,180.300,36.850,6.541,167.200,28.960,6.147,1.546,324.400,66.960,14.780,3.644,baseline
1261.000,258.700,54.770,9.881,984.000,179.700,36.840,6.524,168.500,28.920,6.173,1.551,324.000,66.980,14.760,3.672,baseline
1257.000,256.900,54.510,9.827,982.600,180.600,36.630,6.533,168.700,28.640,6.144,1.536,323.300,66.830,14.760,3.645,baseline
1257.000,258.800,54.680,9.837,982.900,180.700,36.670,6.510,169.600,28.430,6.138,1.540,324.600,67.130,14.730,3.638,baseline
1259.000,258.500,54.830,9.880,986.600,180.900,36.820,6.562,169.000,28.720,6.139,1.547,323.000,66.890,14.750,3.658,baseline
1263.000,258.500,55.150,9.942,986.100,180.900,36.750,6.575,169.800,28.810,6.169,1.555,326.400,67.810,14.830,3.702,baseline
1269.000,260.200,55.300,10.010,990.000,181.800,36.910,6.604,173.700,29.010,6.182,1.545,326.700,67.840,14.870,3.700,baseline
1275.000,261.700,55.440,10.030,994.200,182.500,36.870,6.592,169.700,29.140,6.247,1.553,327.500,67.920,15.060,3.729,baseline
1282.000,263.300,56.130,10.090,994.000,181.800,37.060,6.615,168.700,29.020,6.174,1.563,329.600,68.450,15.010,3.741,baseline
1288.000,265.000,56.340,10.160,997.300,182.700,37.260,6.633,171.200,29.400,6.191,1.556,330.400,68.340,15.060,3.721,baseline
1284.000,262.800,55.740,9.986,987.600,181.100,36.800,6.516,172.600,28.720,6.143,1.566,324.500,67.240,14.730,3.659,baseline
1260.000,257.800,54.870,9.845,982.800,180.100,36.560,6.496,169.800,28.760,6.108,1.546,322.000,66.470,14.690,3.593,baseline
1251.000,256.700,54.450,9.798,978.700,179.500,36.520,6.505,170.600,28.770,6.078,1.538,321.400,66.560,14.580,3.594,baseline
1249.000,255.200,54.160,9.772,981.600,179.900,36.630,6.499,168.800,28.770,6.120,1.547,321.400,66.600,14.680,3.614,baseline
1248.000,256.200,54.150,9.805,984.700,179.600,36.580,6.500,168.200,28.980,6.150,1.533,322.500,66.700,14.620,3.614,baseline
1250.000,256.100,54.330,9.865,983.600,179.400,36.600,6.500,165.800,29.190,6.119,1.545,322.900,66.790,14.680,3.649,baseline
1257.000,257.600,54.770,9.846,985.300,180.700,36.890,6.540,169.800,28.760,6.140,1.537,323.700,67.180,14.820,3.639,baseline
1263.000,258.500,55.440,9.970,988.000,181.400,36.880,6.567,168.500,28.900,6.122,1.539,325.700,67.480,14.880,3.702,baseline
1269.000,259.800,55.380,9.954,991.800,181.400,36.830,6.587,167.300,28.870,6.188,1.533,325.900,67.690,14.970,3.723,baseline
1276.000,261.500,55.790,10.060,994.200,182.500,37.130,6.628,170.500,29.540,6.168,1.554,328.300,68.040,15.040,3.720,baseline
1284.000,263.000,56.220,10.130,993.400,182.900,37.130,6.665,171.900,28.880,6.165,1.545,329.600,68.500,15.100,3.729,baseline
1292.000,265.600,56.800,10.210,999.700,183.600,37.320,6.616,169.000,28.810,6.221,1.558,330.300,68.570,15.090,3.746,baseline
1291.000,264.100,55.980,10.080,992.400,181.100,36.930,6.541,171.600,29.230,6.185,1.549,325.500,67.560,14.810,3.649,baseline
1265.000,259.000,55.490,9.901,982.300,180.600,36.760,6.545,166.900,28.910,6.157,1.529,323.300,67.260,14.730,3.646,baseline
1256.000,257.100,54.960,9.867,988.000,180.000,36.650,6.504,168.300,29.130,6.115,1.537,323.900,66.970,14.700,3.640,baseline
1255.000,259.000,54.920,9.871,981.700,180.300,36.610,6.533,168.000,28.830,6.195,1.534,322.800,67.060,14.680,3.622,baseline
1255.000,257.200,55.150,9.814,985.800,180.800,36.930,6.524,168.100,29.290,6.133,1.546,323.900,67.260,14.700,3.658,baseline
1257.000,257.900,55.060,9.875,986.800,180.500,36.950,6.565,169.600,29.190,6.149,1.544,324.900,66.900,14.770,3.656,baseline
1263.000,259.700,55.400,9.952,991.500,180.800,36.820,6.568,171.000,29.030,6.201,1.557,325.600,67.610,14.890,3.668,baseline
1269.000,260.100,55.630,10.030,995.400,181.900,36.940,6.589,170.400,28.980,6.129,1.551,328.100,68.250,14.890,3.681,baseline
1276.000,261.300,55.710,10.100,992.100,182.900,37.190,6.637,169.300,29.000,6.161,1.554,329.300,68.010,14.960,3.718,baseline
1283.000,263.100,56.170,10.120,994.400,182.900,37.180,6.632,169.300,29.010,6.205,1.552,329.300,68.540,15.030,3.758,baseline
1290.000,264.000,56.510,10.200,999.500,182.800,37.290,6.638,168.400,29.110,6.201,1.560,331.400,68.720,15.060,3.763,baseline
1288.000,263.500,56.360,10.080,992.800,182.000,37.130,6.550,168.100,29.390,6.186,1.551,326.200,67.580,14.730,3.667,baseline
1268.000,260.000,55.450,9.954,988.000,181.400,37.160,6.537,169.100,29.340,6.160,1.542,326.700,67.590,14.790,3.684,baseline
1263.000,259.700,55.400,9.993,989.900,181.300,36.910,6.561,171.300,29.000,6.167,1.552,326.800,67.480,14.970,3.657,baseline
1266.000,260.200,55.320,9.986,991.400,181.100,36.990,6.572,171.100,28.950,6.153,1.550,327.100,67.940,14.910,3.677,baseline
1266.000,259.700,55.270,9.948,986.100,181.300,36.960,6.586,169.800,28.660,6.179,1.540,326.800,67.850,14.910,3.683,baseline
1269.000,260.000,55.500,10.040,989.900,182.100,37.270,6.611,170.900,29.300,6.173,1.544,328.800,68.020,14.870,3.710,baseline
1276.000,262.600,55.940,10.070,994.300,182.200,37.250,6.597,173.000,29.240,6.152,1.558,330.400,68.380,14.960,3.760,baseline
1282.000,264.000,56.670,10.150,995.600,183.200,37.230,6.649,171.500,28.880,6.203,1.567,330.700,68.540,15.070,3.751,baseline
1289.000,264.000,56.760,10.260,996.000,183.400,37.360,6.669,170.800,29.370,6.176,1.566,332.300,69.240,15.050,3.770,baseline
1295.000,265.900,57.100,10.190,995.900,183.000,37.370,6.654,171.300,29.300,6.202,1.557,331.500,68.410,15.010,3.687,baseline
1280.000,261.900,56.020,10.060,992.600,181.900,37.030,6.613,172.300,29.390,6.160,1.560,327.200,68.110,14.860,3.679,baseline
1270.000,260.500,55.930,10.010,992.500,182.100,37.060,6.601,170.000,29.000,6.202,1.541,328.200,67.940,14.850,3.677,baseline
1268.000,259.500,55.920,10.080,991.300,181.600,37.270,6.595,168.100,29.170,6.191,1.531,328.900,68.360,14.970,3.688,baseline
1270.000,258.400,55.790,10.060,990.000,181.900,37.270,6.593,171.400,29.330,6.191,1.549,327.500,68.000,14.920,3.701,baseline
1271.000,261.400,55.750,10.090,993.600,182.200,37.270,6.587,169.600,29.160,6.180,1.552,328.300,68.360,14.970,3.728,baseline
1276.000,262.200,55.840,10.200,996.400,182.500,37.400,6.648,171.100,29.400,6.214,1.546,330.000,68.660,15.030,3.721,baseline
1285.000,264.000,56.690,10.200,997.700,183.400,37.620,6.638,171.100,29.150,6.227,1.564,331.900,69.010,15.140,3.735,baseline
1292.000,267.200,57.200,10.250,1001.000,183.900,37.620,6.708,172.200,29.360,6.184,1.567,333.700,69.060,15.110,3.769,baseline
1299.000,267.200,57.470,10.290,1005.000,184.500,37.720,6.704,170.500,29.330,6.239,1.555,334.100,69.500,15.200,3.765,baseline
1296.000,265.100,56.810,10.170,1000.000,182.500,37.410,6.622,173.900,29.280,6.248,1.553,329.600,68.300,14.920,3.695,baseline
1273.000,260.200,56.110,10.080,991.800,181.800,37.140,6.649,169.900,29.310,6.201,1.547,328.100,67.770,14.960,3.697,baseline
1265.000,258.900,55.470,9.991,991.700,181.600,37.130,6.602,174.400,29.240,6.149,1.546,327.200,67.890,14.860,3.687,baseline
1264.000,259.800,55.780,10.010,990.600,181.900,37.240,6.593,171.000,29.330,6.170,1.541,328.200,68.070,14.900,3.683,baseline
1265.000,260.400,55.570,10.070,991.400,182.300,37.070,6.601,170.900,29.040,6.195,1.546,327.800,68.050,14.970,3.695,baseline
1267.000,260.600,55.850,10.040,992.800,182.600,37.310,6.634,171.500,29.430,6.214,1.547,328.900,68.330,15.030,3.708,baseline
1274.000,261.500,56.350,10.090,997.900,183.100,37.510,6.647,170.000,29.050,6.180,1.560,329.400,68.270,14.990,3.698,baseline
1281.000,263.900,56.820,10.160,996.500,182.400,37.510,6.665,169.800,29.450,6.219,1.559,331.700,68.880,15.050,3.759,baseline
1288.000,264.300,56.740,10.300,1003.000,183.500,37.660,6.688,173.500,29.120,6.232,1.559,332.800,69.050,15.200,3.762,baseline
1295.000,266.600,57.200,10.350,1006.000,183.700,37.800,6.694,169.700,29.330,6.220,1.561,335.100,69.320,15.320,3.801,baseline
1303.000,267.900,57.390,10.410,1007.000,184.200,37.540,6.673,175.700,29.460,6.268,1.575,333.900,69.380,15.080,3.721,baseline
1289.000,263.700,56.330,10.060,995.400,182.600,37.300,6.614,171.600,29.210,6.156,1.550,329.200,68.270,14.870,3.707,baseline
1269.000,260.400,55.780,10.040,994.200,181.500,37.230,6.620,169.100,29.230,6.156,1.553,326.900,68.180,14.900,3.674,baseline
1263.000,257.900,55.380,10.030,989.700,181.700,37.160,6.614,171.800,29.110,6.153,1.554,327.200,67.960,14.850,3.692,baseline
1262.000,258.900,55.600,9.971,991.200,182.300,37.160,6.599,172.100,29.480,6.155,1.551,328.200,68.100,14.850,3.681,baseline
1263.000,258.500,55.380,10.010,992.300,182.100,37.220,6.597,170.300,29.390,6.132,1.550,326.200,67.790,14.860,3.687,baseline
1267.000,258.800,55.820,10.120,991.000,182.400,37.140,6.641,171.800,29.210,6.198,1.548,328.600,68.190,14.960,3.716,baseline
1272.000,261.500,56.270,10.140,996.000,182.800,37.310,6.655,170.400,29.160,6.140,1.560,330.400,68.230,15.050,3.749,baseline
1281.000,263.000,56.850,10.210,999.200,183.500,37.590,6.652,172.200,29.700,6.154,1.561,330.400,68.910,15.110,3.737,baseline
1287.000,264.300,56.690,10.310,1001.000,184.300,37.700,6.662,173.400,29.310,6.256,1.577,333.100,68.940,15.240,3.728,baseline
1294.000,267.800,57.250,10.310,1007.000,184.300,37.700,6.731,173.800,29.390,6.228,1.563,333.900,69.410,15.180,3.813,baseline
1303.000,267.300,57.390,10.440,1007.000,184.900,37.830,6.769,172.600,29.410,6.269,1.569,334.800,69.540,15.260,3.794,baseline
1306.000,267.400,57.320,10.290,999.300,183.400,37.380,6.626,174.300,29.720,6.224,1.555,331.900,68.600,14.980,3.724,baseline
1278.000,262.300,56.270,10.100,997.300,182.100,37.230,6.635,170.500,29.330,6.216,1.563,328.600,67.980,14.930,3.689,baseline
1269.000,259.800,55.900,10.030,994.300,182.100,37.210,6.637,167.300,29.280,6.197,1.549,327.600,67.830,14.840,3.678,baseline
1265.000,259.400,56.070,10.050,991.400,182.100,37.220,6.609,169.600,29.140,6.190,1.557,328.300,68.200,14.900,3.674,baseline
1266.000,259.700,55.820,10.070,991.200,182.100,37.220,6.632,170.000,29.460,6.218,1.558,328.500,68.110,14.890,3.683,baseline
1267.000,260.500,55.870,10.090,992.500,182.000,37.380,6.642,170.500,29.060,6.184,1.539,329.400,68.170,15.030,3.708,baseline
1274.000,261.600,56.390,10.150,994.300,182.900,37.460,6.652,170.100,29.050,6.238,1.552,330.200,69.050,14.970,3.739,baseline
1281.000,262.700,56.480,10.250,1002.000,183.300,37.610,6.675,172.500,29.010,6.195,1.563,331.900,68.850,15.180,3.709,baseline
1288.000,266.000,56.740,10.260,1005.000,184.100,37.530,6.704,172.200,29.380,6.247,1.566,333.000,68.720,15.150,3.763,baseline
1295.000,267.100,57.140,10.350,1002.000,184.600,37.790,6.724,173.300,29.280,6.250,1.563,334.100,69.500,15.330,3.766,baseline
1303.000,267.800,57.710,10.420,1011.000,185.100,37.760,6.735,171.600,29.380,6.250,1.568,335.700,69.990,15.420,3.815,baseline
1310.000,269.900,58.230,10.520,1009.000,185.500,38.010,6.754,173.600,29.480,6.288,1.576,338.400,70.140,15.320,3.811,baseline
1305.000,267.300,57.380,10.310,1002.000,183.600,37.440,6.686,170.800,29.420,6.280,1.560,332.700,68.870,15.040,3.724,baseline
1282.000,261.900,56.220,10.180,997.200,182.700,37.320,6.673,172.300,29.100,6.243,1.549,331.000,68.570,14.960,3.688,baseline
1276.000,262.000,56.330,10.180,997.500,183.100,37.240,6.718,170.500,29.350,6.222,1.558,330.700,68.810,14.990,3.735,baseline
1277.000,262.300,56.220,10.180,1002.000,183.200,37.360,6.648,170.500,29.580,6.232,1.553,331.500,68.890,15.040,3.735,baseline
1277.000,261.500,56.150,10.210,999.800,182.700,37.520,6.678,172.800,29.380,6.198,1.558,331.500,68.810,15.100,3.703,baseline
1280.000,262.300,56.750,10.270,996.800,183.500,37.700,6.686,175.100,29.410,6.235,1.571,332.800,68.910,15.160,3.755,baseline
1286.000,264.300,56.760,10.320,1001.000,184.200,37.690,6.697,173.500,29.280,6.233,1.562,333.600,69.610,15.220,3.774,baseline
1292.000,266.300,57.070,10.400,999.900,184.900,37.620,6.719,172.200,29.430,6.262,1.580,335.900,69.500,15.390,3.796,baseline
1299.000,266.600,57.740,10.430,1008.000,184.700,37.930,6.755,173.000,29.730,6.266,1.571,336.400,69.770,15.390,3.791,baseline
1306.000,269.300,58.010,10.510,1007.000,186.100,38.020,6.787,172.900,29.660,6.316,1.583,338.000,70.510,15.470,3.829,baseline
1313.000,271.000,58.100,10.510,1008.000,185.600,37.840,6.721,173.200,29.800,6.246,1.581,337.200,69.370,15.190,3.785,baseline
1295.000,265.900,57.320,10.280,1002.000,184.100,37.480,6.721,170.600,29.340,6.276,1.576,332.500,69.320,15.170,3.748,baseline
1284.000,263.500,56.420,10.260,997.700,184.000,37.650,6.718,172.100,29.770,6.189,1.573,332.400,69.280,15.110,3.746,baseline
1284.000,265.200,57.120,10.310,1002.000,183.800,37.420,6.740,172.500,29.500,6.230,1.570,335.100,69.380,15.150,3.745,baseline
1287.000,265.700,56.970,10.290,1001.000,183.600,37.570,6.697,175.500,29.420,6.242,1.574,333.400,69.070,15.190,3.787,baseline
1288.000,264.500,56.770,10.320,1001.000,184.700,37.690,6.744,174.100,29.670,6.229,1.565,333.800,69.690,15.220,3.776,baseline
1292.000,266.400,57.240,10.380,1004.000,184.800,37.650,6.748,172.700,29.410,6.298,1.566,335.000,69.940,15.320,3.804,baseline
1299.000,268.400,57.660,10.490,1006.000,185.300,38.030,6.772,172.600,29.350,6.273,1.579,337.600,70.180,15.320,3.803,baseline
1306.000,268.700,57.930,10.580,1010.000,186.400,38.060,6.784,172.400,29.600,6.314,1.573,338.500,70.460,15.410,3.847,baseline
1313.000,270.100,58.000,10.630,1012.000,186.600,38.130,6.794,173.300,29.750,6.256,1.572,340.400,70.860,15.570,3.849,baseline
1312.000,269.200,57.540,10.450,1008.000,184.600,37.840,6.727,175.900,29.560,6.279,1.582,335.200,69.380,15.250,3.754,baseline
1290.000,264.900,56.940,10.350,1003.000,184.500,37.730,6.747,170.100,29.450,6.258,1.572,334.700,69.880,15.200,3.744,baseline
1285.000,265.000,56.450,10.280,1006.000,184.400,37.670,6.719,173.400,29.280,6.275,1.569,334.200,69.110,15.210,3.786,baseline
1286.000,265.400,57.340,10.350,1004.000,183.900,37.720,6.702,173.100,29.380,6.257,1.573,335.700,69.520,15.140,3.773,baseline
1288.000,265.200,57.280,10.340,1004.000,183.900,37.570,6.743,171.800,29.630,6.285,1.566,334.500,69.590,15.270,3.785,baseline
1291.000,265.200,57.340,10.350,1005.000,185.200,37.830,6.741,174.800,29.780,6.305,1.578,336.700,70.020,15.350,3.804,baseline
1297.000,268.300,57.690,10.460,1005.000,185.500,38.070,6.805,172.100,29.540,6.258,1.590,337.400,70.260,15.420,3.840,baseline
1303.000,268.400,57.910,10.490,1009.000,186.100,38.110,6.767,174.000,29.840,6.274,1.588,339.800,70.480,15.480,3.832,baseline
1311.000,270.000,58.170,10.630,1014.000,186.600,38.170,6.824,173.300,29.680,6.333,1.598,338.300,70.900,15.520,3.883,baseline
1318.000,271.800,58.650,10.690,1017.000,187.100,38.140,6.802,176.900,29.910,6.321,1.581,341.000,71.120,15.640,3.880,baseline
1319.000,271.500,58.230,10.540,1010.000,186.500,37.890,6.733,175.400,29.770,6.321,1.584,337.600,69.780,15.270,3.785,baseline
1294.000,267.000,57.180,10.400,1001.000,184.700,37.790,6.724,173.800,29.800,6.262,1.565,336.000,69.700,15.190,3.784,baseline
1285.000,264.800,56.980,10.350,1001.000,184.000,37.670,6.732,172.200,29.740,6.276,1.567,334.900,70.000,15.190,3.774,baseline
1282.000,264.900,56.840,10.300,1001.000,184.400,37.620,6.710,173.700,29.520,6.257,1.568,335.100,69.870,15.330,3.779,baseline
1284.000,264.800,57.000,10.320,1002.000,184.200,37.670,6.709,172.900,29.780,6.297,1.571,334.700,69.770,15.310,3.774,baseline
1284.000,265.200,57.290,10.330,1006.000,184.600,37.830,6.766,172.700,29.660,6.269,1.589,335.100,69.730,15.280,3.791,baseline
1290.000,266.600,57.620,10.410,1007.000,185.000,37.860,6.782,174.200,29.450,6.277,1.575,337.600,70.150,15.430,3.826,baseline
1299.000,267.100,57.200,10.520,1005.000,185.500,38.000,6.767,171.800,29.930,6.305,1.596,338.800,70.650,15.440,3.849,baseline
1304.000,268.400,57.740,10.570,1009.000,186.100,38.210,6.823,175.200,29.960,6.328,1.598,340.400,70.530,15.520,3.848,baseline
1312.000,269.800,58.230,10.580,1012.000,186.400,38.160,6.822,172.200,29.700,6.305,1.593,340.400,71.290,15.610,3.863,baseline
1318.000,271.400,58.640,10.690,1014.000,187.100,38.330,6.828,175.100,29.950,6.354,1.593,341.800,71.450,15.760,3.931,baseline
1326.000,272.200,58.560,10.700,1013.000,186.600,38.120,6.773,173.500,29.880,6.410,1.593,341.100,70.720,15.430,3.839,baseline
1305.000,268.500,57.280,10.450,1002.000,184.800,37.860,6.746,173.600,29.830,6.308,1.572,335.900,70.180,15.270,3.799,baseline
1288.000,265.600,57.220,10.410,1002.000,183.700,37.680,6.686,172.900,29.520,6.341,1.579,335.300,69.990,15.240,3.796,baseline
1282.000,263.900,56.960,10.340,999.900,184.900,37.700,6.709,174.700,29.920,6.309,1.576,334.300,69.740,15.320,3.809,baseline
1282.000,264.800,56.640,10.320,1000.000,183.900,37.700,6.690,171.500,29.800,6.299,1.579,334.900,69.550,15.280,3.778,baseline
1283.000,264.400,57.120,10.360,1001.000,184.000,37.810,6.743,173.100,29.520,6.285,1.586,335.300,69.950,15.230,3.790,baseline
1287.000,265.800,57.310,10.380,1006.000,184.700,37.770,6.777,173.300,29.700,6.234,1.586,335.300,70.190,15.340,3.836,baseline
1294.000,265.700,57.460,10.430,1004.000,185.400,37.850,6.763,170.700,29.690,6.335,1.580,337.200,70.310,15.390,3.816,baseline
1301.000,268.100,57.900,10.500,1006.000,185.800,38.000,6.802,174.900,29.540,6.346,1.588,338.400,70.520,15.430,3.843,baseline
1307.000,270.700,58.250,10.620,1013.000,186.300,38.050,6.795,172.800,29.990,6.286,1.588,340.000,71.340,15.610,3.888,baseline
1314.000,271.200,58.550,10.700,1012.000,186.500,38.040,6.794,175.000,29.890,6.333,1.594,340.700,71.050,15.640,3.917,baseline
1321.000,271.600,58.750,10.750,1016.000,187.600,38.270,6.850,175.200,29.520,6.325,1.592,342.000,71.570,15.740,3.950,baseline
1328.000,275.000,58.890,10.770,1016.000,187.100,38.320,6.800,174.200,29.980,6.367,1.592,343.400,71.440,15.560,3.866,baseline
1315.000,271.400,58.070,10.570,1008.000,185.200,37.960,6.743,174.700,29.360,6.275,1.587,336.100,70.190,15.420,3.797,baseline
1294.000,266.800,57.270,10.410,1004.000,183.800,37.730,6.737,172.500,29.580,6.294,1.581,335.100,70.250,15.330,3.797,baseline
1286.000,264.600,57.110,10.350,997.500,184.200,37.670,6.744,172.500,29.520,6.270,1.571,335.600,69.890,15.300,3.813,baseline
1286.000,265.200,57.220,10.360,1007.000,184.500,37.650,6.714,173.600,29.700,6.301,1.586,335.200,69.940,15.320,3.799,baseline
1287.000,264.400,57.020,10.380,1005.000,184.100,37.780,6.711,172.900,30.000,6.293,1.584,335.400,69.850,15.280,3.798,baseline
1289.000,265.300,57.570,10.410,1007.000,184.800,37.830,6.736,170.700,29.420,6.289,1.574,335.600,70.460,15.370,3.828,baseline
1295.000,267.500,57.460,10.460,1007.000,185.600,37.820,6.750,171.600,29.580,6.309,1.579,337.400,70.570,15.500,3.843,baseline
1302.000,267.800,58.070,10.520,1008.000,185.800,37.970,6.786,175.000,29.790,6.319,1.590,338.800,70.810,15.530,3.854,baseline
1308.000,269.800,58.500,10.670,1009.000,186.100,38.070,6.805,175.200,29.860,6.357,1.581,339.400,71.130,15.590,3.917,baseline
1315.000,272.200,58.600,10.690,1010.000,186.500,38.010,6.820,175.500,29.630,6.332,1.586,341.400,71.610,15.600,3.922,baseline
1322.000,273.600,58.850,10.750,1016.000,186.900,38.240,6.827,176.900,30.020,6.371,1.598,343.600,71.420,15.760,3.923,baseline
1329.000,273.800,58.980,10.800,1015.000,186.700,38.100,6.793,176.800,29.750,6.325,1.599,342.700,71.470,15.740,3.894,baseline
1318.000,270.300,58.280,10.560,1006.000,185.200,37.920,6.732,172.700,29.600,6.314,1.585,337.100,70.050,15.360,3.859,baseline
1297.000,267.900,57.520,10.450,1004.000,184.400,37.730,6.740,175.600,29.830,6.271,1.575,337.300,70.340,15.360,3.828,baseline
1293.000,266.800,57.410,10.380,1003.000,184.200,37.690,6.728,172.200,29.840,6.293,1.579,335.600,70.280,15.400,3.845,baseline
1293.000,265.900,57.490,10.350,1004.000,184.600,37.580,6.710,175.200,29.520,6.305,1.571,337.500,70.160,15.430,3.845,baseline
1293.000,267.200,57.520,10.390,1006.000,184.200,37.640,6.746,172.500,29.750,6.330,1.577,336.400,70.300,15.380,3.830,baseline
1296.000,266.400,57.770,10.460,1006.000,184.700,37.860,6.745,173.300,29.630,6.343,1.584,338.300,70.280,15.470,3.853,baseline
1302.000,270.000,57.940,10.590,1007.000,185.800,37.960,6.757,177.500,29.480,6.336,1.581,339.300,70.910,15.560,3.863,baseline
1308.000,268.900,58.140,10.550,1008.000,185.900,37.980,6.785,174.700,30.010,6.329,1.603,339.800,71.170,15.620,3.887,baseline
1315.000,270.600,58.530,10.640,1012.000,186.400,38.130,6.813,172.400,29.830,6.324,1.583,341.300,71.400,15.620,3.928,baseline
1322.000,272.500,58.690,10.730,1016.000,186.300,38.220,6.851,173.700,29.630,6.362,1.589,343.500,71.470,15.790,3.949,baseline
1328.000,273.200,58.870,10.840,1017.000,186.800,38.280,6.799,173.300,29.660,6.361,1.592,343.700,71.660,15.780,3.937,baseline
1325.000,271.600,58.600,10.660,1013.000,185.600,38.060,6.784,175.000,29.640,6.346,1.596,340.400,70.720,15.570,3.838,baseline
1304.000,268.900,57.980,10.520,1005.000,185.300,37.920,6.725,176.100,29.710,6.313,1.575,338.300,70.420,15.570,3.861,baseline
1299.000,269.400,57.610,10.470,1008.000,184.900,37.780,6.764,174.700,29.750,6.295,1.576,339.600,70.600,15.520,3.877,baseline
1301.000,267.800,57.910,10.450,1004.000,184.800,37.900,6.764,173.800,29.580,6.310,1.578,339.900,71.080,15.550,3.857,baseline
1300.000,267.400,57.920,10.500,1007.000,185.000,37.890,6.765,175.100,29.550,6.273,1.574,339.500,70.750,15.490,3.906,baseline
1302.000,267.900,57.900,10.550,1006.000,185.400,37.940,6.774,173.700,29.580,6.317,1.580,340.500,70.910,15.550,3.890,baseline
1307.000,268.800,58.170,10.580,1011.000,185.900,38.050,6.793,173.700,29.750,6.366,1.589,342.400,71.360,15.660,3.915,baseline
1314.000,271.000,58.440,10.630,1010.000,186.200,37.940,6.804,174.600,29.850,6.299,1.587,342.500,71.490,15.700,3.948,baseline
1320.000,273.700,58.740,10.690,1013.000,186.200,38.200,6.804,176.800,29.720,6.330,1.580,343.400,71.730,15.750,3.949,baseline
1326.000,273.500,59.110,10.770,1014.000,186.300,38.330,6.821,177.500,29.930,6.316,1.587,344.600,71.810,15.760,3.951,baseline
1319.000,271.600,58.550,10.610,1007.000,184.900,37.840,6.756,177.100,30.000,6.322,1.577,340.200,71.130,15.560,3.862,baseline
1302.000,269.300,57.680,10.500,1003.000,184.300,37.750,6.747,174.700,29.540,6.312,1.585,340.300,70.750,15.510,3.895,baseline
1298.000,268.400,57.690,10.510,1006.000,184.600,37.880,6.766,174.800,29.950,6.314,1.580,338.700,70.720,15.600,3.879,baseline
1300.000,267.600,57.670,10.510,1006.000,184.700,37.910,6.742,173.700,29.670,6.310,1.588,340.200,70.740,15.510,3.868,baseline
1298.000,267.500,57.590,10.530,1005.000,184.800,37.940,6.745,174.900,29.850,6.293,1.579,339.400,70.780,15.630,3.897,baseline
1301.000,268.000,57.960,10.550,1007.000,185.100,37.750,6.772,174.100,29.770,6.310,1.585,341.600,70.870,15.560,3.915,baseline
1307.000,269.800,58.270,10.620,1013.000,185.700,38.050,6.795,174.300,29.880,6.297,1.584,341.700,71.690,15.640,3.924,baseline
1315.000,270.000,58.710,10.720,1009.000,186.200,37.960,6.780,176.400,29.980,6.354,1.591,345.000,71.540,15.690,3.954,baseline
1319.000,272.000,58.860,10.770,1016.000,186.600,38.230,6.831,180.500,29.710,6.308,1.600,344.700,72.510,15.830,3.970,baseline
1326.000,273.100,59.400,10.750,1015.000,186.800,38.250,6.782,174.900,30.000,6.309,1.594,345.600,71.730,15.730,3.931,baseline
1315.000,269.100,58.330,10.580,1006.000,184.900,37.930,6.718,174.700,29.810,6.331,1.581,340.300,71.080,15.430,3.866,baseline
1295.000,266.600,57.340,10.410,1002.000,184.500,37.420,6.703,174.000,29.820,6.286,1.592,338.100,70.810,15.430,3.871,baseline
1288.000,265.700,57.270,10.410,999.900,183.800,37.670,6.701,177.200,29.550,6.310,1.586,338.300,70.590,15.550,3.864,baseline
1287.000,264.300,57.240,10.400,1000.000,183.300,37.660,6.723,175.500,29.710,6.310,1.582,338.600,70.620,15.430,3.866,baseline
1286.000,266.000,56.920,10.360,1001.000,182.900,37.590,6.692,175.000,29.950,6.324,1.572,338.000,70.260,15.520,3.857,baseline
1288.000,264.400,56.970,10.410,1001.000,184.200,37.740,6.755,175.700,29.590,6.304,1.587,339.300,70.870,15.540,3.892,baseline
1293.000,266.600,57.550,10.430,1003.000,184.100,37.860,6.736,175.900,29.700,6.295,1.582,340.600,71.110,15.570,3.912,baseline
1299.000,267.400,57.510,10.550,1001.000,185.400,37.910,6.781,174.600,29.800,6.286,1.583,341.200,71.560,15.610,3.923,baseline
1303.000,268.100,58.140,10.540,1006.000,185.400,37.870,6.777,173.100,29.560,6.332,1.585,342.600,71.430,15.640,3.921,baseline
1310.000,269.800,58.460,10.640,1006.000,185.400,37.820,6.804,176.800,29.600,6.340,1.580,344.300,71.740,15.740,3.952,baseline
1314.000,269.900,58.400,10.620,1006.000,184.200,37.790,6.742,177.400,29.630,6.316,1.589,341.500,70.970,15.580,3.871,baseline
1292.000,266.200,57.110,10.390,1003.000,183.400,37.620,6.676,175.300,29.640,6.290,1.571,338.700,70.400,15.420,3.861,baseline
1279.000,263.600,56.790,10.320,992.700,182.000,37.270,6.638,173.600,29.740,6.269,1.573,337.600,70.060,15.430,3.836,baseline
1274.000,262.200,56.410,10.270,995.600,182.900,37.500,6.654,175.700,29.620,6.252,1.585,337.400,70.270,15.400,3.838,baseline
1274.000,261.700,56.510,10.260,996.000,182.700,37.350,6.673,172.600,29.860,6.265,1.572,335.100,70.540,15.360,3.826,baseline
1273.000,262.000,56.150,10.310,994.500,182.300,37.280,6.653,172.200,29.490,6.254,1.574,338.500,70.400,15.430,3.841,baseline
1277.000,263.200,56.630,10.350,997.300,183.300,37.450,6.667,172.000,29.520,6.250,1.580,337.400,70.590,15.460,3.844,baseline
1282.000,265.800,56.670,10.400,1000.000,183.400,37.500,6.734,176.500,29.540,6.274,1.586,339.400,70.990,15.560,3.904,baseline
1287.000,265.400,57.430,10.490,1000.000,183.100,37.600,6.696,176.400,29.760,6.303,1.573,340.200,71.180,15.640,3.897,baseline
1293.000,266.800,57.290,10.480,1003.000,183.500,37.560,6.720,174.700,29.790,6.295,1.589,341.900,71.040,15.590,3.918,baseline
1299.000,266.200,57.790,10.550,1003.000,184.400,37.740,6.734,174.500,29.470,6.317,1.590,343.500,71.700,15.780,3.937,baseline
1305.000,269.800,58.250,10.620,1006.000,184.600,37.560,6.746,172.600,30.020,6.277,1.587,342.800,71.560,15.570,3.915,baseline
1296.000,266.200,57.440,10.420,996.900,182.700,37.330,6.658,174.800,29.490,6.271,1.569,338.000,70.550,15.500,3.867,baseline
1275.000,261.200,56.410,10.260,992.900,182.200,37.100,6.643,176.100,29.520,6.275,1.569,337.900,70.470,15.450,3.829,baseline
1269.000,260.200,56.290,10.260,989.400,182.100,37.220,6.632,173.100,29.750,6.246,1.571,336.600,70.560,15.390,3.839,baseline
1268.000,261.800,56.270,10.290,991.200,181.300,37.350,6.636,171.800,29.530,6.258,1.570,336.700,70.500,15.390,3.835,baseline
1267.000,262.300,56.240,10.250,991.300,182.100,37.310,6.628,173.200,29.220,6.305,1.572,338.000,70.460,15.430,3.856,baseline
1270.000,262.900,56.470,10.320,992.800,182.200,37.400,6.678,173.800,29.490,6.313,1.574,338.700,70.630,15.460,3.869,baseline
1275.000,264.200,56.960,10.360,995.100,182.300,37.450,6.696,174.100,29.720,6.288,1.569,339.200,70.720,15.570,3.913,baseline
1279.000,264.300,56.740,10.410,995.100,183.000,37.500,6.724,174.200,29.580,6.276,1.579,340.900,71.000,15.600,3.908,baseline
1286.000,264.600,57.340,10.490,999.500,183.400,37.470,6.756,174.800,29.890,6.315,1.582,340.300,71.580,15.700,3.916,baseline
1291.000,265.200,57.710,10.530,1002.000,183.300,37.640,6.733,173.600,29.920,6.276,1.582,343.200,71.430,15.630,3.982,baseline
1298.000,267.900,57.730,10.660,1001.000,183.600,37.630,6.727,175.200,30.060,6.274,1.589,342.200,71.330,15.680,3.931,baseline
1289.000,264.300,56.950,10.470,995.900,182.500,37.400,6.644,175.000,29.490,6.257,1.576,338.400,71.020,15.560,3.874,baseline
1274.000,263.300,56.500,10.320,991.400,182.400,37.190,6.682,173.800,29.840,6.286,1.578,339.200,70.540,15.570,3.846,baseline
1270.000,262.200,56.650,10.300,993.300,182.600,37.320,6.644,174.600,29.430,6.267,1.570,338.800,70.910,15.490,3.868,baseline
1272.000,261.800,56.520,10.370,992.300,181.900,37.420,6.679,174.500,29.170,6.257,1.578,339.000,70.670,15.490,3.864,baseline
1271.000,262.300,56.540,10.360,992.900,182.300,37.370,6.663,173.600,29.530,6.231,1.578,338.800,70.830,15.470,3.892,baseline
1274.000,263.300,56.860,10.400,995.300,182.400,37.430,6.691,175.700,29.520,6.239,1.571,339.100,70.780,15.530,3.902,baseline
1279.000,262.800,56.950,10.430,1001.000,182.600,37.510,6.692,175.600,29.880,6.310,1.590,339.600,71.040,15.690,3.931,baseline
1286.000,265.000,57.160,10.480,998.400,183.300,37.500,6.724,174.500,29.540,6.340,1.589,342.100,71.570,15.750,3.949,baseline
1290.000,266.800,57.750,10.570,1000.000,183.500,37.760,6.783,176.100,29.960,6.313,1.585,343.100,71.820,15.850,3.941,baseline
1297.000,267.400,58.010,10.600,1004.000,184.700,37.640,6.752,172.800,29.690,6.291,1.584,343.600,71.660,15.740,3.961,baseline
1290.000,265.300,57.310,10.390,996.700,183.000,37.350,6.695,173.600,29.550,6.287,1.584,339.500,70.740,15.610,3.871,baseline
1274.000,262.000,57.140,10.380,989.900,182.100,37.260,6.682,175.900,29.950,6.293,1.574,339.700,70.520,15.540,3.852,baseline
1271.000,261.500,56.780,10.310,993.200,182.400,37.330,6.640,176.600,29.430,6.264,1.570,339.400,71.100,15.590,3.892,baseline
1272.000,262.600,56.500,10.370,992.000,182.900,37.250,6.641,175.300,29.800,6.312,1.577,339.900,70.980,15.510,3.867,baseline
1273.000,263.000,56.860,10.420,992.800,182.800,37.510,6.697,176.700,29.430,6.301,1.585,339.100,71.070,15.650,3.901,baseline
1276.000,263.500,57.200,10.440,994.500,182.400,37.540,6.720,173.600,29.360,6.259,1.571,340.200,71.370,15.620,3.915,baseline
1282.000,264.600,57.360,10.520,997.900,183.100,37.620,6.706,175.500,29.730,6.308,1.584,341.500,71.680,15.660,3.925,baseline
1288.000,266.800,57.660,10.560,999.300,183.800,37.670,6.732,173.500,29.660,6.314,1.580,343.600,71.660,15.730,3.943,baseline
1295.000,268.900,58.010,10.630,1000.000,184.400,37.830,6.757,173.900,29.540,6.257,1.594,343.700,72.180,15.900,3.962,baseline
1301.000,269.900,58.170,10.680,1006.000,183.700,37.680,6.727,175.600,29.740,6.303,1.589,345.500,71.780,15.770,3.937,baseline
1289.000,266.100,57.520,10.420,996.200,182.600,37.490,6.676,173.100,29.700,6.291,1.582,340.200,70.660,15.540,3.891,baseline
1271.000,263.100,56.830,10.380,994.700,182.600,37.280,6.654,173.800,29.520,6.233,1.566,338.300,70.720,15.510,3.905,baseline
1266.000,260.800,56.550,10.350,990.100,182.000,37.370,6.667,174.600,29.670,6.271,1.573,338.200,70.530,15.440,3.876,baseline
1267.000,261.400,56.670,10.310,991.700,182.600,37.360,6.621,173.300,29.550,6.276,1.586,337.900,70.830,15.530,3.886,baseline
1266.000,261.500,56.860,10.340,990.700,182.200,37.300,6.657,172.000,29.870,6.242,1.574,338.900,71.150,15.590,3.888,baseline
1270.000,261.800,56.750,10.370,993.800,182.000,37.400,6.682,173.900,29.600,6.287,1.573,338.500,71.340,15.690,3.931,baseline
1276.000,264.200,56.880,10.480,991.600,182.700,37.520,6.700,177.800,29.680,6.297,1.577,339.900,71.660,15.670,3.937,baseline
1283.000,266.700,57.480,10.540,994.800,182.800,37.680,6.713,175.800,29.490,6.232,1.588,340.600,71.740,15.740,3.931,baseline
1289.000,267.400,57.950,10.570,997.800,183.900,37.770,6.744,174.000,29.940,6.291,1.582,341.900,71.900,15.720,3.972,baseline
1296.000,269.200,58.180,10.650,1001.000,184.300,37.800,6.748,175.100,29.790,6.256,1.587,343.700,72.350,15.870,3.997,baseline
1304.000,271.200,58.440,10.740,1007.000,184.700,37.950,6.787,176.300,29.780,6.346,1.593,345.200,72.470,15.900,3.973,baseline
1303.000,268.800,57.930,10.520,999.600,183.300,37.480,6.686,175.300,29.860,6.257,1.579,341.000,71.030,15.620,3.913,baseline
1278.000,262.600,57.380,10.370,996.400,182.800,37.470,6.688,174.600,29.510,6.247,1.578,339.800,70.690,15.570,3.884,baseline
1270.000,263.000,56.760,10.350,989.800,182.500,37.190,6.647,172.500,29.630,6.237,1.572,337.700,70.800,15.480,3.891,baseline
1266.000,261.200,56.770,10.310,991.900,182.400,37.340,6.669,178.000,29.640,6.285,1.580,338.800,70.860,15.620,3.879,baseline
1268.000,262.700,56.520,10.330,987.800,182.500,37.260,6.643,172.100,29.080,6.243,1.585,338.700,70.810,15.480,3.901,baseline
1270.000,262.500,56.910,10.330,992.700,182.900,37.390,6.661,172.300,29.670,6.299,1.582,339.000,71.460,15.500,3.912,baseline
1274.000,263.600,57.100,10.450,994.600,182.700,37.600,6.668,172.000,29.680,6.302,1.584,340.000,71.180,15.620,3.923,baseline
1281.000,266.300,57.480,10.500,996.500,182.800,37.550,6.715,176.000,30.130,6.236,1.576,340.800,71.350,15.700,3.937,baseline
1287.000,266.200,57.530,10.540,998.400,184.100,37.680,6.710,173.900,29.410,6.284,1.582,341.700,71.580,15.710,3.948,baseline
1294.000,267.600,58.280,10.650,1002.000,183.900,37.770,6.732,174.900,29.680,6.254,1.586,343.300,71.990,15.860,3.962,baseline
1301.000,270.200,58.320,10.630,1006.000,184.900,37.960,6.814,175.200,29.620,6.310,1.578,343.500,72.080,15.910,3.977,baseline
1308.000,271.900,58.800,10.700,1008.000,185.200,37.960,6.755,171.600,29.740,6.310,1.590,345.200,72.700,16.040,3.973,baseline
1308.000,268.800,58.340,10.610,1004.000,183.100,37.680,6.683,174.800,29.860,6.271,1.574,341.200,71.450,15.710,3.926,baseline
1283.000,265.000,57.260,10.410,997.400,183.000,37.260,6.658,173.500,29.470,6.278,1.576,339.800,71.270,15.600,3.868,baseline
1274.000,262.000,56.710,10.340,996.200,182.800,37.390,6.662,174.700,29.660,6.239,1.570,337.800,71.250,15.570,3.905,baseline
1271.000,263.300,57.180,10.370,992.100,182.800,37.200,6.667,174.000,29.710,6.264,1.561,338.500,71.140,15.570,3.912,baseline
1272.000,263.800,56.760,10.350,992.300,182.400,37.270,6.654,172.600,29.670,6.247,1.565,339.200,70.790,15.650,3.906,baseline
1275.000,263.700,57.070,10.410,993.400,182.300,37.570,6.707,175.400,29.200,6.295,1.565,338.900,71.430,15.590,3.884,baseline
1280.000,265.600,57.440,10.490,998.600,183.700,37.560,6.726,172.000,29.810,6.278,1.583,340.100,71.600,15.620,3.948,baseline
1285.000,265.800,57.600,10.510,1002.000,183.400,37.560,6.736,174.000,29.530,6.287,1.573,341.400,71.530,15.760,3.975,baseline
1293.000,266.800,57.800,10.510,1003.000,183.800,37.690,6.734,174.500,29.420,6.263,1.574,342.300,72.130,15.750,3.935,baseline
1299.000,267.300,58.060,10.670,1004.000,183.900,37.980,6.764,173.400,29.910,6.298,1.582,344.100,72.380,15.860,3.995,baseline
1306.000,269.400,58.600,10.680,1007.000,185.600,37.920,6.791,174.500,29.750,6.280,1.576,345.300,72.550,15.920,4.005,baseline
1313.000,272.700,58.870,10.710,1006.000,185.400,37.920,6.747,176.300,30.070,6.287,1.585,345.200,72.290,15.850,3.957,baseline
1299.000,268.000,57.630,10.480,998.600,183.100,37.600,6.717,173.900,29.970,6.282,1.569,339.800,71.800,15.690,3.907,baseline
1283.000,264.900,57.580,10.410,996.400,182.700,37.370,6.681,177.500,29.690,6.261,1.562,340.600,71.110,15.600,3.929,baseline
1279.000,264.900,57.610,10.420,996.100,182.900,37.440,6.678,174.900,29.710,6.243,1.568,340.500,71.170,15.700,3.909,baseline
1281.000,265.700,57.530,10.490,993.600,183.200,37.440,6.700,175.300,29.690,6.210,1.571,340.800,71.060,15.600,3.905,baseline
1281.000,265.000,57.060,10.430,996.300,182.800,37.430,6.696,172.000,29.650,6.254,1.569,341.300,71.380,15.600,3.946,baseline
1285.000,266.100,57.460,10.500,999.400,183.100,37.600,6.713,173.700,29.500,6.287,1.576,341.000,71.450,15.750,3.949,baseline
1291.000,266.000,57.570,10.590,1002.000,184.000,37.700,6.738,173.800,29.630,6.267,1.580,342.900,71.940,15.760,3.945,baseline
1297.000,268.800,58.050,10.650,1005.000,184.200,37.800,6.739,173.800,29.920,6.305,1.583,344.400,72.040,15.800,3.988,baseline
1303.000,269.500,58.270,10.740,1005.000,184.800,37.870,6.766,176.700,29.490,6.330,1.575,345.300,72.520,15.950,4.017,baseline
1308.000,271.300,58.680,10.770,1007.000,184.400,37.930,6.764,175.400,29.740,6.299,1.572,346.200,72.760,15.990,4.000,baseline
1313.000,270.500,58.640,10.670,1005.000,183.400,37.650,6.755,174.600,30.190,6.305,1.582,342.700,71.860,15.770,3.957,baseline
1294.000,267.200,57.730,10.490,997.200,183.000,37.610,6.677,174.000,29.160,6.274,1.572,342.300,71.670,15.640,3.928,baseline
1287.000,266.500,57.720,10.460,994.700,183.300,37.550,6.704,173.200,29.370,6.272,1.569,342.400,71.490,15.650,3.942,baseline
1287.000,266.100,57.780,10.570,1003.000,182.900,37.560,6.718,174.800,29.960,6.273,1.582,342.300,71.780,15.710,3.947,baseline
1287.000,266.400,57.450,10.510,1000.000,183.400,37.490,6.694,173.500,29.540,6.318,1.555,342.500,71.770,15.690,3.937,baseline
1288.000,266.100,57.960,10.550,1001.000,184.300,37.770,6.757,176.200,29.930,6.250,1.561,342.700,71.760,15.650,3.937,baseline
1293.000,268.200,57.930,10.600,1001.000,184.300,37.770,6.750,172.900,29.650,6.267,1.582,344.500,71.940,15.850,3.969,baseline
1300.000,269.300,58.300,10.690,1006.000,184.600,37.900,6.751,175.900,29.820,6.294,1.584,343.800,72.300,15.910,4.003,baseline
1307.000,271.000,58.420,10.720,1006.000,185.000,38.010,6.785,175.200,29.650,6.374,1.588,346.300,72.600,15.940,3.996,baseline
1312.000,270.900,58.710,10.770,1009.000,186.000,37.970,6.812,172.900,30.200,6.332,1.606,347.000,73.090,15.960,4.022,baseline
1318.000,272.500,58.780,10.710,1008.000,184.400,37.770,6.752,176.300,30.130,6.326,1.576,344.800,72.270,15.760,3.930,baseline
1294.000,266.900,57.730,10.510,1000.000,183.900,37.580,6.701,177.700,29.770,6.260,1.573,343.000,71.790,15.630,3.955,baseline
1285.000,266.000,57.270,10.440,995.000,183.000,37.390,6.723,174.900,29.550,6.281,1.571,342.400,71.750,15.650,3.909,baseline
1279.000,265.000,57.120,10.440,995.800,183.500,37.410,6.692,173.700,29.650,6.291,1.581,341.700,71.740,15.640,3.939,baseline
1282.000,262.700,57.450,10.460,995.700,183.500,37.390,6.704,175.700,29.620,6.244,1.579,341.600,71.990,15.610,3.928,baseline
1283.000,265.400,57.710,10.500,1000.000,182.700,37.520,6.686,174.600,29.340,6.218,1.575,341.600,71.620,15.690,3.945,baseline
1288.000,264.700,57.750,10.570,1002.000,183.900,37.720,6.739,174.000,29.790,6.303,1.584,341.800,72.300,15.770,3.968,baseline
1294.000,267.400,57.700,10.640,1003.000,184.300,37.880,6.749,175.700,30.040,6.278,1.573,343.000,72.250,15.890,3.990,baseline
1302.000,269.500,58.580,10.720,1006.000,184.400,37.830,6.766,175.200,30.060,6.342,1.587,346.600,72.350,15.920,3.989,baseline
1307.000,270.900,58.540,10.750,1004.000,184.800,37.990,6.786,176.400,29.830,6.311,1.586,346.700,72.870,15.970,4.027,baseline
1313.000,271.800,59.090,10.870,1010.000,185.600,38.280,6.812,176.600,30.010,6.321,1.584,347.900,73.260,16.050,4.016,baseline
1316.000,272.400,58.720,10.670,1004.000,183.900,37.750,6.749,178.000,29.780,6.308,1.579,345.700,71.950,15.730,3.928,baseline
1292.000,267.300,58.050,10.500,996.400,183.500,37.550,6.708,177.900,29.650,6.242,1.587,341.800,71.580,15.720,3.924,baseline
1281.000,265.200,57.170,10.340,996.600,182.600,37.310,6.712,175.800,29.810,6.264,1.570,342.000,71.620,15.590,3.937,baseline
1278.000,263.300,57.050,10.430,998.900,183.100,37.340,6.680,176.300,29.490,6.289,1.575,341.300,71.270,15.620,3.937,baseline
1278.000,264.200,57.070,10.480,993.100,182.800,37.370,6.689,172.800,29.510,6.279,1.572,341.800,71.360,15.580,3.896,baseline
1279.000,263.900,57.070,10.420,997.100,183.000,37.510,6.714,173.200,29.660,6.253,1.568,342.200,71.560,15.700,3.937,baseline
1284.000,264.300,57.530,10.480,999.400,184.000,37.610,6.720,174.900,29.940,6.239,1.577,343.300,71.910,15.720,3.950,baseline
1292.000,267.600,57.820,10.620,999.600,183.900,37.640,6.744,176.600,29.880,6.275,1.585,344.900,72.110,15.890,3.965,baseline
1298.000,268.600,58.190,10.670,1002.000,184.300,37.880,6.769,174.900,29.800,6.349,1.585,344.300,72.170,15.980,4.005,baseline
1305.000,269.100,58.430,10.740,1005.000,185.100,37.900,6.768,176.400,29.640,6.346,1.588,345.900,72.800,16.000,4.025,baseline
1311.000,271.700,58.810,10.790,1008.000,185.100,38.100,6.794,176.400,30.140,6.351,1.602,348.100,73.070,16.110,4.011,baseline
1319.000,273.400,59.310,10.810,1011.000,185.400,38.100,6.783,177.100,29.920,6.337,1.590,347.800,73.190,15.960,3.986,baseline
1306.000,270.300,58.070,10.590,1002.000,183.300,37.670,6.731,174.000,29.790,6.299,1.590,344.100,71.950,15.720,3.938,baseline
1286.000,266.300,57.300,10.500,996.600,183.000,37.430,6.665,175.200,29.600,6.347,1.589,343.300,71.530,15.680,3.940,baseline
1289.000,266.800,57.880,10.630,997.900,183.800,37.780,6.765,173.800,30.030,6.274,1.591,344.200,72.500,15.850,3.964,hard
1296.000,267.000,58.540,10.680,1005.000,184.500,37.720,6.796,178.000,30.200,6.271,1.595,347.000,72.390,15.830,4.008,hard
1302.000,270.300,58.360,10.710,1006.000,184.900,37.890,6.768,178.900,30.030,6.285,1.597,346.400,72.530,15.890,3.990,hard
1308.000,271.600,58.670,10.770,1006.000,185.600,38.140,6.798,174.800,29.910,6.287,1.598,348.100,73.270,15.970,4.007,hard
1316.000,272.200,59.240,10.830,1011.000,185.400,38.150,6.769,177.700,29.930,6.295,1.594,349.200,73.210,15.990,4.013,hard
1313.000,272.100,58.690,10.690,1004.000,184.400,37.660,6.718,175.100,29.860,6.379,1.581,345.100,71.860,15.680,3.942,hard
1292.000,267.200,57.720,10.560,1000.000,184.100,37.630,6.693,176.300,29.630,6.298,1.590,344.400,71.800,15.630,3.957,hard
1287.000,265.700,57.690,10.540,1002.000,183.300,37.510,6.729,173.600,29.880,6.271,1.580,343.600,71.980,15.720,3.941,hard
1290.000,266.600,57.810,10.550,1001.000,184.200,37.590,6.731,173.600,29.980,6.303,1.585,344.500,71.970,15.720,3.954,hard
1288.000,265.300,57.940,10.560,998.700,184.200,37.660,6.687,176.200,29.850,6.255,1.575,344.400,72.420,15.740,3.940,hard
1290.000,266.300,57.930,10.660,999.000,184.400,37.640,6.748,176.500,29.750,6.298,1.576,345.900,72.440,15.740,3.966,hard
1296.000,269.500,58.370,10.680,1004.000,184.700,37.760,6.755,173.800,29.840,6.304,1.588,346.900,72.220,15.750,3.991,hard
1302.000,269.800,58.610,10.730,1002.000,184.400,37.950,6.800,176.000,30.130,6.337,1.582,348.200,72.960,15.870,4.002,hard
1308.000,270.600,58.880,10.780,1006.000,185.100,38.120,6.772,176.700,30.080,6.359,1.584,349.000,72.840,15.970,4.030,hard
1315.000,273.500,59.450,10.890,1008.000,185.300,38.150,6.803,174.500,30.140,6.350,1.596,349.500,73.280,15.990,4.040,hard
1318.000,272.900,59.070,10.790,1006.000,184.600,37.850,6.758,173.700,29.940,6.342,1.597,346.800,72.100,15.820,3.978,hard
1296.000,268.400,57.870,10.660,1002.000,184.000,37.570,6.728,174.600,29.790,6.323,1.595,344.800,72.220,15.740,3.932,hard
1291.000,267.700,57.870,10.580,1002.000,183.300,37.590,6.750,174.800,29.900,6.310,1.589,343.700,71.800,15.660,3.924,hard
1290.000,268.000,57.740,10.580,1001.000,184.100,37.650,6.755,177.100,29.700,6.313,1.594,345.000,72.140,15.810,3.962,hard
1291.000,268.200,57.840,10.570,1001.000,184.100,37.560,6.723,174.500,29.810,6.276,1.587,344.700,72.060,15.730,3.921,hard
1292.000,267.300,58.010,10.580,1002.000,184.100,37.750,6.746,173.600,30.130,6.298,1.588,345.000,72.100,15.790,3.942,hard
1298.000,268.000,58.460,10.690,1000.000,185.100,37.820,6.755,176.400,29.880,6.344,1.588,347.500,72.650,15.870,3.979,hard
1304.000,269.800,58.490,10.730,1006.000,185.300,37.960,6.815,175.100,30.020,6.304,1.596,349.400,72.900,15.840,3.982,hard
1311.000,271.300,58.950,10.790,1007.000,185.500,37.930,6.799,175.900,29.950,6.369,1.594,348.100,72.960,15.920,4.017,hard
1316.000,272.800,59.320,10.840,1009.000,186.200,38.190,6.811,177.200,29.640,6.344,1.593,350.400,73.450,15.910,4.052,hard
1323.000,275.000,59.280,10.880,1011.000,186.100,38.030,6.780,174.000,29.900,6.353,1.607,350.900,73.260,16.010,4.017,hard
1312.000,269.900,58.480,10.690,998.200,184.500,37.790,6.721,177.800,30.160,6.314,1.602,345.600,72.110,15.670,3.927,hard
1292.000,268.000,57.730,10.570,999.700,183.300,37.610,6.685,175.000,29.660,6.287,1.584,343.100,71.450,15.670,3.929,hard
1284.000,265.000,57.320,10.510,999.500,182.900,37.420,6.710,175.000,29.580,6.288,1.595,342.500,71.790,15.590,3.937,hard
1282.000,265.500,57.560,10.500,997.900,183.000,37.500,6.677,178.300,29.590,6.307,1.579,342.100,71.480,15.640,3.908,hard
1281.000,265.300,57.410,10.460,997.400,183.000,37.430,6.674,177.200,29.710,6.320,1.592,341.600,71.560,15.620,3.919,hard
1282.000,264.900,57.610,10.510,1002.000,183.400,37.440,6.687,175.000,29.920,6.269,1.580,343.100,71.710,15.690,3.931,hard
1288.000,267.700,58.280,10.610,999.400,183.600,37.660,6.725,174.900,29.820,6.329,1.578,343.000,72.180,15.700,3.946,hard
1295.000,267.500,58.100,10.590,999.700,184.100,37.660,6.736,176.600,29.940,6.290,1.589,344.800,72.210,15.890,3.952,hard
1300.000,270.200,58.280,10.650,1004.000,183.700,37.580,6.709,175.000,29.860,6.349,1.588,346.400,72.670,15.740,3.967,hard
1305.000,269.900,58.800,10.740,1003.000,184.900,37.830,6.753,176.900,30.140,6.284,1.587,347.200,73.070,15.970,3.992,hard
1310.000,270.000,58.530,10.660,998.600,183.900,37.510,6.686,175.700,29.850,6.328,1.591,343.900,72.150,15.590,3.916,hard
1290.000,266.600,57.490,10.440,992.500,183.000,37.480,6.667,173.200,29.840,6.287,1.589,341.100,71.520,15.560,3.883,hard
1279.000,265.000,57.240,10.450,996.000,182.500,37.150,6.659,175.800,29.770,6.276,1.586,339.700,71.210,15.570,3.881,hard
1275.000,263.900,57.020,10.400,993.800,182.700,37.340,6.640,174.000,29.540,6.283,1.576,340.800,71.210,15.560,3.898,hard
1275.000,263.200,56.750,10.390,992.700,182.600,37.160,6.669,176.300,29.710,6.274,1.592,339.300,71.480,15.450,3.869,hard
1275.000,263.800,56.700,10.410,995.600,182.600,37.450,6.644,172.500,30.220,6.202,1.580,341.000,71.110,15.570,3.883,hard
1280.000,265.000,57.350,10.480,994.800,182.800,37.230,6.669,174.900,29.640,6.298,1.584,341.600,71.450,15.690,3.927,hard
1286.000,266.300,57.700,10.490,1001.000,183.600,37.410,6.705,172.800,29.960,6.275,1.585,342.800,71.890,15.640,3.936,hard
1291.000,268.100,57.780,10.540,999.400,183.000,37.390,6.704,174.000,29.690,6.247,1.604,343.400,71.990,15.710,3.931,hard
1297.000,269.900,57.790,10.640,1001.000,183.600,37.750,6.730,175.100,29.600,6.335,1.582,344.500,72.460,15.790,3.944,hard
1301.000,268.700,57.810,10.500,998.900,182.600,37.220,6.626,176.800,29.680,6.273,1.598,342.500,71.500,15.480,3.900,hard
1280.000,264.400,57.030,10.470,992.000,182.200,36.980,6.631,172.900,29.690,6.313,1.590,339.800,71.320,15.450,3.869,hard
1273.000,262.900,56.650,10.360,990.400,181.700,36.970,6.605,173.900,29.570,6.264,1.578,339.200,70.810,15.300,3.842,hard
1271.000,261.500,56.480,10.360,993.800,181.500,37.150,6.588,175.200,29.500,6.301,1.589,339.600,71.260,15.450,3.861,hard
1271.000,262.800,56.580,10.290,993.300,181.300,37.170,6.632,174.800,30.150,6.255,1.585,340.100,71.250,15.420,3.873,hard
1271.000,263.200,56.570,10.390,992.700,182.100,37.110,6.648,174.300,29.990,6.301,1.581,339.700,71.120,15.430,3.859,hard
1278.000,263.600,57.100,10.390,993.000,182.300,37.210,6.648,176.800,29.600,6.280,1.572,340.300,71.470,15.550,3.857,hard
1283.000,265.600,57.300,10.500,995.300,183.000,37.410,6.654,173.300,29.660,6.314,1.580,342.600,71.900,15.600,3.901,hard
1288.000,266.700,57.280,10.470,996.300,183.200,37.430,6.675,171.900,29.910,6.293,1.587,343.000,72.110,15.700,3.925,hard
1294.000,267.500,57.950,10.570,998.200,183.400,37.370,6.642,174.500,29.860,6.302,1.581,342.400,71.840,15.500,3.914,hard
1284.000,264.600,57.060,10.360,991.500,181.600,37.190,6.605,175.700,29.460,6.282,1.579,339.700,71.030,15.480,3.875,hard
1268.000,261.800,56.720,10.290,985.200,181.000,37.070,6.608,174.600,29.600,6.282,1.574,339.500,71.220,15.380,3.857,hard
1267.000,261.200,56.480,10.350,991.400,181.900,36.960,6.578,174.000,29.610,6.248,1.578,339.300,71.280,15.460,3.862,hard
1268.000,261.200,56.640,10.320,991.300,180.600,37.020,6.597,172.300,29.710,6.214,1.576,340.400,71.140,15.450,3.872,hard
1269.000,262.800,56.310,10.340,993.300,182.100,37.150,6.587,174.100,29.190,6.247,1.578,340.000,71.630,15.410,3.883,hard
1273.000,263.400,56.890,10.360,991.800,180.900,37.180,6.631,172.300,29.570,6.274,1.588,339.400,71.480,15.520,3.867,hard
1279.000,265.300,57.340,10.430,995.700,182.700,37.320,6.656,170.500,29.780,6.248,1.577,341.700,71.660,15.580,3.919,hard
1286.000,265.900,57.500,10.480,1000.000,182.400,37.400,6.672,174.500,29.680,6.317,1.582,343.700,72.060,15.690,3.919,hard
1292.000,267.300,57.740,10.610,1001.000,183.400,37.330,6.673,174.900,29.870,6.299,1.596,344.800,72.400,15.750,3.964,hard
1297.000,268.100,58.080,10.550,997.500,183.100,37.190,6.637,175.200,30.000,6.298,1.591,342.800,71.650,15.520,3.872,hard
1276.000,264.700,56.730,10.300,986.900,181.100,36.930,6.594,174.300,29.750,6.239,1.576,339.900,71.290,15.350,3.847,hard
1263.000,260.800,56.170,10.230,988.100,180.700,36.890,6.629,173.200,29.320,6.221,1.574,339.000,70.890,15.430,3.826,hard
1258.000,261.000,56.320,10.220,985.200,181.200,36.960,6.566,173.500,29.740,6.251,1.577,339.300,70.760,15.370,3.841,hard
1260.000,261.800,56.110,10.200,985.900,181.300,37.010,6.574,174.600,29.610,6.327,1.586,338.900,71.100,15.320,3.835,hard
1261.000,259.900,56.260,10.240,984.500,181.400,36.930,6.605,172.400,29.730,6.236,1.580,339.700,71.150,15.330,3.846,hard
1264.000,262.000,56.850,10.330,988.200,181.500,37.120,6.610,175.700,29.400,6.245,1.584,339.300,71.780,15.460,3.882,hard
1271.000,262.600,56.930,10.350,989.400,181.600,37.220,6.650,174.400,29.740,6.309,1.591,342.400,71.860,15.480,3.885,hard
1277.000,264.600,57.040,10.420,991.600,182.200,37.160,6.632,173.400,29.910,6.273,1.593,343.200,72.020,15.600,3.913,hard
1282.000,265.500,57.120,10.480,997.800,183.400,37.620,6.712,170.800,29.820,6.310,1.587,342.700,71.970,15.670,3.945,hard
1289.000,266.300,58.090,10.590,994.600,183.400,37.300,6.644,173.000,29.890,6.309,1.593,345.400,72.390,15.650,3.922,hard
1283.000,264.600,57.050,10.320,989.900,181.400,37.200,6.582,174.600,29.830,6.242,1.585,340.200,71.130,15.440,3.843,hard
1262.000,260.600,56.630,10.260,985.800,180.600,36.950,6.592,173.000,29.240,6.270,1.578,339.200,70.920,15.340,3.850,hard
1255.000,260.000,56.370,10.260,984.600,180.800,36.820,6.588,172.200,29.410,6.243,1.582,339.200,70.900,15.370,3.856,hard
1256.000,260.300,56.570,10.230,987.000,181.300,36.970,6.561,173.800,29.440,6.291,1.585,339.400,70.900,15.290,3.868,hard
1256.000,260.300,56.490,10.210,986.200,180.600,37.040,6.589,173.200,29.840,6.322,1.571,340.000,71.130,15.440,3.850,hard
1259.000,260.900,56.220,10.280,987.200,181.400,37.170,6.609,174.600,29.760,6.258,1.581,340.200,71.390,15.460,3.877,hard
1265.000,263.400,56.840,10.380,986.600,182.000,37.210,6.633,175.300,29.590,6.254,1.587,342.500,71.640,15.490,3.920,hard
1271.000,263.900,56.890,10.400,990.400,181.800,37.350,6.650,173.200,29.620,6.251,1.600,343.200,71.660,15.560,3.887,hard
1279.000,264.400,57.450,10.490,992.200,182.300,37.500,6.645,174.200,29.410,6.284,1.596,343.200,71.890,15.690,3.955,hard
1285.000,266.000,57.710,10.540,998.800,182.500,37.600,6.707,177.300,29.980,6.289,1.599,345.600,72.330,15.710,3.946,hard
1293.000,269.300,58.140,10.620,1003.000,184.200,37.450,6.711,172.400,29.510,6.309,1.598,346.600,72.730,15.900,3.994,hard
1299.000,268.800,58.490,10.650,1001.000,183.200,37.470,6.677,175.800,29.650,6.376,1.587,346.900,72.760,15.690,3.919,hard
1286.000,265.300,57.610,10.410,991.400,182.300,37.310,6.644,176.400,29.900,6.283,1.580,341.200,71.650,15.510,3.881,hard
1266.000,261.800,56.850,10.330,990.300,181.100,37.100,6.596,174.000,29.560,6.282,1.571,341.400,71.590,15.450,3.861,hard
1261.000,259.800,56.700,10.290,984.100,180.900,37.040,6.578,171.700,29.660,6.250,1.587,340.100,71.410,15.470,3.866,hard
1262.000,260.900,56.680,10.320,985.300,181.100,37.190,6.606,172.200,29.660,6.237,1.593,341.600,71.210,15.440,3.893,hard
1262.000,261.000,56.910,10.340,985.900,181.300,37.230,6.639,174.700,29.630,6.281,1.582,341.700,71.580,15.510,3.887,hard
1266.000,262.700,57.160,10.400,988.600,181.800,37.350,6.617,176.100,29.610,6.265,1.584,344.700,71.670,15.520,3.903,hard
1273.000,263.800,57.270,10.440,990.800,182.100,37.330,6.645,173.500,29.460,6.289,1.591,343.700,72.200,15.630,3.929,hard
1279.000,266.300,57.560,10.480,998.400,182.800,37.410,6.689,174.200,29.730,6.275,1.609,345.800,72.540,15.730,3.956,hard
1286.000,266.300,57.880,10.560,998.100,183.000,37.640,6.693,173.900,29.620,6.287,1.593,346.000,72.680,15.740,3.975,hard
1292.000,267.600,58.110,10.600,996.300,183.700,37.730,6.739,173.500,29.720,6.305,1.600,347.800,72.590,15.770,3.987,hard
1299.000,270.200,58.160,10.700,1001.000,184.000,37.810,6.748,175.400,29.590,6.327,1.612,347.600,73.460,15.840,3.987,hard
1297.000,267.500,57.900,10.570,995.500,182.600,37.380,6.673,174.400,30.140,6.303,1.606,344.300,72.530,15.550,3.919,hard
1276.000,264.000,57.330,10.410,993.000,181.600,37.350,6.651,174.400,29.380,6.314,1.586,343.500,71.980,15.450,3.924,hard
1269.000,262.200,57.270,10.380,991.100,182.400,37.300,6.652,175.000,29.680,6.306,1.595,342.800,72.020,15.570,3.921,hard
1271.000,262.700,57.150,10.440,988.900,181.900,37.340,6.635,173.700,29.570,6.321,1.592,343.500,72.210,15.600,3.936,hard
1271.000,262.500,57.060,10.420,990.500,182.300,37.300,6.661,174.700,29.440,6.324,1.587,344.800,71.670,15.660,3.902,hard
1273.000,263.600,57.320,10.480,989.200,182.100,37.340,6.682,175.500,29.420,6.286,1.595,343.600,72.110,15.650,3.906,hard
1279.000,266.100,57.650,10.500,992.400,182.800,37.780,6.712,172.100,29.630,6.280,1.597,344.600,72.140,15.660,3.946,hard
1286.000,267.600,58.040,10.550,995.100,183.600,37.770,6.723,173.700,29.550,6.299,1.606,346.900,72.740,15.820,3.957,hard
1292.000,267.800,58.280,10.640,998.600,183.800,37.730,6.754,174.000,29.930,6.261,1.592,347.800,73.100,15.860,3.963,hard
1299.000,270.600,58.680,10.680,1005.000,184.600,37.960,6.748,174.300,29.900,6.303,1.601,348.300,73.210,15.930,3.990,hard
1305.000,271.500,58.820,10.680,998.700,183.500,37.720,6.697,176.900,29.950,6.372,1.597,348.200,72.540,15.660,3.947,hard
1286.000,266.000,57.670,10.480,994.500,182.600,37.330,6.663,177.400,29.510,6.291,1.591,344.600,72.210,15.680,3.946,hard
1277.000,265.200,57.520,10.450,993.300,182.400,37.440,6.660,176.400,29.590,6.268,1.583,344.400,72.270,15.610,3.919,hard
1276.000,265.200,57.350,10.440,989.500,182.900,37.480,6.706,175.600,29.670,6.328,1.592,344.300,72.330,15.720,3.940,hard
1277.000,264.100,57.590,10.480,995.400,182.300,37.440,6.667,173.700,29.800,6.317,1.602,345.200,72.080,15.620,3.909,hard
1278.000,264.900,57.710,10.490,995.100,182.600,37.610,6.679,176.200,29.710,6.317,1.580,344.700,72.390,15.650,3.936,hard
1283.000,266.300,57.890,10.600,995.400,183.200,37.720,6.711,176.400,30.080,6.320,1.596,346.700,72.300,15.680,3.943,hard
1292.000,267.400,58.580,10.650,997.900,184.100,37.810,6.739,175.700,29.690,6.317,1.591,347.100,72.640,15.810,3.995,hard
1298.000,270.700,58.320,10.700,1002.000,183.600,37.860,6.761,176.500,29.870,6.311,1.600,347.900,73.300,15.930,3.980,hard
1303.000,271.000,58.410,10.780,1002.000,184.700,38.140,6.807,177.000,29.970,6.300,1.604,349.100,73.580,15.970,4.012,hard
1310.000,271.700,59.310,10.800,1008.000,185.100,38.110,6.782,177.700,29.850,6.327,1.606,350.500,72.910,15.930,3.995,hard
1303.000,268.900,58.410,10.560,998.400,183.800,37.530,6.704,175.200,29.970,6.327,1.595,346.000,72.360,15.660,3.929,hard
1282.000,265.200,57.590,10.470,999.700,183.300,37.460,6.676,173.300,29.930,6.297,1.589,344.500,72.160,15.580,3.947,hard
1275.000,263.300,57.430,10.440,995.300,182.700,37.430,6.725,176.300,29.570,6.308,1.600,343.500,71.900,15.570,3.928,hard
1275.000,263.800,57.810,10.440,993.500,182.400,37.530,6.649,177.200,29.730,6.310,1.592,343.200,72.010,15.670,3.930,hard
1275.000,263.000,57.210,10.450,990.700,182.600,37.560,6.705,172.900,29.990,6.266,1.591,343.900,71.870,15.630,3.917,hard
1277.000,263.800,57.500,10.470,998.100,183.100,37.580,6.696,174.300,29.600,6.297,1.586,344.500,72.250,15.760,3.960,hard
1283.000,266.200,57.860,10.590,999.100,183.900,37.810,6.729,176.500,29.440,6.331,1.605,346.400,72.540,15.720,3.970,hard
1290.000,268.200,58.350,10.610,1003.000,184.000,37.860,6.737,177.700,29.630,6.332,1.594,347.100,72.950,15.860,3.998,hard
1295.000,269.100,58.260,10.710,1002.000,184.200,37.920,6.771,175.600,29.890,6.319,1.600,347.100,73.150,15.840,3.966,hard
1302.000,270.500,58.770,10.730,1004.000,185.000,38.040,6.782,176.700,29.760,6.327,1.608,348.600,73.300,15.800,4.030,hard
1309.000,271.500,58.840,10.870,1002.000,184.500,38.020,6.735,176.500,30.110,6.383,1.613,350.400,73.530,15.860,3.995,hard
1298.000,268.700,57.960,10.610,998.900,183.200,37.540,6.654,175.200,29.880,6.313,1.602,344.800,72.230,15.640,3.954,hard
1278.000,265.200,57.420,10.470,994.100,182.300,37.370,6.678,175.200,29.610,6.263,1.586,343.200,71.990,15.670,3.919,hard
1272.000,263.500,57.100,10.410,990.200,181.800,37.390,6.698,172.500,29.780,6.301,1.593,343.600,72.020,15.530,3.899,hard
1272.000,263.600,57.300,10.470,995.000,182.000,37.320,6.662,174.200,30.080,6.245,1.588,343.700,71.940,15.530,3.908,hard
1271.000,264.800,57.150,10.400,994.600,181.800,37.390,6.675,173.600,29.910,6.286,1.587,344.000,72.050,15.560,3.942,hard
1274.000,264.100,57.190,10.490,995.400,182.800,37.540,6.695,174.400,29.930,6.306,1.603,344.900,72.230,15.680,3.955,hard
1281.000,265.700,57.640,10.520,993.400,183.200,37.730,6.709,173.800,29.750,6.332,1.591,345.700,72.390,15.820,3.976,hard
1286.000,266.900,57.830,10.590,999.400,183.900,37.600,6.729,176.200,29.660,6.343,1.610,346.400,72.600,15.700,3.960,hard
1293.000,269.700,58.450,10.630,996.700,183.900,37.730,6.734,175.200,29.830,6.334,1.611,347.800,72.940,15.860,3.994,hard
1298.000,271.200,58.620,10.740,1000.000,183.600,37.840,6.776,178.200,30.160,6.325,1.617,348.500,73.270,15.920,4.023,hard
1305.000,270.400,58.810,10.750,1003.000,184.300,38.060,6.746,177.100,29.910,6.344,1.598,349.500,73.610,15.950,4.005,hard
1300.000,268.600,58.360,10.580,993.700,183.100,37.780,6.695,176.300,30.210,6.295,1.616,346.000,72.250,15.590,3.948,hard
1279.000,264.600,57.520,10.470,993.100,182.200,37.500,6.683,176.700,29.850,6.307,1.596,344.000,71.890,15.650,3.924,hard
1272.000,262.700,57.200,10.380,992.700,181.600,37.470,6.704,173.900,29.910,6.320,1.597,344.200,71.950,15.680,3.911,hard
1271.000,262.000,57.290,10.400,987.900,182.600,37.340,6.682,174.100,29.830,6.327,1.593,342.500,72.210,15.660,3.928,hard
1271.000,262.500,57.250,10.430,990.300,182.200,37.380,6.654,171.900,29.490,6.316,1.598,343.700,72.400,15.650,3.912,hard
1273.000,263.800,57.310,10.480,990.900,183.200,37.350,6.677,174.200,29.800,6.333,1.604,344.600,72.390,15.730,3.929,hard
1279.000,265.800,57.650,10.490,993.900,182.500,37.590,6.688,173.200,29.510,6.326,1.598,346.100,72.750,15.700,3.976,hard
1285.000,265.900,57.880,10.600,995.500,183.100,37.630,6.719,175.000,29.930,6.347,1.615,346.400,72.890,15.800,4.019,hard
1292.000,265.700,58.000,10.600,1000.000,182.900,37.770,6.732,174.300,30.240,6.359,1.602,346.900,73.280,15.910,4.007,hard
1298.000,270.000,58.520,10.720,1003.000,184.000,38.050,6.765,175.600,30.300,6.377,1.621,348.700,73.600,15.920,4.039,hard
1305.000,270.100,58.570,10.740,1004.000,183.900,37.930,6.750,175.400,30.220,6.365,1.609,348.700,73.760,15.920,3.985,hard
1297.000,267.600,58.010,10.550,994.500,181.900,37.520,6.670,175.900,30.000,6.289,1.598,344.800,72.220,15.740,3.935,hard
1277.000,264.700,57.570,10.470,993.100,182.500,37.510,6.629,175.500,29.870,6.315,1.592,344.700,72.370,15.650,3.951,hard
1275.000,264.300,57.400,10.440,990.400,182.000,37.550,6.716,174.800,30.050,6.325,1.601,343.900,72.540,15.670,3.948,hard
1278.000,263.900,57.580,10.450,993.400,182.100,37.450,6.672,176.000,29.940,6.327,1.598,343.900,72.450,15.700,3.970,hard
1275.000,264.400,57.870,10.450,993.700,183.200,37.550,6.700,176.600,29.930,6.334,1.602,345.400,72.510,15.770,3.954,hard
1279.000,264.900,57.550,10.500,992.100,182.800,37.590,6.714,173.700,29.760,6.352,1.596,346.000,72.790,15.710,3.971,hard
1284.000,265.700,57.890,10.570,997.200,184.000,37.820,6.729,176.700,29.760,6.291,1.605,346.500,73.360,15.820,3.986,hard
1291.000,268.100,58.160,10.640,1001.000,183.100,37.790,6.725,176.000,29.950,6.352,1.606,348.100,73.100,15.880,4.015,hard
1297.000,268.400,58.330,10.690,1000.000,184.400,37.910,6.760,175.500,30.050,6.374,1.619,350.200,73.300,15.980,4.049,hard
1304.000,269.900,58.990,10.720,1000.000,183.800,37.870,6.755,177.200,30.130,6.375,1.616,349.200,72.920,15.890,3.996,hard
1290.000,266.400,57.640,10.510,990.700,182.100,37.530,6.658,175.200,29.830,6.336,1.595,344.700,72.530,15.800,3.952,hard
1275.000,263.200,57.400,10.440,989.500,182.600,37.550,6.650,175.500,29.850,6.330,1.599,345.200,72.470,15.680,3.949,hard
1272.000,265.000,57.180,10.420,994.600,181.900,37.440,6.683,175.400,29.720,6.335,1.605,344.400,72.160,15.690,3.949,hard
1273.000,265.000,57.430,10.390,993.400,182.300,37.460,6.673,175.400,30.140,6.306,1.595,344.900,72.690,15.720,3.939,hard
1272.000,264.500,57.460,10.450,993.300,182.200,37.340,6.693,176.300,29.980,6.312,1.603,344.100,72.430,15.720,3.962,hard
1277.000,264.100,57.870,10.540,993.800,181.800,37.590,6.708,175.800,30.120,6.363,1.612,346.100,72.770,15.800,3.978,hard
1281.000,266.700,58.120,10.580,1000.000,183.300,37.640,6.718,173.900,29.790,6.380,1.603,345.800,73.150,15.850,4.015,hard
1288.000,267.000,58.370,10.560,997.000,183.400,37.660,6.755,174.700,30.250,6.337,1.599,346.800,73.380,15.900,4.035,hard
1294.000,269.500,58.170,10.680,1000.000,183.900,38.070,6.759,173.600,29.980,6.368,1.617,348.900,73.830,15.810,4.020,hard
1302.000,269.700,58.530,10.710,1003.000,184.400,38.050,6.758,175.300,29.920,6.390,1.619,349.100,74.340,16.070,4.055,hard
1303.000,270.000,58.580,10.650,997.800,183.300,37.590,6.693,175.100,30.110,6.381,1.614,346.600,73.020,15.800,3.960,hard
1281.000,264.300,57.330,10.470,992.800,182.300,37.580,6.661,174.300,29.900,6.362,1.607,344.700,72.350,15.720,3.956,hard
1268.000,263.400,57.260,10.430,987.500,181.800,37.410,6.614,172.400,29.960,6.297,1.594,343.900,72.880,15.670,3.944,hard
1265.000,262.400,57.200,10.370,988.600,181.000,37.360,6.679,174.900,29.760,6.302,1.594,343.400,72.220,15.700,3.936,hard
1265.000,262.800,56.960,10.380,986.400,180.800,37.170,6.693,173.200,29.690,6.347,1.603,342.900,72.530,15.740,3.911,hard
1265.000,263.800,56.960,10.400,987.400,181.700,37.340,6.671,174.300,29.810,6.338,1.600,343.700,72.470,15.710,3.964,hard
1270.000,262.100,57.230,10.440,986.600,182.100,37.570,6.671,174.900,29.660,6.342,1.596,344.400,73.110,15.780,3.950,hard
1275.000,264.300,57.750,10.530,992.200,182.400,37.630,6.700,173.500,29.880,6.310,1.612,346.200,72.740,15.860,3.975,hard
1280.000,264.900,58.040,10.540,990.600,182.300,37.640,6.712,174.500,29.980,6.311,1.607,347.600,72.980,15.940,4.013,hard
1287.000,267.200,58.390,10.580,998.000,183.600,37.840,6.755,176.400,29.880,6.328,1.614,347.400,73.170,15.880,4.023,hard
1294.000,267.100,58.350,10.660,997.900,183.300,37.740,6.720,175.900,30.050,6.359,1.604,349.100,73.790,15.980,4.036,hard
1292.000,266.100,57.730,10.500,989.100,182.000,37.470,6.651,178.000,29.980,6.343,1.594,345.800,72.850,15.630,3.931,hard
1268.000,262.000,57.010,10.350,984.800,181.000,37.250,6.623,176.100,29.580,6.296,1.606,342.700,72.420,15.650,3.936,hard
1262.000,261.700,56.580,10.340,982.900,180.100,37.230,6.629,175.000,29.990,6.324,1.595,343.100,72.060,15.600,3.910,hard
1259.000,260.900,56.640,10.330,984.400,180.800,37.230,6.617,173.900,29.680,6.336,1.596,341.900,72.400,15.590,3.951,hard
1259.000,261.000,56.800,10.320,983.100,180.500,37.180,6.637,173.200,29.540,6.309,1.596,341.900,72.260,15.560,3.916,hard
1260.000,262.700,57.020,10.340,988.300,181.000,37.200,6.631,172.800,29.470,6.291,1.607,344.300,72.440,15.680,3.940,hard
1265.000,262.400,57.260,10.360,991.500,181.700,37.390,6.679,173.800,29.710,6.297,1.597,344.100,72.590,15.760,3.955,hard
1270.000,263.500,57.470,10.400,991.700,182.600,37.340,6.694,173.800,30.050,6.373,1.607,345.300,72.690,15.650,3.992,hard
1276.000,264.900,57.600,10.520,989.100,182.100,37.640,6.704,175.600,30.090,6.347,1.601,346.100,73.160,15.940,3.977,hard
1282.000,265.600,58.150,10.580,992.900,183.300,37.720,6.693,174.900,29.870,6.355,1.610,347.700,73.280,15.980,4.025,hard
1287.000,266.600,58.240,10.610,995.400,183.300,37.880,6.704,173.200,30.080,6.319,1.609,349.500,73.790,15.920,4.010,hard
1290.000,266.900,58.070,10.550,991.900,182.100,37.470,6.628,175.600,29.770,6.367,1.604,346.500,72.640,15.640,3.950,hard
1268.000,262.600,57.090,10.410,984.600,181.400,37.270,6.645,176.200,29.920,6.367,1.602,344.300,72.110,15.660,3.930,hard
1260.000,261.300,56.970,10.370,983.000,180.700,37.240,6.650,174.000,29.750,6.249,1.579,343.200,72.570,15.590,3.928,hard
1258.000,261.400,56.900,10.330,982.600,180.600,37.290,6.612,173.700,29.850,6.299,1.607,344.300,72.630,15.670,3.914,hard
1259.000,261.000,56.780,10.300,984.600,180.500,37.360,6.657,177.400,29.650,6.327,1.595,343.900,72.190,15.700,3.929,hard
1260.000,260.900,57.070,10.360,986.500,180.800,37.290,6.633,172.200,29.600,6.297,1.592,343.900,72.870,15.680,3.959,hard
1264.000,262.700,57.000,10.450,987.000,181.600,37.310,6.647,174.000,29.890,6.379,1.598,345.600,73.030,15.780,3.964,hard
1271.000,263.900,57.590,10.500,984.400,181.100,37.540,6.674,174.000,29.770,6.332,1.600,346.100,72.940,15.740,3.996,hard
1275.000,265.200,58.200,10.530,987.600,182.300,37.470,6.682,173.700,29.920,6.262,1.601,346.800,73.440,15.830,3.999,hard
1282.000,265.800,58.180,10.570,994.500,182.500,37.660,6.704,175.300,29.960,6.295,1.614,348.100,73.490,15.840,3.997,hard
1287.000,267.800,58.650,10.640,993.500,182.900,37.590,6.668,174.100,29.960,6.325,1.612,348.300,73.260,15.880,3.961,hard
1273.000,263.700,57.530,10.420,984.300,180.900,37.450,6.637,176.400,29.850,6.282,1.597,345.200,72.630,15.820,3.957,hard
1264.000,261.600,57.140,10.390,983.500,181.100,37.400,6.650,174.400,29.950,6.302,1.605,344.400,72.790,15.710,3.956,hard
1260.000,261.300,57.150,10.340,980.100,181.000,37.350,6.661,173.800,29.840,6.299,1.607,345.200,72.350,15.760,3.929,hard
1261.000,262.600,57.130,10.390,984.900,181.000,37.330,6.650,175.500,29.710,6.299,1.610,345.700,72.780,15.700,3.958,hard
1262.000,261.400,57.200,10.410,984.400,181.000,37.330,6.658,174.200,29.860,6.323,1.594,345.700,72.770,15.740,3.959,hard
1266.000,261.900,57.610,10.440,986.700,181.100,37.500,6.669,176.200,29.620,6.334,1.611,347.000,72.890,15.770,3.968,hard
1273.000,264.700,57.670,10.440,989.500,181.800,37.550,6.701,173.800,30.000,6.296,1.609,346.700,73.180,15.840,4.013,hard
1278.000,266.100,58.210,10.540,991.100,181.900,37.590,6.686,176.100,29.980,6.318,1.615,348.400,73.460,15.920,4.033,hard
1285.000,267.000,58.490,10.640,996.300,182.800,37.790,6.739,175.000,29.820,6.316,1.612,349.900,73.560,16.000,4.025,hard
1290.000,268.700,58.810,10.660,993.200,182.600,37.710,6.713,173.300,29.920,6.346,1.613,348.900,73.630,15.850,3.988,hard
1276.000,266.200,57.610,10.460,984.000,181.300,37.530,6.645,173.400,29.980,6.328,1.601,345.200,72.760,15.660,3.954,hard
1264.000,263.500,57.400,10.410,983.800,180.900,37.200,6.619,176.700,29.500,6.305,1.592,343.400,72.350,15.680,3.963,hard
1258.000,261.400,57.480,10.350,982.700,181.100,37.400,6.661,174.900,29.560,6.333,1.600,344.700,72.440,15.730,3.928,hard
1262.000,261.500,57.200,10.440,982.100,180.600,37.340,6.636,172.000,30.090,6.313,1.596,344.700,72.730,15.700,3.922,hard
1260.000,261.900,57.120,10.400,984.900,180.600,37.200,6.642,174.600,29.420,6.313,1.599,345.400,72.640,15.790,3.958,hard
1265.000,262.500,57.360,10.470,984.800,181.800,37.480,6.673,174.400,29.580,6.290,1.615,347.100,72.600,15.820,3.984,hard
1272.000,263.600,57.950,10.520,988.600,181.600,37.620,6.686,172.900,30.030,6.354,1.604,347.300,73.010,15.800,3.990,hard
1278.000,266.000,57.920,10.540,989.600,181.500,37.870,6.694,176.500,29.940,6.320,1.596,348.000,73.240,15.850,4.006,hard
1282.000,267.400,58.540,10.650,992.400,183.300,37.650,6.734,173.700,30.190,6.313,1.598,348.600,73.540,15.910,4.026,hard
1289.000,268.700,58.870,10.670,992.200,183.100,37.820,6.756,176.700,29.960,6.372,1.597,351.200,74.080,16.070,4.061,hard
1293.000,269.400,58.520,10.550,988.300,182.300,37.500,6.647,173.500,30.240,6.335,1.616,348.100,72.930,15.770,3.973,hard
1272.000,265.300,57.500,10.400,982.900,181.100,37.250,6.630,171.700,30.030,6.305,1.591,346.000,72.630,15.730,3.935,hard
1263.000,262.000,57.480,10.410,983.000,180.700,37.290,6.595,175.300,29.590,6.308,1.595,344.800,72.270,15.680,3.923,hard
1258.000,261.200,57.470,10.390,981.600,180.800,37.410,6.581,174.200,29.430,6.278,1.583,344.400,72.600,15.640,3.950,hard
1260.000,261.900,57.380,10.380,980.800,180.500,37.390,6.610,175.600,29.750,6.234,1.601,344.400,72.590,15.780,3.943,hard
1261.000,263.000,57.330,10.410,984.900,181.400,37.470,6.631,175.300,29.740,6.320,1.603,345.600,72.500,15.650,3.962,hard
1266.000,262.500,57.270,10.460,984.000,181.500,37.480,6.675,173.700,29.820,6.270,1.590,345.600,72.830,15.860,3.986,hard
1272.000,265.400,57.760,10.530,984.900,182.000,37.520,6.676,175.100,30.020,6.313,1.609,347.200,72.690,15.780,3.979,hard
1279.000,266.300,58.130,10.550,990.400,182.100,37.700,6.689,173.900,29.440,6.272,1.610,348.200,73.110,15.870,3.999,hard
1284.000,267.600,58.470,10.630,993.300,182.200,37.660,6.704,176.700,29.720,6.306,1.595,348.600,73.410,15.900,4.053,hard
1291.000,268.900,58.730,10.660,992.700,183.000,37.860,6.741,173.500,29.840,6.327,1.593,349.700,73.800,16.080,4.023,hard
1298.000,270.600,58.940,10.760,994.500,183.000,37.600,6.762,173.800,29.810,6.290,1.616,349.700,73.920,15.910,4.018,hard
1289.000,265.800,58.190,10.550,987.000,181.300,37.460,6.660,174.200,29.860,6.309,1.601,345.200,72.720,15.770,3.940,hard
1269.000,263.400,57.470,10.380,982.900,181.300,37.280,6.604,174.200,29.910,6.290,1.599,343.400,72.210,15.670,3.938,hard
1262.000,261.200,57.050,10.380,982.500,181.100,37.280,6.640,174.600,29.420,6.254,1.596,343.800,72.360,15.600,3.942,hard
1265.000,263.100,57.050,10.430,984.400,180.900,37.070,6.615,172.700,29.760,6.242,1.584,343.700,72.720,15.630,3.928,hard
1262.000,262.800,57.260,10.410,981.900,180.400,37.110,6.640,173.900,30.010,6.271,1.589,344.800,72.590,15.660,3.969,hard
1266.000,263.200,57.310,10.470,984.500,181.600,37.420,6.654,175.100,29.580,6.308,1.589,344.200,72.630,15.790,3.942,hard
1272.000,264.900,57.690,10.460,984.400,181.700,37.480,6.675,173.300,29.360,6.274,1.598,345.800,73.020,15.760,3.969,hard
1277.000,266.300,58.150,10.560,987.900,182.200,37.590,6.689,173.800,29.880,6.310,1.601,348.000,73.040,15.930,3.993,hard
1285.000,267.700,58.010,10.630,989.800,182.300,37.750,6.739,173.900,29.640,6.276,1.602,348.200,73.400,15.870,4.015,hard
1292.000,269.600,58.520,10.670,990.800,182.900,37.720,6.711,174.600,29.530,6.323,1.607,348.400,73.510,16.010,3.998,hard
1298.000,270.300,59.080,10.730,996.100,183.900,37.650,6.696,177.200,29.860,6.327,1.617,349.500,73.920,15.920,4.025,hard
1295.000,268.400,58.280,10.550,991.200,181.900,37.600,6.653,172.500,29.570,6.287,1.610,345.100,72.670,15.690,3.968,hard
1274.000,263.900,57.620,10.480,985.000,181.000,37.370,6.638,175.400,29.670,6.229,1.593,344.600,72.570,15.650,3.952,hard
1269.000,264.000,57.500,10.490,983.000,181.200,37.400,6.671,174.700,29.170,6.267,1.596,344.300,72.540,15.710,3.949,hard
1271.000,263.400,57.730,10.470,983.000,180.600,37.390,6.631,171.300,29.840,6.235,1.586,344.000,72.710,15.650,3.961,hard
1270.000,264.500,57.120,10.450,984.500,180.800,37.430,6.634,174.600,29.860,6.257,1.579,343.100,72.720,15.620,3.945,hard
1272.000,264.800,57.670,10.480,987.200,181.000,37.470,6.646,173.600,29.560,6.224,1.603,344.800,72.880,15.700,3.973,hard
1277.000,267.000,58.020,10.510,985.300,181.900,37.680,6.698,172.300,29.750,6.288,1.592,346.200,72.800,15.810,3.952,hard
1283.000,267.800,58.080,10.650,992.800,182.600,37.750,6.714,175.600,29.660,6.273,1.590,346.300,73.140,15.860,3.998,hard
1289.000,267.700,58.380,10.680,993.600,182.500,37.790,6.735,175.600,29.770,6.288,1.594,346.600,73.520,15.940,4.006,hard
1295.000,269.600,58.790,10.730,991.200,183.100,37.660,6.714,173.800,29.900,6.327,1.601,350.100,73.830,15.980,4.028,hard
1301.000,270.000,58.860,10.720,995.000,182.700,37.590,6.734,173.900,29.760,6.250,1.594,347.100,73.290,15.880,3.985,hard
1287.000,265.900,58.300,10.490,992.100,182.200,37.320,6.691,176.100,29.550,6.331,1.589,344.500,73.060,15.790,3.982,hard
1276.000,265.200,57.590,10.520,983.800,181.400,37.340,6.668,174.400,29.900,6.252,1.589,344.100,72.470,15.630,3.932,hard
1274.000,264.300,57.790,10.490,989.000,180.800,37.310,6.657,173.400,29.860,6.267,1.581,344.800,72.720,15.700,3.967,hard
1276.000,265.800,57.720,10.510,986.500,181.100,37.550,6.661,171.200,30.080,6.310,1.607,345.800,72.790,15.700,3.935,hard
1277.000,265.500,57.610,10.620,987.900,181.700,37.340,6.676,172.400,29.590,6.281,1.588,345.500,72.610,15.640,3.967,hard
1280.000,266.000,57.860,10.630,991.600,181.900,37.570,6.709,171.000,29.600,6.279,1.592,345.800,73.110,15.810,3.972,hard
1288.000,267.300,58.360,10.640,990.600,183.200,37.570,6.747,173.900,29.630,6.319,1.601,346.700,73.110,15.910,3.994,hard
1292.000,269.600,58.500,10.690,993.400,182.800,37.960,6.731,175.400,29.820,6.274,1.595,348.600,73.400,15.940,3.981,hard
1300.000,269.500,58.560,10.730,997.300,182.800,37.900,6.756,174.300,29.990,6.309,1.609,347.400,73.700,16.040,4.024,hard
1306.000,272.700,59.240,10.810,997.000,182.900,37.780,6.745,171.400,29.890,6.320,1.584,348.500,73.620,15.940,3.992,hard
1293.000,268.700,58.350,10.590,985.700,181.300,37.430,6.681,173.400,29.790,6.247,1.586,344.300,72.890,15.730,3.983,hard
1278.000,264.800,57.810,10.450,985.600,181.200,37.290,6.649,171.400,29.610,6.263,1.589,343.600,72.470,15.660,3.942,hard
1272.000,264.900,57.330,10.480,984.500,180.700,37.470,6.674,175.200,29.650,6.208,1.579,344.200,72.380,15.660,3.939,hard
1272.000,263.600,57.700,10.550,984.700,181.300,37.380,6.641,172.300,29.640,6.219,1.579,344.100,72.410,15.590,3.943,hard
1272.000,263.600,57.160,10.430,985.300,181.200,37.500,6.681,172.500,29.640,6.249,1.593,343.800,72.570,15.680,3.931,hard
1275.000,263.900,57.610,10.520,981.300,181.600,37.500,6.651,173.300,29.550,6.262,1.590,343.900,72.850,15.740,3.943,hard
1280.000,264.500,57.940,10.550,989.300,181.400,37.620,6.680,171.600,29.490,6.277,1.589,343.500,72.770,15.820,3.982,hard
1286.000,267.200,58.140,10.660,989.800,181.900,37.690,6.697,171.800,29.570,6.269,1.589,346.100,72.910,15.930,3.980,hard
1292.000,270.500,58.250,10.680,993.000,182.700,37.690,6.738,173.100,29.570,6.267,1.596,347.000,73.400,15.910,4.029,hard
1297.000,269.500,58.480,10.760,997.700,183.300,38.100,6.753,173.700,30.000,6.318,1.609,348.900,73.870,16.050,4.036,hard
1303.000,270.600,58.720,10.750,995.200,182.000,37.640,6.682,175.100,29.910,6.255,1.597,347.200,73.070,15.770,3.960,hard
1285.000,265.600,57.590,10.490,984.100,180.600,37.470,6.656,173.000,29.860,6.308,1.590,343.200,72.410,15.640,3.934,hard
1272.000,265.000,57.180,10.400,983.700,180.800,37.240,6.656,173.000,29.380,6.272,1.578,343.200,72.240,15.630,3.907,hard
1267.000,262.300,57.280,10.420,983.900,180.100,37.200,6.652,172.200,29.680,6.284,1.589,342.300,72.500,15.550,3.925,hard
1266.000,262.000,57.320,10.410,982.500,180.600,37.250,6.618,171.200,29.610,6.195,1.580,342.200,72.100,15.590,3.914,hard
1267.000,262.900,56.890,10.420,983.200,180.700,37.280,6.640,173.400,29.740,6.256,1.576,342.700,72.430,15.680,3.949,hard
1270.000,263.500,57.120,10.500,985.900,180.700,37.470,6.663,172.000,29.570,6.271,1.576,343.600,72.290,15.670,3.919,hard
1276.000,265.000,57.540,10.530,989.100,181.500,37.410,6.660,173.600,29.570,6.316,1.588,345.100,72.670,15.780,3.947,hard
1283.000,266.700,57.720,10.630,989.000,181.800,37.660,6.695,173.900,29.660,6.251,1.603,345.800,73.220,15.820,3.997,hard
1289.000,267.200,58.090,10.690,991.400,182.000,37.660,6.706,173.500,29.860,6.314,1.596,346.900,73.370,15.950,4.009,hard
1294.000,269.300,58.580,10.670,992.900,181.900,37.740,6.718,174.900,30.360,6.342,1.602,348.500,73.380,15.890,3.990,hard
1293.000,267.000,57.810,10.590,989.100,181.100,37.390,6.658,174.000,30.010,6.275,1.597,344.100,72.370,15.710,3.936,hard
1273.000,264.400,57.250,10.390,984.000,179.600,37.370,6.612,171.400,29.560,6.256,1.582,342.300,72.200,15.590,3.918,hard
1265.000,261.800,56.900,10.390,981.100,179.500,37.250,6.633,171.000,29.830,6.275,1.588,342.500,72.070,15.580,3.908,hard
1264.000,262.200,57.070,10.400,980.900,180.300,37.180,6.604,173.300,29.740,6.268,1.589,341.800,71.900,15.610,3.906,hard
1264.000,261.500,56.910,10.320,981.400,179.600,37.210,6.613,171.100,29.660,6.220,1.585,341.500,72.180,15.610,3.935,hard
1266.000,261.900,57.170,10.420,980.000,180.300,37.270,6.638,172.600,29.540,6.252,1.580,343.600,72.420,15.730,3.928,hard
1271.000,262.900,57.370,10.440,987.400,181.400,37.480,6.653,173.100,29.880,6.267,1.583,343.700,72.820,15.680,3.964,hard
1276.000,263.700,57.410,10.540,982.800,181.100,37.420,6.650,173.700,29.730,6.340,1.600,345.400,72.940,15.810,3.949,hard
1282.000,265.400,57.650,10.620,986.400,181.400,37.470,6.662,169.500,29.660,6.303,1.595,345.000,73.280,15.750,4.017,hard
1288.000,266.200,57.770,10.650,989.400,182.100,37.720,6.701,171.600,30.030,6.276,1.617,346.300,73.510,15.860,4.013,hard
1293.000,267.900,58.100,10.670,990.900,181.600,37.400,6.667,173.700,29.530,6.292,1.596,345.400,72.530,15.810,3.956,hard
1275.000,263.500,56.850,10.430,985.200,180.400,37.400,6.627,171.300,30.120,6.288,1.594,342.100,72.290,15.590,3.934,hard
1268.000,263.400,56.950,10.350,982.500,180.000,37.100,6.647,172.200,29.490,6.262,1.586,342.300,72.370,15.590,3.928,hard
1265.000,262.000,57.070,10.360,980.600,179.700,37.260,6.669,175.100,29.500,6.265,1.588,342.800,72.310,15.710,3.931,hard
1266.000,262.100,56.940,10.400,979.700,180.900,37.120,6.640,177.700,29.590,6.220,1.603,342.700,72.280,15.570,3.948,hard
1267.000,262.600,57.260,10.410,980.400,180.500,37.310,6.657,173.300,29.780,6.287,1.591,344.300,72.330,15.600,3.919,hard
1271.000,262.800,56.840,10.400,983.100,180.600,37.360,6.634,171.000,30.320,6.265,1.583,343.800,72.510,15.740,3.968,hard
1277.000,264.200,57.230,10.510,982.400,181.000,37.460,6.679,172.200,29.690,6.250,1.596,347.000,72.700,15.820,3.981,hard
1282.000,264.300,57.580,10.550,989.400,181.300,37.600,6.674,172.500,30.070,6.277,1.597,346.300,73.490,15.890,4.003,hard
1287.000,266.700,57.990,10.690,988.800,182.200,37.610,6.710,171.000,29.850,6.275,1.601,347.200,73.300,15.900,4.005,hard
1284.000,264.800,57.650,10.510,985.500,180.500,37.240,6.627,172.300,29.820,6.288,1.594,343.300,72.110,15.740,3.917,hard
1268.000,260.900,57.070,10.340,981.300,180.100,37.140,6.655,172.400,29.700,6.233,1.592,342.800,72.150,15.620,3.926,hard
1262.000,261.900,56.720,10.350,981.800,180.200,37.080,6.623,175.700,29.900,6.307,1.588,342.000,71.940,15.550,3.931,hard
1263.000,261.300,56.750,10.330,982.500,179.800,37.190,6.649,171.600,29.770,6.279,1.593,342.100,72.020,15.640,3.931,hard
1263.000,261.300,56.880,10.350,979.500,179.600,37.100,6.660,174.800,30.290,6.241,1.598,342.900,72.270,15.550,3.943,hard
1267.000,263.100,56.790,10.440,982.500,180.100,37.190,6.658,173.500,29.520,6.297,1.584,343.100,72.540,15.780,3.953,hard
1272.000,261.900,57.040,10.440,986.500,180.800,37.400,6.663,172.600,29.880,6.259,1.603,345.200,72.660,15.750,3.954,hard
1279.000,264.100,57.900,10.510,988.700,181.100,37.500,6.671,172.800,29.950,6.289,1.586,346.800,72.840,15.790,3.982,hard
1286.000,264.900,57.700,10.580,991.100,181.500,37.460,6.728,173.800,29.780,6.339,1.613,346.300,73.430,15.960,3.995,hard
1291.000,267.400,58.000,10.650,992.100,182.300,37.660,6.727,172.400,30.200,6.309,1.608,349.500,73.870,15.940,4.019,hard
1295.000,267.200,58.250,10.640,989.100,180.900,37.410,6.685,175.400,30.320,6.329,1.611,346.500,73.180,15.730,3.950,hard
1275.000,262.800,56.760,10.330,981.000,179.300,37.290,6.634,174.100,29.880,6.304,1.604,343.300,72.140,15.650,3.901,hard
1263.000,260.700,56.500,10.300,978.100,179.600,37.090,6.624,172.700,29.620,6.303,1.609,342.200,72.110,15.650,3.894,hard
1258.000,259.600,56.210,10.340,980.500,179.200,37.020,6.623,171.500,29.670,6.290,1.585,342.600,72.110,15.570,3.932,hard
1257.000,259.700,56.340,10.310,978.700,179.200,36.970,6.588,172.800,29.960,6.305,1.585,341.100,71.930,15.470,3.895,hard
1257.000,260.000,56.650,10.240,977.100,179.200,37.100,6.620,172.200,29.650,6.263,1.592,342.600,72.260,15.530,3.916,hard
1261.000,259.800,56.850,10.360,982.400,179.700,37.080,6.623,173.100,29.780,6.279,1.593,342.400,72.390,15.640,3.956,hard
1267.000,262.100,57.060,10.390,982.800,180.300,37.220,6.612,174.300,29.780,6.312,1.603,343.600,72.360,15.730,3.923,hard
1272.000,262.900,57.260,10.470,983.200,180.900,37.340,6.650,174.100,29.540,6.289,1.600,346.300,72.890,15.760,3.985,hard
1278.000,264.900,57.620,10.550,987.400,180.900,37.360,6.700,175.900,29.780,6.303,1.595,346.200,72.800,15.810,4.010,hard
1284.000,265.900,58.090,10.600,987.400,181.700,37.570,6.671,176.000,30.080,6.279,1.601,347.000,73.370,15.790,4.016,hard
1286.000,265.700,57.450,10.480,980.500,180.100,37.200,6.607,173.100,29.940,6.295,1.603,344.100,72.290,15.600,3.915,hard
1264.000,260.600,56.750,10.310,977.500,179.800,37.050,6.576,172.400,29.740,6.309,1.585,341.800,72.100,15.500,3.890,hard
1255.000,258.900,56.150,10.250,976.500,179.000,36.800,6.588,172.400,29.820,6.289,1.586,340.900,71.850,15.480,3.919,hard
1276.000,262.500,57.700,10.480,985.400,181.100,37.270,6.677,173.800,29.410,6.300,1.595,344.900,73.190,15.860,3.997,bogus
1283.000,264.200,57.420,10.560,989.500,181.100,37.450,6.650,175.400,29.920,6.327,1.604,345.800,73.060,15.690,3.969,bogus
1276.000,262.000,56.920,10.350,980.900,179.800,37.060,6.607,172.400,29.840,6.284,1.607,342.200,71.840,15.520,3.918,bogus
1258.000,259.100,56.280,10.340,977.100,179.400,37.030,6.579,170.300,29.980,6.252,1.590,342.900,72.040,15.560,3.900,bogus
1253.000,258.200,55.980,10.310,976.700,179.100,36.860,6.555,174.300,29.530,6.246,1.575,340.700,71.700,15.490,3.907,bogus
1250.000,258.000,56.010,10.250,981.900,180.000,36.940,6.610,171.700,29.540,6.279,1.582,333.400,70.650,15.160,3.805,hard
1250.000,257.400,56.150,10.200,979.200,179.900,37.050,6.663,173.600,29.380,6.242,1.576,334.000,70.500,15.200,3.813,hard
1251.000,258.200,56.380,10.250,981.200,180.300,37.190,6.666,174.400,29.590,6.219,1.583,334.600,70.550,15.210,3.816,hard
1256.000,259.800,56.190,10.320,984.700,180.000,37.480,6.658,173.600,29.710,6.239,1.571,337.300,70.750,15.320,3.862,hard
1264.000,260.500,56.890,10.410,984.900,180.800,37.410,6.699,172.700,29.500,6.247,1.593,337.600,71.210,15.360,3.878,hard
1270.000,261.900,57.060,10.460,990.900,181.700,37.460,6.689,174.500,29.680,6.254,1.589,338.200,71.540,15.450,3.889,hard
1275.000,263.900,57.320,10.470,991.000,182.300,37.610,6.733,171.200,29.720,6.284,1.588,339.500,71.820,15.590,3.936,hard
1282.000,265.300,57.810,10.570,992.500,182.600,37.470,6.744,177.100,29.810,6.308,1.605,340.700,71.830,15.490,3.893,hard
1277.000,263.400,57.240,10.350,986.200,180.800,37.210,6.650,172.000,29.860,6.262,1.590,336.200,70.950,15.280,3.837,hard
1259.000,259.400,56.600,10.230,984.300,180.100,37.240,6.622,174.100,29.410,6.247,1.568,334.700,70.660,15.200,3.844,hard
1255.000,260.200,56.420,10.280,986.600,181.100,37.140,6.627,173.100,29.880,6.279,1.584,334.900,70.590,15.200,3.838,hard
1258.000,258.700,56.790,10.280,983.300,180.600,37.310,6.639,173.200,29.620,6.253,1.574,334.100,70.490,15.230,3.817,hard
1258.000,260.300,56.340,10.240,982.400,180.800,37.160,6.668,173.500,29.810,6.203,1.582,335.100,70.930,15.190,3.830,hard
1260.000,260.400,56.650,10.350,985.200,181.400,37.280,6.684,170.600,29.580,6.241,1.588,335.900,70.940,15.300,3.855,hard
1266.000,262.600,56.570,10.420,986.100,181.700,37.390,6.707,174.200,29.820,6.304,1.588,336.900,71.450,15.380,3.890,hard
1273.000,263.000,57.310,10.470,991.900,182.000,37.750,6.724,172.200,30.200,6.296,1.584,337.800,71.370,15.460,3.895,hard
1279.000,265.600,57.530,10.580,995.700,183.000,37.750,6.772,175.400,29.760,6.283,1.596,339.600,71.710,15.560,3.911,hard
1285.000,265.600,57.420,10.540,993.800,181.600,37.540,6.691,175.000,29.900,6.342,1.596,338.300,71.080,15.310,3.867,hard
1267.000,261.300,56.590,10.300,982.600,180.800,37.310,6.619,171.900,29.690,6.266,1.571,334.300,70.470,15.260,3.810,hard
1255.000,259.200,56.210,10.250,983.600,180.400,37.270,6.642,174.400,29.670,6.269,1.577,333.200,70.580,15.110,3.819,hard
1251.000,259.100,56.640,10.220,981.100,180.700,37.240,6.649,170.800,29.640,6.285,1.587,334.300,70.570,15.170,3.822,hard
1254.000,259.100,56.530,10.180,983.300,180.600,37.180,6.658,173.000,29.700,6.285,1.576,334.000,70.500,15.190,3.791,hard
1255.000,259.000,56.200,10.260,982.600,180.900,37.110,6.670,172.700,29.870,6.288,1.579,334.400,70.660,15.230,3.829,hard
1260.000,258.500,56.480,10.330,986.500,182.200,37.420,6.692,171.400,29.270,6.269,1.586,334.800,71.090,15.270,3.853,hard
1266.000,260.200,56.820,10.380,989.800,181.900,37.520,6.707,175.400,29.630,6.237,1.600,336.300,71.200,15.410,3.856,hard
1274.000,263.300,57.180,10.460,987.000,182.800,37.600,6.736,173.900,29.920,6.269,1.601,338.200,71.130,15.530,3.881,hard
1279.000,264.200,57.420,10.470,992.900,182.500,37.810,6.735,173.700,30.120,6.314,1.600,339.500,72.000,15.480,3.892,hard
1284.000,266.100,57.720,10.460,989.700,181.800,37.520,6.699,174.100,29.960,6.326,1.592,338.000,70.950,15.340,3.835,hard
1269.000,262.200,56.380,10.270,985.700,180.300,37.130,6.668,174.000,29.280,6.232,1.578,333.700,69.850,15.100,3.792,hard
1253.000,258.800,55.610,10.190,981.500,180.000,37.160,6.658,174.300,29.950,6.249,1.582,331.400,69.910,15.100,3.769,hard
1246.000,258.100,55.590,10.110,981.000,179.900,37.000,6.648,170.000,29.530,6.225,1.568,331.900,69.770,14.950,3.777,hard
1247.000,257.600,55.830,10.140,982.400,179.500,36.880,6.608,171.300,29.560,6.223,1.574,331.400,69.730,15.080,3.758,hard
1247.000,256.500,55.720,10.130,977.800,179.900,37.070,6.617,173.100,29.410,6.263,1.577,332.600,69.810,15.030,3.799,hard
1250.000,257.300,55.850,10.160,983.500,179.700,37.130,6.660,172.200,29.850,6.242,1.572,331.700,69.930,15.170,3.811,hard
1256.000,258.400,56.250,10.280,983.000,181.400,37.230,6.699,172.500,29.420,6.234,1.576,333.300,70.320,15.270,3.812,hard
1262.000,258.900,56.340,10.300,987.500,181.500,37.390,6.658,172.200,29.760,6.269,1.585,334.500,70.790,15.340,3.833,hard
1268.000,262.300,57.100,10.380,989.100,181.800,37.660,6.683,174.200,29.730,6.221,1.588,334.700,71.280,15.300,3.848,hard
1274.000,263.000,57.270,10.450,993.200,182.400,37.680,6.723,174.100,29.820,6.263,1.589,336.400,70.990,15.340,3.879,hard
1280.000,265.700,56.970,10.410,986.500,181.400,37.410,6.667,172.900,29.570,6.233,1.586,332.700,70.380,15.110,3.797,hard
1259.000,259.400,55.990,10.170,983.200,180.100,36.950,6.601,169.700,29.440,6.174,1.580,329.200,69.960,15.040,3.744,hard
1246.000,257.200,55.160,10.060,979.700,179.400,36.920,6.598,174.100,29.520,6.200,1.576,327.700,69.550,14.880,3.706,hard
1240.000,255.700,55.190,10.030,979.800,179.300,37.040,6.599,170.400,29.740,6.205,1.570,327.700,69.320,14.900,3.736,hard
1241.000,256.300,55.270,10.020,977.900,179.100,37.030,6.610,171.500,29.420,6.257,1.550,326.700,69.050,14.940,3.725,hard
1240.000,256.800,55.570,10.030,978.400,179.700,36.860,6.613,171.800,29.420,6.195,1.559,328.500,69.430,14.990,3.716,hard
1245.000,256.200,55.330,10.120,976.500,179.900,37.040,6.631,171.200,29.670,6.211,1.565,329.800,69.580,15.040,3.763,hard
1252.000,257.600,56.090,10.170,980.800,180.300,37.150,6.672,170.300,29.470,6.241,1.564,330.000,69.830,15.010,3.750,hard
1258.000,258.700,56.350,10.160,983.800,180.400,37.160,6.674,169.800,29.250,6.257,1.571,331.200,69.960,15.090,3.784,hard
1264.000,260.900,56.500,10.260,990.600,181.900,37.370,6.682,170.600,29.820,6.233,1.574,332.400,70.200,15.210,3.834,hard
1271.000,262.100,56.650,10.360,991.400,181.500,37.530,6.663,172.400,29.460,6.271,1.581,334.300,70.680,15.200,3.837,hard
1272.000,260.900,56.360,10.280,982.100,180.100,37.000,6.616,173.700,29.300,6.238,1.587,329.600,69.420,14.950,3.731,hard
1248.000,256.700,55.140,10.080,979.600,179.000,36.740,6.600,172.200,29.570,6.212,1.573,326.700,68.930,14.820,3.702,hard
1240.000,254.200,54.670,9.991,974.900,178.600,36.960,6.565,173.100,29.280,6.204,1.555,325.400,68.600,14.730,3.711,hard
1238.000,254.600,55.090,9.989,979.200,179.100,36.740,6.548,171.200,29.130,6.155,1.561,326.200,68.930,14.830,3.702,hard
1237.000,254.700,54.850,9.926,976.400,179.500,36.970,6.569,170.700,29.440,6.156,1.560,326.500,68.790,14.840,3.707,hard
1238.000,255.000,54.880,10.040,977.400,179.400,36.650,6.599,171.300,29.080,6.192,1.561,326.200,68.610,14.830,3.706,hard
1242.000,255.500,55.450,10.050,980.900,179.900,37.020,6.614,172.800,29.410,6.173,1.559,326.800,69.050,14.890,3.721,hard
1249.000,257.300,55.650,10.110,982.000,180.000,37.140,6.629,170.200,29.110,6.186,1.562,329.100,69.520,14.950,3.720,hard
1256.000,257.800,55.770,10.220,983.100,180.700,37.140,6.635,171.900,29.400,6.249,1.568,329.500,70.040,15.010,3.744,hard
1262.000,259.500,55.880,10.290,982.800,180.400,37.410,6.679,171.900,29.370,6.221,1.581,330.000,69.880,15.220,3.783,hard
1268.000,260.500,56.430,10.320,984.700,180.600,37.240,6.632,172.500,29.060,6.242,1.589,331.900,70.080,15.000,3.762,hard
1259.000,259.400,55.450,10.160,974.500,179.400,36.820,6.556,171.400,29.130,6.170,1.564,326.000,68.610,14.830,3.693,hard
1241.000,255.900,54.930,9.990,978.600,178.100,36.840,6.572,170.900,29.260,6.174,1.561,325.700,68.490,14.850,3.703,hard
1237.000,255.000,54.770,9.999,976.000,179.300,36.860,6.605,170.500,29.180,6.152,1.558,325.200,68.280,14.800,3.678,hard
1238.000,254.000,54.670,9.983,978.900,178.300,36.750,6.570,171.900,29.500,6.143,1.552,324.800,68.330,14.790,3.695,hard
1237.000,254.800,55.100,9.960,975.400,178.700,36.700,6.567,169.400,29.050,6.170,1.552,325.600,68.870,14.730,3.750,hard
1239.000,256.400,55.240,10.000,980.600,179.400,36.790,6.598,167.400,29.010,6.123,1.553,326.000,69.000,14.770,3.697,hard
1246.000,256.200,55.660,10.060,977.000,179.900,37.000,6.630,169.700,29.160,6.194,1.566,326.800,69.120,14.950,3.723,hard
1253.000,258.000,55.970,10.200,984.100,180.200,37.220,6.689,169.900,29.480,6.164,1.565,328.600,69.220,14.970,3.764,hard
1259.000,258.700,56.220,10.250,984.300,180.600,37.270,6.684,172.000,29.290,6.217,1.555,328.500,69.440,15.060,3.780,hard
1266.000,260.100,56.240,10.210,983.400,180.200,36.970,6.603,170.700,29.200,6.228,1.554,327.500,68.960,14.770,3.692,hard
1247.000,255.400,54.930,9.996,982.300,178.600,36.750,6.578,170.400,29.350,6.137,1.548,324.000,68.250,14.640,3.666,hard
1233.000,253.700,54.650,9.928,974.000,178.400,36.600,6.539,172.300,29.160,6.142,1.560,323.300,68.340,14.550,3.662,hard
1229.000,252.500,54.370,9.912,977.900,178.800,36.770,6.545,169.600,29.000,6.143,1.558,323.800,68.020,14.680,3.669,hard
1232.000,254.100,54.680,9.901,971.300,178.300,36.620,6.539,170.500,29.210,6.097,1.549,322.100,68.180,14.710,3.650,hard
1231.000,253.200,54.500,9.893,976.400,178.500,36.760,6.553,169.400,29.360,6.153,1.559,323.500,68.110,14.580,3.665,hard
1235.000,253.800,54.760,9.953,977.800,178.700,37.070,6.578,170.500,29.330,6.165,1.547,323.800,68.100,14.750,3.688,hard
1242.000,255.900,55.080,10.030,979.100,179.300,36.970,6.641,170.800,29.350,6.116,1.558,324.800,68.730,14.740,3.727,hard
1250.000,255.800,55.470,10.080,981.300,180.100,37.010,6.628,172.100,29.080,6.181,1.541,327.800,68.880,14.790,3.727,hard
1255.000,258.500,55.710,10.150,981.000,179.900,36.990,6.668,170.100,29.100,6.186,1.554,328.400,69.350,14.900,3.740,hard
1262.000,260.000,56.050,10.210,984.800,180.200,37.210,6.658,174.100,29.220,6.182,1.559,329.200,68.960,14.930,3.735,hard
1259.000,257.000,55.380,10.060,980.100,178.800,36.780,6.554,169.300,28.850,6.225,1.558,323.200,67.940,14.630,3.650,hard
1233.000,252.200,54.300,9.896,973.600,178.200,36.690,6.541,169.300,29.230,6.078,1.550,320.400,67.380,14.490,3.615,hard
1225.000,250.000,53.810,9.842,973.500,176.800,36.550,6.539,169.700,28.880,6.143,1.533,320.300,67.450,14.440,3.615,hard
1223.000,250.700,54.150,9.788,971.600,177.700,36.470,6.537,169.100,28.830,6.093,1.554,319.500,67.450,14.450,3.606,hard
1223.000,250.000,53.800,9.819,973.600,177.000,36.600,6.522,169.200,28.910,6.096,1.543,320.200,67.450,14.460,3.620,hard
1225.000,251.800,53.720,9.832,970.800,177.600,36.770,6.560,169.500,28.800,6.183,1.550,319.300,67.520,14.500,3.643,hard
1230.000,252.500,54.480,9.917,975.800,178.900,36.870,6.586,169.300,29.210,6.126,1.544,320.500,67.570,14.600,3.650,hard
1237.000,254.000,54.840,9.932,981.400,179.500,36.900,6.583,167.900,29.180,6.073,1.552,323.500,68.110,14.630,3.636,hard
1243.000,255.700,54.970,10.060,978.800,179.100,36.960,6.606,171.500,28.920,6.116,1.552,324.400,68.410,14.620,3.688,hard
1251.000,256.100,55.650,10.060,981.800,179.900,37.050,6.624,169.000,29.150,6.115,1.557,325.000,68.630,14.770,3.684,hard
1257.000,258.400,55.840,10.160,983.600,180.000,37.150,6.600,170.000,29.000,6.195,1.556,326.700,68.760,14.830,3.695,hard
1254.000,256.600,54.890,9.958,974.500,178.000,36.610,6.523,169.600,29.180,6.098,1.547,320.900,67.310,14.450,3.590,hard
1228.000,251.000,53.790,9.812,970.400,177.100,36.490,6.518,168.500,28.980,6.123,1.528,318.400,67.360,14.350,3.575,hard
1220.000,248.900,53.850,9.746,967.400,176.800,36.400,6.498,170.000,28.730,6.106,1.532,318.100,66.930,14.290,3.604,hard
1219.000,250.900,53.810,9.781,969.000,176.900,36.440,6.506,171.900,28.810,6.093,1.545,317.800,67.000,14.400,3.580,hard
1219.000,248.700,53.790,9.757,968.300,177.000,36.590,6.548,171.200,28.980,6.056,1.536,318.000,66.730,14.370,3.583,hard
1221.000,251.200,53.910,9.808,971.200,177.700,36.720,6.516,169.600,28.570,6.087,1.533,319.200,66.760,14.410,3.591,hard
1227.000,252.400,54.240,9.882,972.100,177.600,36.640,6.555,168.900,29.010,6.104,1.546,320.100,67.250,14.470,3.614,hard
1233.000,252.300,54.570,9.930,975.500,178.600,36.800,6.562,170.500,28.890,6.119,1.537,320.800,67.500,14.560,3.630,hard
1241.000,253.800,54.740,9.985,975.600,179.200,36.860,6.618,168.800,29.210,6.118,1.550,321.600,67.870,14.720,3.646,hard
1248.000,254.300,55.150,10.030,981.400,179.700,37.070,6.596,168.500,29.190,6.135,1.546,324.200,68.410,14.680,3.678,hard
1255.000,256.200,55.830,10.150,985.700,179.900,37.220,6.627,170.200,28.950,6.135,1.552,325.600,68.690,14.740,3.701,hard
1259.000,257.400,55.700,10.030,979.700,179.500,36.740,6.569,172.400,29.320,6.155,1.553,322.100,67.940,14.470,3.594,hard
1234.000,252.100,54.180,9.802,974.700,177.900,36.560,6.504,170.200,28.650,6.109,1.529,317.600,66.850,14.430,3.573,hard
1223.000,249.900,53.740,9.781,969.700,177.000,36.470,6.504,169.500,29.020,6.106,1.522,317.700,66.660,14.200,3.553,hard
1220.000,249.600,53.850,9.767,967.700,177.400,36.580,6.497,167.800,28.960,6.073,1.529,316.900,66.770,14.410,3.585,hard
1222.000,248.700,53.850,9.819,973.100,177.000,36.550,6.525,171.700,28.960,6.057,1.531,317.300,66.550,14.310,3.571,hard
1222.000,249.600,53.830,9.767,970.500,177.600,36.650,6.497,167.800,28.850,6.109,1.534,318.300,67.010,14.340,3.585,hard
1226.000,252.600,54.410,9.841,973.500,177.500,36.840,6.585,168.500,29.150,6.054,1.536,320.300,67.110,14.410,3.632,hard
1233.000,254.400,54.360,9.879,976.100,179.200,36.850,6.581,170.600,28.710,6.114,1.535,319.800,67.590,14.510,3.627,hard
1240.000,254.600,54.880,9.950,979.700,178.700,36.840,6.592,169.700,28.890,6.057,1.530,321.800,67.720,14.510,3.642,hard
1247.000,255.700,55.320,10.030,979.700,179.500,36.870,6.620,170.600,28.900,6.108,1.547,323.000,68.120,14.620,3.662,hard
1254.000,257.400,55.710,10.120,980.300,179.700,37.010,6.611,171.000,29.060,6.163,1.545,324.900,68.090,14.760,3.675,hard
1253.000,255.700,54.830,9.952,977.400,178.800,36.770,6.526,169.500,29.070,6.108,1.538,318.500,67.090,14.400,3.581,hard
1228.000,250.000,54.000,9.791,969.500,178.600,36.640,6.518,169.500,28.690,6.059,1.527,317.700,66.720,14.320,3.589,hard
1224.000,250.800,54.010,9.789,971.100,178.100,36.650,6.530,167.900,28.670,6.094,1.542,317.400,66.720,14.290,3.582,hard
1225.000,251.600,54.000,9.838,968.200,177.300,36.740,6.549,169.200,28.740,6.065,1.533,316.900,66.850,14.300,3.566,hard
1225.000,250.100,54.130,9.791,973.200,177.900,36.600,6.525,169.500,28.870,6.093,1.536,317.300,66.830,14.380,3.562,hard
1228.000,252.200,54.250,9.868,977.100,178.300,36.810,6.551,169.000,28.830,6.076,1.527,319.400,67.030,14.310,3.606,hard
1234.000,252.400,54.680,9.951,976.100,178.200,36.950,6.585,170.500,28.980,6.104,1.523,318.700,67.370,14.530,3.615,hard
1241.000,254.800,55.170,9.951,981.100,179.800,37.040,6.609,168.300,28.740,6.108,1.543,320.800,67.360,14.500,3.631,hard
1248.000,256.400,55.310,10.020,979.300,179.900,37.160,6.654,168.500,28.800,6.078,1.535,322.600,68.170,14.730,3.640,hard
1255.000,257.500,55.370,10.080,986.900,179.700,37.170,6.631,170.000,28.970,6.111,1.550,323.200,68.070,14.610,3.678,hard
1259.000,257.200,55.640,10.040,983.600,179.400,36.890,6.609,167.800,29.130,6.108,1.538,320.900,67.390,14.440,3.584,hard
1234.000,251.800,54.220,9.783,973.500,178.200,36.590,6.498,169.100,28.950,6.041,1.541,316.800,66.730,14.360,3.574,hard
1223.000,250.400,53.910,9.761,971.900,177.600,36.730,6.548,170.000,29.220,6.021,1.517,317.100,66.600,14.310,3.539,hard
1221.000,250.400,53.860,9.759,968.900,177.800,36.560,6.499,169.600,28.760,6.071,1.531,316.700,66.460,14.220,3.554,hard
1222.000,249.000,53.880,9.813,970.900,177.800,36.710,6.553,169.400,28.780,6.033,1.532,316.700,66.450,14.250,3.558,hard
1223.000,249.800,53.960,9.786,972.800,177.300,36.800,6.529,168.300,28.790,6.059,1.517,316.400,66.740,14.410,3.577,hard
1227.000,251.700,54.470,9.865,973.600,178.100,36.870,6.593,166.900,28.840,6.074,1.529,318.700,67.180,14.440,3.601,hard
1236.000,253.300,54.790,9.859,981.500,179.000,37.090,6.600,170.400,28.970,6.093,1.536,320.100,67.170,14.440,3.616,hard
1242.000,254.000,54.870,9.964,984.200,179.000,37.110,6.624,169.000,28.790,6.105,1.554,320.600,67.420,14.520,3.637,hard
1249.000,255.500,55.400,10.040,984.500,179.700,37.020,6.640,168.800,28.850,6.085,1.541,320.700,67.900,14.600,3.645,hard
1255.000,257.200,55.490,10.100,984.500,180.900,37.240,6.630,169.300,29.260,6.074,1.539,323.200,68.320,14.580,3.656,hard
1255.000,256.900,55.160,9.932,975.700,178.500,36.820,6.547,167.700,29.470,6.115,1.533,318.300,66.830,14.330,3.589,hard
1227.000,251.100,54.080,9.751,971.100,177.800,36.560,6.530,170.000,28.730,6.072,1.523,316.500,66.330,14.190,3.537,hard
1218.000,248.700,53.730,9.681,969.300,177.700,36.620,6.468,168.600,29.020,6.062,1.517,315.300,66.240,14.140,3.502,hard
1215.000,248.300,53.740,9.657,967.700,177.300,36.470,6.504,169.100,28.970,6.041,1.532,315.100,66.030,14.200,3.531,hard
1215.000,249.000,53.320,9.692,966.000,177.400,36.640,6.522,167.600,28.940,6.057,1.515,314.900,65.910,14.170,3.523,hard
1217.000,248.800,53.710,9.752,967.700,177.300,36.790,6.542,168.100,28.800,6.073,1.534,316.300,66.730,14.280,3.542,hard
1221.000,250.800,53.760,9.745,975.100,177.800,36.800,6.526,166.700,28.430,6.073,1.523,317.200,66.900,14.320,3.572,hard
1229.000,251.800,54.150,9.817,971.700,178.400,37.050,6.599,171.000,28.850,6.092,1.537,316.400,66.960,14.390,3.585,hard
1235.000,253.300,54.740,9.883,978.400,179.000,36.990,6.585,169.100,28.680,6.060,1.525,318.600,67.410,14.430,3.581,hard
1241.000,254.100,54.970,9.927,979.400,179.100,37.030,6.618,167.200,28.880,6.081,1.532,320.300,67.250,14.500,3.630,hard
1248.000,255.600,55.120,10.050,981.000,180.100,37.170,6.671,169.400,29.120,6.114,1.549,321.600,67.750,14.500,3.630,hard
1253.000,255.800,55.320,10.000,978.700,178.800,36.820,6.566,169.200,29.150,6.050,1.539,318.700,66.690,14.250,3.548,hard
1228.000,250.100,54.050,9.730,969.900,177.600,36.540,6.501,169.300,28.800,6.048,1.521,314.000,65.900,14.170,3.513,hard
1215.000,248.100,53.580,9.614,965.100,177.200,36.420,6.494,166.200,28.360,6.074,1.526,313.700,65.860,14.120,3.496,hard
1210.000,246.300,53.330,9.611,964.600,176.800,36.530,6.519,168.200,28.580,6.027,1.524,313.900,65.710,14.140,3.494,hard
1211.000,247.400,53.450,9.640,970.600,176.800,36.430,6.479,168.100,28.510,6.028,1.517,313.800,65.920,14.100,3.500,hard
1211.000,247.200,53.250,9.709,968.400,177.200,36.650,6.524,168.000,28.350,6.039,1.528,313.800,66.160,14.140,3.547,hard
1216.000,250.300,53.690,9.750,969.000,177.100,36.760,6.544,167.600,28.840,6.059,1.516,315.400,66.040,14.230,3.528,hard
1223.000,249.900,53.680,9.770,971.700,177.800,36.770,6.570,168.500,28.590,6.057,1.527,316.100,66.390,14.290,3.565,hard
1229.000,251.300,54.380,9.831,976.700,178.500,36.900,6.583,165.100,28.890,6.066,1.526,318.000,66.750,14.290,3.551,hard
1236.000,253.000,54.670,9.882,980.400,178.000,36.970,6.620,168.900,29.060,6.125,1.532,319.100,66.830,14.390,3.580,hard
1242.000,253.900,54.800,9.947,978.800,179.500,37.200,6.607,169.500,29.050,6.086,1.535,320.000,67.440,14.480,3.613,hard
1249.000,256.000,55.380,10.020,982.000,179.000,36.980,6.582,169.800,29.070,6.096,1.548,321.500,67.240,14.390,3.570,hard
1239.000,252.600,54.330,9.748,972.500,177.500,36.680,6.512,169.600,28.480,6.056,1.537,315.200,66.320,14.110,3.516,hard
1216.000,247.200,54.020,9.645,972.700,177.400,36.430,6.523,167.300,28.710,6.050,1.511,314.400,66.110,14.100,3.524,hard
1212.000,246.700,53.200,9.625,969.100,177.000,36.450,6.512,168.400,28.560,6.025,1.524,313.400,65.810,14.150,3.502,hard
1212.000,248.000,53.220,9.621,964.500,176.700,36.490,6.499,168.000,28.490,6.006,1.529,315.100,65.760,14.050,3.508,hard
1211.000,248.300,53.080,9.647,963.900,176.600,36.380,6.520,167.800,28.520,6.051,1.522,313.800,65.990,14.080,3.508,hard
1213.000,247.000,53.490,9.650,969.800,176.600,36.650,6.565,166.700,28.590,6.033,1.509,315.400,66.250,14.170,3.537,hard
1219.000,250.700,53.750,9.754,971.600,177.900,36.740,6.555,167.600,28.930,6.078,1.527,315.900,66.380,14.300,3.542,hard
1226.000,251.600,54.240,9.799,971.000,178.100,36.860,6.597,168.300,28.780,6.031,1.519,318.100,66.760,14.240,3.564,hard
1231.000,251.000,54.220,9.841,977.900,178.200,36.920,6.607,172.200,28.450,6.080,1.536,318.400,67.190,14.290,3.579,hard
1237.000,254.800,54.370,9.948,978.600,179.100,37.040,6.645,170.400,28.710,6.043,1.544,319.300,67.420,14.440,3.599,hard
1244.000,254.000,55.030,9.937,982.600,179.000,37.030,6.582,170.100,28.800,6.071,1.536,320.600,67.160,14.270,3.579,hard
1233.000,250.700,54.190,9.737,968.200,177.300,36.490,6.527,169.200,28.620,6.015,1.530,315.600,66.180,14.070,3.531,hard
1215.000,247.700,53.510,9.609,966.800,176.800,36.480,6.518,168.000,28.860,6.002,1.528,314.800,65.710,14.170,3.493,hard
1211.000,247.500,53.560,9.623,968.000,178.000,36.500,6.552,167.500,28.420,6.003,1.511,314.600,66.050,14.080,3.529,hard
1214.000,247.900,53.440,9.679,966.200,177.400,36.480,6.529,169.500,28.630,6.047,1.524,313.900,65.820,14.090,3.505,hard
1213.000,248.100,53.510,9.668,972.000,176.800,36.460,6.547,168.000,28.870,6.078,1.525,315.000,66.160,14.150,3.528,hard
1218.000,248.600,53.830,9.720,968.500,177.400,36.690,6.565,169.400,28.790,6.100,1.527,316.100,66.340,14.220,3.542,hard
1224.000,250.500,54.110,9.821,974.900,177.900,37.000,6.601,169.500,28.690,6.060,1.528,317.400,66.500,14.280,3.551,hard
1231.000,251.500,54.190,9.861,976.600,177.900,37.040,6.604,170.100,29.140,6.102,1.525,318.600,66.950,14.300,3.582,hard
1238.000,253.400,54.780,9.908,977.700,178.100,37.100,6.671,168.900,29.140,6.046,1.535,319.700,67.390,14.420,3.609,hard
1244.000,255.200,54.910,10.000,979.900,178.800,37.180,6.614,170.900,29.110,6.138,1.538,320.400,67.500,14.450,3.585,hard
1240.000,253.500,54.300,9.734,973.400,177.300,36.640,6.525,169.100,28.630,6.045,1.533,316.300,66.020,14.160,3.526,hard
1215.000,247.200,53.560,9.603,967.000,176.500,36.420,6.527,168.100,28.900,6.020,1.519,314.600,65.990,14.090,3.495,hard
1208.000,247.700,53.220,9.568,962.300,176.200,36.390,6.530,169.400,28.770,6.069,1.518,314.900,65.760,14.050,3.508,hard
1207.000,247.100,53.230,9.597,962.500,176.600,36.630,6.491,168.100,28.620,6.042,1.510,314.300,65.570,14.000,3.520,hard
1207.000,246.500,53.270,9.634,962.200,176.100,36.510,6.508,167.900,29.060,5.996,1.530,315.400,66.040,14.110,3.511,hard
1210.000,247.500,53.290,9.634,967.100,176.600,36.530,6.523,166.800,28.670,6.048,1.522,314.800,66.220,14.110,3.524,hard
1215.000,247.900,53.340,9.688,968.500,177.200,36.680,6.547,169.400,28.580,6.065,1.528,316.600,66.200,14.200,3.563,hard
1221.000,251.000,53.920,9.785,973.000,177.700,36.840,6.599,168.100,28.740,6.076,1.532,317.100,66.750,14.370,3.541,hard
1229.000,252.000,54.070,9.817,973.400,178.500,36.980,6.588,170.600,28.820,6.104,1.526,319.200,67.020,14.390,3.571,hard
1235.000,252.400,54.480,9.904,977.800,177.900,37.120,6.640,169.300,28.850,6.110,1.527,319.500,67.150,14.460,3.597,hard
1242.000,256.000,55.120,9.957,980.000,179.500,37.010,6.633,172.100,29.420,6.117,1.534,321.600,67.350,14.590,3.615,hard
1245.000,254.200,54.710,9.851,975.700,177.800,36.610,6.545,170.700,28.830,6.105,1.537,318.100,66.160,14.150,3.544,hard
1216.000,248.500,53.540,9.610,966.800,176.800,36.480,6.546,167.700,29.030,6.045,1.524,314.900,66.290,14.050,3.504,hard
1207.000,246.100,53.290,9.576,963.700,176.400,36.360,6.498,170.100,28.650,6.068,1.522,314.300,66.060,14.130,3.513,hard
1204.000,246.700,53.280,9.548,965.700,176.200,36.480,6.510,166.600,28.540,6.031,1.521,315.100,66.040,13.990,3.509,hard
1205.000,246.100,53.220,9.615,964.600,177.000,36.390,6.495,168.600,28.640,6.011,1.518,313.700,65.540,14.080,3.523,hard
1206.000,247.000,53.300,9.603,966.900,176.800,36.470,6.499,168.800,28.560,6.066,1.527,314.800,65.940,14.150,3.520,hard
1212.000,246.900,53.180,9.715,968.100,177.000,36.620,6.525,169.000,28.790,6.086,1.523,316.000,66.220,14.190,3.522,hard
1218.000,248.200,53.930,9.744,973.100,177.100,36.830,6.560,169.200,29.010,6.083,1.532,316.800,66.840,14.280,3.553,hard
1225.000,250.400,54.160,9.810,974.800,178.000,36.970,6.571,167.200,28.870,6.042,1.537,317.500,66.950,14.360,3.560,hard
1230.000,253.500,54.510,9.879,973.000,178.100,36.980,6.582,170.800,28.850,6.127,1.532,320.000,67.040,14.390,3.583,hard
1238.000,253.000,54.620,9.911,980.800,178.800,37.080,6.666,169.000,28.830,6.072,1.554,320.700,67.340,14.390,3.606,hard
1245.000,256.500,55.120,9.974,979.000,179.600,37.200,6.623,170.200,28.900,6.050,1.546,322.100,67.380,14.510,3.633,hard
1243.000,254.200,54.520,9.818,970.200,177.900,36.730,6.540,170.600,29.050,6.086,1.530,317.400,66.460,14.260,3.545,hard
1217.000,248.000,53.630,9.702,963.900,176.400,36.560,6.514,169.100,28.600,6.029,1.523,316.000,66.070,14.130,3.511,hard
1208.000,247.900,53.060,9.584,964.000,176.500,36.350,6.512,168.200,28.680,6.077,1.522,316.400,66.310,14.080,3.493,hard
1207.000,245.700,53.030,9.595,964.500,176.000,36.430,6.534,170.000,28.670,6.049,1.516,315.300,66.120,14.190,3.499,hard
1207.000,247.200,53.170,9.665,963.100,176.400,36.620,6.514,169.800,28.700,6.089,1.529,316.200,66.120,14.110,3.510,hard
1209.000,247.100,53.550,9.665,961.800,177.700,36.570,6.531,171.100,28.460,6.096,1.539,317.000,65.910,14.160,3.534,hard
1214.000,248.800,53.740,9.681,965.300,177.400,36.740,6.557,170.700,28.700,6.047,1.541,316.600,66.880,14.280,3.535,hard
1220.000,249.800,54.100,9.759,971.600,177.600,36.870,6.593,168.300,29.310,6.097,1.529,319.200,66.950,14.280,3.569,hard
1228.000,252.300,54.200,9.866,973.000,178.300,36.810,6.613,170.600,29.150,6.060,1.543,319.300,66.770,14.410,3.586,hard
1233.000,253.600,54.570,9.872,975.600,178.600,37.020,6.618,168.800,29.210,6.061,1.548,321.000,67.160,14.440,3.610,hard
1241.000,254.200,55.100,9.973,979.400,178.900,37.030,6.637,168.100,29.170,6.106,1.543,321.900,67.630,14.560,3.625,hard
1244.000,254.200,54.750,9.841,975.600,177.800,36.890,6.569,169.600,28.800,6.127,1.540,317.900,67.110,14.260,3.555,hard
1219.000,249.000,53.760,9.661,972.600,177.200,36.560,6.520,166.600,29.160,6.049,1.528,317.200,65.950,14.230,3.533,hard
1212.000,247.600,53.590,9.636,966.200,176.200,36.580,6.524,168.200,28.780,6.043,1.527,316.300,66.500,14.220,3.499,hard
1212.000,247.500,53.700,9.640,966.700,177.300,36.620,6.515,171.100,28.790,6.045,1.524,316.700,66.430,14.270,3.538,hard
1212.000,247.600,53.610,9.655,966.900,176.000,36.610,6.499,164.600,28.560,6.050,1.527,317.200,66.490,14.160,3.533,hard
1213.000,249.000,53.540,9.701,967.200,177.400,36.640,6.553,170.600,28.750,6.093,1.538,316.800,66.680,14.270,3.574,hard
1218.000,249.200,54.210,9.739,972.100,177.300,36.860,6.525,168.000,28.860,6.073,1.538,319.300,67.000,14.410,3.589,hard
1227.000,252.500,54.040,9.853,974.300,178.500,36.950,6.570,171.900,29.150,6.101,1.527,319.800,67.080,14.370,3.582,hard
1232.000,252.500,54.520,9.893,978.600,178.900,37.000,6.603,169.300,29.100,6.122,1.542,320.400,67.030,14.470,3.594,hard
1238.000,254.300,54.760,9.961,979.300,179.000,37.180,6.610,168.200,29.240,6.092,1.539,322.100,67.670,14.550,3.648,hard
1244.000,254.600,55.150,9.898,977.700,178.500,36.780,6.563,168.000,29.130,6.128,1.537,320.500,66.870,14.360,3.591,hard
1226.000,249.300,53.800,9.720,971.400,177.700,36.670,6.537,169.600,28.900,6.107,1.532,317.400,66.380,14.250,3.530,hard
1216.000,249.000,53.990,9.666,970.500,177.100,36.640,6.548,168.000,29.130,6.091,1.532,316.900,66.480,14.220,3.543,hard
1215.000,249.200,54.040,9.701,971.800,177.400,36.650,6.548,169.200,28.920,6.070,1.540,318.100,66.530,14.230,3.537,hard
1217.000,249.900,53.730,9.715,967.000,177.500,36.560,6.535,169.900,28.760,6.072,1.534,317.600,66.690,14.240,3.556,hard
1218.000,247.900,53.860,9.747,969.200,177.500,36.800,6.536,171.200,28.840,6.079,1.539,318.000,66.330,14.350,3.561,hard
1222.000,250.700,53.980,9.792,972.100,178.400,36.830,6.605,168.700,29.090,6.098,1.542,321.100,67.120,14.370,3.578,hard
1229.000,252.300,54.280,9.835,978.300,179.100,36.980,6.607,168.700,28.790,6.147,1.549,320.300,67.150,14.500,3.619,hard
1237.000,253.800,54.760,9.976,976.600,178.600,37.020,6.632,171.400,29.050,6.157,1.538,321.500,67.530,14.480,3.594,hard
1242.000,255.000,55.180,9.964,981.000,179.500,37.290,6.649,170.500,29.120,6.119,1.549,322.800,67.880,14.480,3.641,hard
1248.000,255.600,55.250,9.978,977.600,179.200,37.020,6.599,167.300,29.150,6.126,1.535,322.200,67.250,14.310,3.588,hard
1228.000,251.400,54.040,9.707,969.600,177.800,36.670,6.536,169.600,28.930,6.088,1.536,318.000,66.820,14.350,3.525,hard
1214.000,249.100,53.620,9.640,967.100,177.700,36.610,6.512,169.900,28.980,6.116,1.531,316.600,66.590,14.190,3.524,hard
1209.000,246.900,53.610,9.644,969.000,177.500,36.620,6.511,169.200,28.850,6.069,1.547,316.600,66.600,14.170,3.536,hard
1210.000,248.400,53.260,9.632,968.200,176.500,36.610,6.506,169.600,28.970,6.050,1.525,316.400,66.550,14.250,3.511,hard
1211.000,247.500,53.520,9.591,969.500,177.200,36.580,6.513,168.300,29.170,6.080,1.528,316.900,66.380,14.210,3.548,hard
1213.000,248.400,53.880,9.667,966.200,177.500,36.630,6.500,169.000,28.620,6.042,1.534,317.800,67.030,14.340,3.566,hard
1219.000,250.300,54.250,9.762,970.900,178.400,36.850,6.557,172.300,28.920,6.091,1.548,319.600,67.010,14.360,3.587,hard
1226.000,251.400,54.090,9.853,973.700,178.000,36.930,6.581,169.400,29.070,6.066,1.541,320.700,67.400,14.450,3.586,hard
1232.000,251.600,54.590,9.891,975.300,178.800,37.080,6.606,169.700,29.050,6.119,1.541,322.000,67.780,14.540,3.640,hard
1237.000,255.300,54.920,9.916,980.600,179.400,37.110,6.623,171.600,29.140,6.113,1.540,321.200,67.800,14.490,3.602,hard
1236.000,252.200,54.340,9.796,973.100,177.500,36.520,6.518,170.500,29.080,6.087,1.529,318.100,66.460,14.270,3.533,hard
1212.000,248.800,53.400,9.559,965.800,176.500,36.380,6.516,169.500,29.110,6.063,1.529,314.600,66.310,14.280,3.532,hard
1204.000,247.600,53.080,9.523,962.600,176.700,36.410,6.444,168.700,29.110,6.071,1.539,316.100,66.110,14.060,3.506,hard
1203.000,247.200,53.150,9.584,965.900,176.600,36.460,6.521,169.300,28.800,6.064,1.533,315.800,66.180,14.230,3.509,hard
1202.000,247.000,53.480,9.550,966.600,175.500,36.400,6.477,169.200,28.870,6.040,1.534,315.800,66.430,14.170,3.536,hard
1204.000,246.900,53.280,9.586,963.700,176.400,36.490,6.498,169.200,28.700,6.081,1.533,317.100,66.270,14.210,3.542,hard
1209.000,248.300,53.480,9.676,966.300,177.000,36.640,6.519,170.200,28.920,6.044,1.548,318.300,66.450,14.260,3.584,hard
1215.000,249.000,54.050,9.705,966.200,177.900,36.610,6.539,168.900,29.260,6.087,1.535,318.500,66.770,14.400,3.559,hard
1222.000,251.000,54.120,9.789,971.100,177.800,36.820,6.530,168.500,29.050,6.099,1.528,320.000,67.310,14.440,3.589,hard
1227.000,251.000,54.100,9.845,973.000,178.200,36.980,6.608,170.500,28.980,6.103,1.558,321.500,67.410,14.510,3.597,hard
1233.000,253.200,54.600,9.894,974.200,178.900,36.690,6.551,169.600,29.110,6.107,1.541,322.500,67.480,14.440,3.579,hard
1227.000,251.000,53.710,9.692,966.200,176.800,36.540,6.484,169.600,28.590,6.121,1.522,317.900,66.710,14.260,3.532,hard
1204.000,247.800,52.780,9.568,961.400,175.700,36.440,6.464,170.100,28.750,6.097,1.519,316.700,66.290,14.210,3.535,hard
1199.000,246.500,52.830,9.554,961.400,176.200,36.440,6.481,168.700,28.510,6.032,1.535,315.300,66.770,14.100,3.514,hard
1200.000,247.000,53.240,9.520,958.300,176.000,36.390,6.470,167.400,28.660,6.074,1.534,315.100,66.440,14.230,3.518,hard
1198.000,245.800,53.020,9.561,961.500,176.200,36.430,6.497,165.600,28.950,6.087,1.529,315.300,66.530,14.160,3.527,hard
1201.000,247.100,53.550,9.547,964.500,176.200,36.480,6.519,169.100,28.650,6.099,1.523,316.500,66.500,14.240,3.572,hard
1207.000,248.000,53.530,9.654,963.600,177.100,36.470,6.483,168.000,28.740,6.057,1.537,317.800,66.990,14.300,3.571,hard
1214.000,249.100,53.840,9.668,966.900,177.200,36.730,6.563,168.700,28.860,6.115,1.547,318.700,67.200,14.340,3.586,hard
1220.000,250.200,54.360,9.801,973.500,177.700,36.930,6.559,168.600,28.800,6.047,1.552,320.600,67.380,14.460,3.584,hard
1226.000,251.800,54.670,9.832,973.700,178.400,36.930,6.568,171.000,29.180,6.086,1.543,321.600,67.730,14.470,3.589,hard
1233.000,252.900,55.040,9.872,974.700,178.800,36.970,6.584,168.100,29.160,6.134,1.557,321.600,68.110,14.590,3.625,hard
1236.000,252.800,54.550,9.824,971.800,177.300,36.640,6.508,169.800,29.090,6.158,1.544,318.800,67.190,14.330,3.550,hard
1210.000,248.600,53.420,9.647,963.300,176.800,36.400,6.478,167.600,28.810,6.088,1.542,316.500,66.700,14.190,3.517,hard
1203.000,247.000,53.210,9.599,964.800,175.600,36.460,6.506,167.700,28.980,6.081,1.533,316.300,66.660,14.160,3.507,hard
1202.000,247.100,53.160,9.527,961.900,175.700,36.410,6.490,165.800,28.840,6.087,1.540,316.900,66.660,14.320,3.519,hard
1202.000,247.500,53.420,9.589,965.200,176.400,36.420,6.512,168.700,28.760,6.110,1.543,316.200,66.790,14.280,3.558,hard
1204.000,246.800,53.280,9.618,964.400,176.200,36.430,6.519,167.800,28.900,6.076,1.552,317.400,66.580,14.370,3.554,hard
1208.000,247.700,53.630,9.694,966.100,177.500,36.630,6.542,170.800,28.870,6.063,1.550,319.300,66.980,14.440,3.587,hard
1216.000,250.500,54.320,9.742,968.000,177.500,36.630,6.564,169.600,28.990,6.124,1.546,319.800,67.410,14.340,3.607,hard
1222.000,251.100,54.420,9.822,968.700,178.000,36.780,6.564,172.000,29.050,6.124,1.541,320.500,67.670,14.490,3.627,hard
1227.000,252.600,54.730,9.838,973.800,178.200,36.840,6.565,171.300,28.850,6.106,1.548,322.100,67.810,14.520,3.622,hard
1235.000,254.800,54.800,9.925,974.600,177.800,36.910,6.577,171.100,29.120,6.090,1.552,322.900,67.760,14.510,3.600,hard
1224.000,250.000,54.150,9.776,964.300,176.900,36.740,6.534,169.400,29.070,6.117,1.533,319.400,67.160,14.270,3.573,hard
1209.000,250.200,53.710,9.649,961.400,176.600,36.720,6.526,167.200,29.060,6.127,1.536,318.200,67.080,14.310,3.565,hard
1208.000,247.900,53.580,9.679,967.700,176.500,36.500,6.537,170.900,28.740,6.083,1.542,318.700,67.250,14.290,3.582,hard
1209.000,249.600,53.900,9.682,966.600,176.300,36.560,6.562,168.700,28.720,6.045,1.542,319.200,67.130,14.320,3.567,hard
1209.000,248.600,53.910,9.679,966.900,176.800,36.550,6.546,168.000,29.310,6.065,1.549,319.700,67.400,14.390,3.591,hard
1213.000,250.800,54.120,9.703,970.800,177.700,36.630,6.552,169.000,28.910,6.122,1.554,320.600,67.380,14.470,3.594,hard
1220.000,250.200,54.460,9.809,971.300,178.100,36.880,6.583,169.600,29.190,6.136,1.563,321.700,67.860,14.480,3.615,hard
1227.000,251.700,54.760,9.884,973.500,178.300,37.090,6.588,169.700,29.080,6.139,1.542,322.000,67.970,14.630,3.654,hard
1232.000,253.400,55.100,9.948,977.300,178.900,37.110,6.599,169.300,29.240,6.145,1.549,322.900,68.420,14.640,3.659,hard
1239.000,255.800,55.350,9.931,970.900,177.800,36.830,6.585,172.100,29.300,6.153,1.547,322.200,67.840,14.510,3.590,hard
1221.000,249.800,54.100,9.710,965.700,176.400,36.690,6.527,166.200,28.750,6.109,1.554,317.900,67.220,14.340,3.555,hard
1211.000,248.400,53.920,9.716,965.300,176.400,36.570,6.549,167.700,28.700,6.090,1.536,318.300,67.230,14.350,3.577,hard
1208.000,248.700,53.950,9.750,967.000,176.500,36.720,6.555,167.900,29.110,6.103,1.551,318.700,67.630,14.480,3.578,hard
1212.000,249.500,53.680,9.700,970.700,176.200,36.670,6.550,166.600,29.010,6.112,1.539,318.700,67.090,14.390,3.579,hard
1212.000,249.400,53.950,9.729,969.200,176.500,36.780,6.545,169.300,28.750,6.113,1.543,319.400,67.600,14.420,3.586,hard
1217.000,250.100,54.290,9.785,970.800,177.200,36.870,6.561,170.900,29.150,6.092,1.548,321.100,67.580,14.550,3.587,hard
1223.000,251.200,54.630,9.863,973.300,178.200,37.050,6.587,169.200,28.620,6.128,1.558,321.700,68.200,14.670,3.640,hard
