A-DC1,A-DC2,A-DC3,A-DC4,A-DC5,A-DC6,A-DC7,A-DC8,B-DC1,B-DC2,B-DC3,B-DC4,B-DC5,B-DC6,B-DC7,B-DC8,condition
1568.000,335.800,90.990,24.210,1164.000,183.300,32.510,5.604,107.600,31.120,4.419,1.064,374.300,107.100,25.570,9.123,baseline
1558.000,333.900,90.320,24.150,1158.000,183.000,32.450,5.610,106.600,31.300,4.401,1.059,372.800,107.200,25.580,9.102,baseline
1553.000,331.600,90.560,24.220,1164.000,183.400,32.240,5.614,105.600,31.080,4.369,1.056,373.400,107.100,25.580,9.093,baseline
1555.000,332.200,90.570,24.120,1160.000,183.200,32.280,5.611,106.900,31.010,4.382,1.054,374.300,107.000,25.540,9.074,baseline
1553.000,333.600,90.570,24.270,1159.000,183.300,32.280,5.587,106.300,31.110,4.418,1.056,373.200,106.800,25.530,9.079,baseline
1556.000,332.600,90.290,24.210,1158.000,183.300,32.080,5.615,106.200,30.800,4.388,1.068,373.600,107.200,25.560,9.129,baseline
1558.000,333.100,90.820,24.180,1159.000,182.400,32.040,5.574,106.600,31.140,4.411,1.058,375.000,107.200,25.570,9.164,baseline
1563.000,333.100,90.600,24.300,1158.000,183.200,32.270,5.597,106.500,31.100,4.406,1.059,375.400,107.800,25.640,9.226,baseline
1566.000,336.300,91.200,24.450,1162.000,183.700,32.360,5.640,107.500,31.310,4.393,1.062,376.600,107.800,25.760,9.223,baseline
1572.000,338.000,91.240,24.590,1162.000,183.600,32.610,5.652,105.200,31.080,4.371,1.063,377.100,107.900,25.840,9.269,baseline
1575.000,337.300,91.610,24.560,1165.000,183.800,32.380,5.599,108.200,31.460,4.413,1.059,377.600,108.000,25.860,9.258,baseline
1565.000,335.300,90.850,24.320,1159.000,183.800,32.380,5.577,107.900,31.210,4.412,1.063,376.700,107.300,25.610,9.171,baseline
1558.000,332.900,90.500,24.230,1162.000,182.700,32.310,5.604,106.500,31.400,4.429,1.063,375.200,107.500,25.610,9.139,baseline
1556.000,335.000,90.510,24.250,1156.000,183.600,32.190,5.609,106.700,31.090,4.362,1.057,373.700,106.700,25.540,9.070,baseline
1557.000,333.800,90.440,24.180,1160.000,182.200,32.230,5.585,106.000,30.910,4.385,1.063,372.400,107.200,25.520,9.140,baseline
1554.000,333.400,90.270,24.190,1154.000,182.400,32.090,5.629,106.200,31.290,4.401,1.069,373.700,106.700,25.600,9.140,baseline
1558.000,334.900,90.850,24.270,1161.000,183.600,32.250,5.588,107.100,30.920,4.376,1.053,375.000,107.100,25.670,9.163,baseline
1564.000,336.200,90.810,24.430,1163.000,183.500,32.500,5.595,107.800,31.160,4.357,1.052,375.200,107.700,25.710,9.166,baseline
1567.000,334.600,91.330,24.440,1164.000,183.300,32.100,5.580,107.000,31.020,4.415,1.062,376.400,107.600,25.800,9.191,baseline
1569.000,336.000,91.810,24.480,1162.000,183.400,32.490,5.635,105.300,31.030,4.396,1.063,376.200,108.100,25.780,9.231,baseline
1575.000,338.800,91.890,24.460,1164.000,184.100,32.400,5.576,105.000,31.400,4.431,1.070,377.500,108.100,25.750,9.227,baseline
1564.000,335.300,91.020,24.310,1161.000,183.200,32.360,5.640,107.900,31.190,4.391,1.057,376.100,107.300,25.730,9.133,baseline
1559.000,334.400,90.730,24.210,1161.000,182.400,32.190,5.603,107.300,31.160,4.403,1.059,375.300,106.800,25.560,9.090,baseline
1556.000,334.200,90.550,24.270,1161.000,183.800,32.210,5.578,108.200,31.090,4.353,1.059,373.900,107.000,25.530,9.130,baseline
1559.000,334.400,90.500,24.180,1161.000,182.800,32.210,5.602,106.100,30.920,4.414,1.062,374.600,107.100,25.540,9.108,baseline
1559.000,335.400,90.700,24.370,1164.000,182.100,32.180,5.620,106.000,31.000,4.390,1.065,374.200,107.300,25.630,9.144,baseline
1563.000,334.400,91.510,24.330,1164.000,183.700,32.370,5.574,106.200,30.920,4.399,1.061,374.100,107.500,25.700,9.159,baseline
1568.000,335.800,91.390,24.450,1163.000,183.000,32.350,5.605,106.600,30.980,4.392,1.068,374.800,107.600,25.690,9.188,baseline
1572.000,337.800,91.370,24.500,1163.000,184.100,32.440,5.636,107.500,31.060,4.395,1.069,377.100,107.800,25.830,9.249,baseline
1576.000,338.700,91.970,24.580,1165.000,183.600,32.480,5.612,106.300,30.940,4.415,1.064,376.600,108.000,25.960,9.240,baseline
1582.000,341.300,91.860,24.730,1163.000,184.200,32.530,5.625,107.300,31.190,4.407,1.065,377.400,108.300,25.960,9.310,baseline
1583.000,340.800,91.800,24.490,1168.000,184.400,32.330,5.576,107.800,31.260,4.414,1.070,376.500,107.900,25.780,9.209,baseline
1565.000,334.800,90.670,24.350,1161.000,182.400,32.520,5.569,107.800,30.940,4.403,1.065,375.500,107.500,25.680,9.121,baseline
1563.000,334.700,90.290,24.350,1163.000,182.900,32.350,5.592,107.000,31.090,4.418,1.063,374.300,107.000,25.600,9.126,baseline
1562.000,336.500,91.050,24.310,1164.000,182.600,32.340,5.603,106.100,31.110,4.367,1.067,374.000,107.500,25.550,9.122,baseline
1562.000,333.900,90.980,24.240,1158.000,183.100,32.380,5.599,108.200,31.020,4.372,1.064,374.200,107.200,25.500,9.141,baseline
1565.000,336.400,91.380,24.370,1161.000,183.200,32.220,5.602,107.400,31.230,4.430,1.069,375.500,107.800,25.660,9.172,baseline
1570.000,336.600,91.480,24.380,1165.000,183.300,32.400,5.647,106.100,31.170,4.403,1.064,376.200,107.200,25.680,9.184,baseline
1573.000,336.000,91.830,24.480,1163.000,183.900,32.360,5.617,105.100,31.180,4.380,1.064,377.500,107.600,25.760,9.217,baseline
1577.000,337.300,92.350,24.630,1170.000,183.800,32.380,5.635,105.800,31.040,4.410,1.065,377.000,107.900,25.800,9.234,baseline
1583.000,340.300,92.030,24.860,1166.000,183.400,32.520,5.605,105.700,31.010,4.400,1.067,377.300,108.000,25.880,9.271,baseline
1588.000,340.500,92.960,24.820,1165.000,184.300,32.590,5.631,107.800,31.090,4.411,1.066,378.300,108.400,25.960,9.310,baseline
1593.000,342.100,92.830,24.740,1166.000,184.000,32.510,5.658,107.100,31.040,4.411,1.073,379.300,108.600,25.910,9.263,baseline
1576.000,338.100,91.530,24.470,1168.000,183.900,32.530,5.605,107.900,31.390,4.397,1.074,375.100,107.800,25.730,9.176,baseline
1571.000,337.800,91.060,24.520,1162.000,183.300,32.440,5.579,107.900,31.210,4.412,1.076,375.100,107.700,25.620,9.152,baseline
1569.000,336.700,90.850,24.400,1166.000,183.100,32.580,5.605,108.600,31.200,4.401,1.064,374.100,107.300,25.600,9.146,baseline
1569.000,336.000,91.450,24.400,1163.000,183.400,32.360,5.607,107.400,31.110,4.403,1.069,375.800,107.300,25.530,9.169,baseline
1571.000,337.600,91.210,24.500,1167.000,183.500,32.400,5.630,106.500,30.860,4.394,1.070,375.100,107.500,25.710,9.164,baseline
1575.000,339.400,92.240,24.500,1166.000,184.100,32.560,5.628,107.100,31.020,4.399,1.065,376.200,107.700,25.660,9.210,baseline
1579.000,337.800,91.960,24.610,1168.000,184.000,32.580,5.640,106.800,31.100,4.390,1.059,376.100,108.200,25.770,9.228,baseline
1582.000,338.000,91.570,24.640,1166.000,184.100,32.550,5.632,107.600,31.220,4.416,1.063,377.500,108.100,25.820,9.271,baseline
1588.000,340.800,92.410,24.700,1169.000,184.500,32.670,5.629,108.600,31.640,4.420,1.064,377.800,108.500,25.860,9.276,baseline
1591.000,341.500,92.440,24.710,1169.000,184.000,32.690,5.625,106.100,31.090,4.425,1.072,377.700,108.100,25.760,9.222,baseline
1577.000,337.100,91.640,24.570,1169.000,184.400,32.570,5.636,108.500,31.200,4.428,1.070,376.900,107.800,25.800,9.217,baseline
1576.000,338.500,91.110,24.560,1164.000,184.000,32.660,5.604,107.300,31.190,4.375,1.065,376.200,107.800,25.800,9.163,baseline
1580.000,338.900,91.820,24.580,1167.000,183.800,32.640,5.610,107.600,31.320,4.422,1.068,375.900,107.800,25.810,9.189,baseline
1582.000,338.300,91.760,24.670,1170.000,184.700,32.630,5.654,108.400,31.060,4.387,1.072,376.800,107.600,25.720,9.177,baseline
1582.000,338.300,92.020,24.640,1171.000,184.200,32.660,5.649,107.100,31.330,4.413,1.066,375.800,107.900,25.760,9.212,baseline
1586.000,339.800,92.260,24.680,1174.000,184.200,32.640,5.629,106.800,31.060,4.386,1.070,377.400,107.700,25.710,9.274,baseline
1588.000,341.100,92.670,24.770,1172.000,184.400,32.640,5.649,107.900,31.190,4.432,1.071,377.500,108.200,25.880,9.274,baseline
1593.000,341.800,92.560,24.860,1170.000,184.800,32.540,5.670,106.000,31.400,4.397,1.069,379.100,108.700,25.880,9.282,baseline
1596.000,342.300,91.960,24.710,1172.000,184.600,32.640,5.619,108.900,31.310,4.431,1.066,377.900,108.200,25.810,9.223,baseline
1578.000,339.500,91.790,24.430,1163.000,184.900,32.600,5.610,107.800,31.220,4.420,1.067,375.500,107.700,25.650,9.174,baseline
1575.000,338.000,91.690,24.400,1170.000,184.200,32.400,5.614,107.500,31.190,4.408,1.066,375.500,107.300,25.640,9.121,baseline
1573.000,336.200,91.260,24.460,1167.000,184.200,32.360,5.622,106.700,31.040,4.403,1.058,375.200,107.800,25.570,9.137,baseline
1575.000,337.700,91.020,24.380,1167.000,184.000,32.610,5.599,107.700,31.140,4.426,1.061,375.100,107.300,25.620,9.153,baseline
1575.000,337.800,91.830,24.500,1168.000,184.300,32.570,5.646,107.600,30.880,4.367,1.066,375.300,107.300,25.570,9.153,baseline
1580.000,337.400,91.610,24.560,1167.000,184.100,32.540,5.640,106.300,31.140,4.383,1.064,375.600,107.600,25.680,9.203,baseline
1584.000,339.300,92.140,24.700,1173.000,183.600,32.690,5.644,107.400,31.060,4.391,1.071,376.200,107.700,25.810,9.235,baseline
1587.000,339.600,91.910,24.640,1168.000,184.500,32.580,5.639,106.800,31.090,4.377,1.064,376.600,107.900,25.820,9.233,baseline
1591.000,341.000,92.670,24.630,1172.000,184.500,32.520,5.671,106.100,31.050,4.406,1.073,376.700,108.100,25.730,9.239,baseline
1575.000,337.900,91.320,24.350,1168.000,183.400,32.270,5.597,106.300,31.150,4.383,1.061,374.700,107.400,25.550,9.155,baseline
1572.000,337.200,91.080,24.300,1168.000,183.900,32.190,5.612,107.300,30.870,4.393,1.062,373.700,106.900,25.530,9.141,baseline
1569.000,335.700,91.190,24.340,1167.000,183.400,32.390,5.610,106.300,30.830,4.383,1.062,374.600,106.800,25.510,9.072,baseline
1571.000,337.200,91.210,24.310,1168.000,183.400,32.470,5.581,105.500,30.830,4.387,1.063,374.000,106.800,25.550,9.132,baseline
1572.000,336.200,90.730,24.290,1166.000,183.000,32.380,5.608,106.100,31.020,4.359,1.059,372.900,106.800,25.580,9.160,baseline
1575.000,337.600,91.250,24.420,1168.000,183.500,32.440,5.581,107.100,30.970,4.391,1.056,373.700,107.200,25.640,9.136,baseline
1578.000,338.000,91.770,24.470,1168.000,183.700,32.460,5.571,105.100,30.980,4.382,1.068,375.500,107.300,25.640,9.189,baseline
1582.000,338.600,91.480,24.570,1170.000,184.100,32.540,5.620,106.400,30.900,4.393,1.063,374.900,107.400,25.630,9.207,baseline
1588.000,340.200,92.150,24.540,1171.000,184.600,32.470,5.639,106.800,31.160,4.396,1.062,376.800,107.800,25.850,9.235,baseline
1592.000,340.900,92.580,24.720,1170.000,184.900,32.670,5.651,106.700,31.050,4.396,1.059,377.000,108.100,25.960,9.292,baseline
1587.000,339.900,91.670,24.440,1175.000,184.500,32.490,5.597,108.600,31.000,4.424,1.065,375.500,106.800,25.640,9.173,baseline
1572.000,336.800,90.790,24.360,1166.000,183.400,32.370,5.585,107.200,31.140,4.392,1.063,374.500,106.800,25.470,9.110,baseline
1568.000,336.400,91.270,24.210,1161.000,183.600,32.330,5.569,106.100,30.910,4.403,1.060,373.300,106.800,25.470,9.123,baseline
1568.000,335.400,90.650,24.160,1171.000,183.300,32.320,5.594,107.300,30.960,4.393,1.058,373.700,106.600,25.590,9.101,baseline
1568.000,336.800,91.170,24.250,1165.000,183.300,32.150,5.616,108.500,30.860,4.363,1.063,372.900,106.500,25.440,9.119,baseline
1571.000,334.400,90.850,24.220,1169.000,183.200,32.400,5.590,105.600,31.100,4.364,1.053,373.700,106.800,25.540,9.139,baseline
1573.000,336.500,91.120,24.430,1166.000,183.300,32.380,5.560,106.200,31.000,4.368,1.060,373.900,106.900,25.520,9.159,baseline
1577.000,338.500,91.530,24.390,1169.000,184.200,32.600,5.604,107.500,31.090,4.400,1.062,375.500,106.900,25.560,9.167,baseline
1581.000,339.100,91.400,24.490,1172.000,184.700,32.530,5.587,109.100,30.910,4.410,1.069,374.800,107.300,25.600,9.207,baseline
1585.000,339.500,91.580,24.500,1169.000,184.000,32.410,5.624,104.500,30.940,4.384,1.066,377.100,107.100,25.700,9.182,baseline
1573.000,335.600,90.460,24.200,1167.000,183.100,32.330,5.615,107.300,30.910,4.362,1.067,373.300,106.700,25.490,9.146,baseline
1569.000,335.400,90.610,24.180,1161.000,183.800,32.200,5.611,108.300,31.160,4.362,1.063,372.800,106.600,25.470,9.069,baseline
1566.000,334.900,90.260,24.180,1162.000,183.100,32.500,5.609,107.100,30.870,4.395,1.062,372.900,106.600,25.420,9.130,baseline
1567.000,336.100,90.500,24.170,1164.000,183.200,32.390,5.613,105.900,30.960,4.383,1.070,373.300,106.500,25.540,9.081,baseline
1568.000,335.800,90.620,24.260,1166.000,183.900,32.360,5.625,107.000,31.220,4.359,1.053,372.900,106.500,25.540,9.134,baseline
1571.000,336.500,91.200,24.300,1168.000,184.100,32.460,5.599,105.900,30.830,4.376,1.063,373.100,106.700,25.600,9.124,baseline
1576.000,336.600,91.180,24.450,1167.000,183.100,32.420,5.570,108.700,31.010,4.423,1.067,374.800,106.900,25.600,9.163,baseline
1579.000,337.500,91.520,24.440,1170.000,184.100,32.630,5.620,108.500,30.950,4.353,1.060,375.200,107.100,25.600,9.197,baseline
1583.000,337.700,91.670,24.440,1165.000,184.700,32.530,5.605,107.200,31.070,4.397,1.069,375.800,107.300,25.530,9.159,baseline
1569.000,335.200,90.880,24.140,1161.000,182.300,32.280,5.596,107.800,31.080,4.407,1.062,373.900,106.600,25.440,9.076,baseline
1565.000,336.200,90.340,24.170,1164.000,182.800,32.500,5.554,106.700,30.890,4.406,1.067,373.000,106.500,25.360,9.044,baseline
1563.000,333.100,90.080,24.080,1166.000,183.300,32.270,5.574,108.300,30.760,4.388,1.060,372.200,106.200,25.310,9.042,baseline
1564.000,335.200,90.370,24.110,1164.000,182.800,32.230,5.582,107.500,31.220,4.363,1.061,373.600,106.000,25.340,9.084,baseline
1565.000,334.800,90.610,24.150,1164.000,183.300,32.280,5.590,106.400,30.930,4.361,1.057,373.600,106.200,25.440,9.077,baseline
1567.000,336.600,90.240,24.220,1167.000,183.800,32.250,5.617,106.800,31.050,4.333,1.058,373.700,106.400,25.460,9.112,baseline
1571.000,335.300,90.630,24.290,1167.000,183.700,32.360,5.583,105.900,31.210,4.387,1.061,374.600,106.600,25.500,9.145,baseline
1574.000,338.000,90.840,24.290,1166.000,183.500,32.420,5.607,107.100,31.120,4.377,1.053,374.300,106.900,25.590,9.153,baseline
1579.000,337.200,91.140,24.310,1168.000,183.900,32.460,5.601,106.100,30.910,4.414,1.061,375.200,107.300,25.610,9.195,baseline
1574.000,336.500,91.070,24.130,1165.000,183.300,32.320,5.560,106.800,31.310,4.398,1.059,372.600,106.500,25.360,9.108,baseline
1560.000,334.000,90.170,23.920,1160.000,182.700,32.250,5.558,106.400,30.930,4.413,1.062,373.200,105.900,25.390,9.042,baseline
1557.000,332.400,90.340,23.950,1163.000,182.400,32.210,5.577,106.700,31.030,4.379,1.061,371.400,105.900,25.300,9.026,baseline
1556.000,335.600,89.530,24.020,1158.000,182.500,32.410,5.589,105.200,30.860,4.402,1.056,371.300,106.200,25.190,9.016,baseline
1556.000,331.900,90.070,23.950,1162.000,183.100,32.220,5.598,106.700,30.970,4.357,1.059,372.100,105.700,25.250,9.023,baseline
1560.000,334.000,90.100,23.990,1163.000,183.400,32.190,5.580,106.900,30.830,4.341,1.059,372.400,106.300,25.400,9.037,baseline
1562.000,335.700,90.450,24.140,1164.000,183.400,32.460,5.601,106.700,30.930,4.343,1.062,373.400,106.500,25.330,9.072,baseline
1566.000,335.500,90.870,24.230,1167.000,182.900,32.180,5.577,106.200,31.260,4.359,1.068,374.200,106.600,25.370,9.096,baseline
1570.000,336.500,91.030,24.280,1166.000,183.500,32.280,5.591,106.100,30.890,4.396,1.061,373.800,106.700,25.510,9.104,baseline
1574.000,336.000,90.910,24.320,1170.000,183.700,32.480,5.592,106.000,31.170,4.380,1.070,375.000,107.100,25.530,9.185,baseline
1576.000,337.500,90.910,24.080,1164.000,183.000,32.280,5.578,107.500,30.860,4.417,1.067,374.200,106.700,25.410,9.079,baseline
1557.000,333.100,90.180,24.080,1163.000,183.300,32.110,5.565,105.900,31.040,4.400,1.074,372.200,106.400,25.280,9.020,baseline
1553.000,331.800,89.250,23.840,1161.000,182.500,32.230,5.524,105.700,31.270,4.382,1.064,372.000,105.900,25.220,8.991,baseline
1550.000,330.600,89.460,24.000,1160.000,181.900,32.150,5.565,109.000,31.090,4.373,1.057,371.600,106.100,25.210,8.979,baseline
1549.000,332.600,89.620,23.920,1160.000,182.200,32.290,5.574,106.600,30.970,4.357,1.059,371.300,106.000,25.180,8.971,baseline
1551.000,332.400,89.730,24.000,1161.000,182.200,32.070,5.583,107.200,30.880,4.355,1.045,372.300,105.800,25.210,8.973,baseline
1554.000,332.900,89.610,24.140,1162.000,182.400,32.310,5.577,106.900,31.280,4.372,1.062,372.600,106.300,25.240,9.044,baseline
1558.000,333.800,90.090,23.990,1160.000,182.800,32.170,5.569,106.700,31.080,4.372,1.065,374.000,106.400,25.470,9.096,baseline
1561.000,333.700,90.240,24.140,1168.000,183.100,32.280,5.561,107.500,30.990,4.367,1.065,374.500,106.900,25.420,9.077,baseline
1564.000,336.400,90.700,24.290,1166.000,182.700,32.220,5.589,108.600,31.390,4.355,1.061,374.100,107.200,25.570,9.114,baseline
1571.000,336.000,91.240,24.270,1165.000,182.800,32.250,5.608,107.000,31.080,4.390,1.065,375.900,107.100,25.530,9.134,baseline
1575.000,336.500,91.300,24.380,1164.000,184.200,32.610,5.617,105.200,31.100,4.377,1.060,375.900,107.600,25.580,9.213,baseline
1578.000,336.000,90.970,24.250,1165.000,182.600,32.210,5.622,107.800,31.030,4.425,1.071,376.000,107.000,25.360,9.065,baseline
1558.000,333.700,90.190,24.000,1165.000,183.000,32.130,5.581,107.600,30.840,4.398,1.065,373.300,106.500,25.290,8.987,baseline
1554.000,333.000,89.990,24.040,1162.000,182.800,32.300,5.553,108.000,30.950,4.386,1.066,372.100,106.300,25.340,9.013,baseline
1552.000,333.500,89.720,24.010,1158.000,182.900,32.230,5.548,105.500,30.970,4.393,1.066,372.600,106.500,25.330,9.024,baseline
1552.000,333.000,89.610,24.070,1161.000,182.100,32.400,5.557,106.600,31.150,4.392,1.066,372.900,106.300,25.270,8.999,baseline
1554.000,332.400,90.030,24.100,1159.000,182.500,32.210,5.560,107.100,31.250,4.382,1.062,373.500,106.300,25.320,9.036,baseline
1558.000,335.200,90.200,24.160,1162.000,183.300,32.260,5.584,107.100,31.120,4.394,1.067,373.700,106.600,25.320,9.060,baseline
1562.000,335.600,90.430,24.120,1166.000,182.200,32.420,5.600,107.000,31.110,4.374,1.063,373.700,107.000,25.440,9.055,baseline
1566.000,335.900,90.920,24.220,1164.000,183.100,32.300,5.623,107.400,30.940,4.381,1.065,374.900,106.900,25.530,9.115,baseline
1570.000,336.300,91.010,24.330,1167.000,183.500,32.400,5.586,108.500,31.120,4.392,1.068,374.500,107.400,25.490,9.137,baseline
1574.000,336.900,91.720,24.360,1164.000,184.000,32.510,5.611,105.100,30.990,4.410,1.072,375.700,107.500,25.520,9.185,baseline
1580.000,336.900,91.450,24.500,1169.000,183.300,32.450,5.617,106.500,31.410,4.414,1.077,377.200,107.700,25.530,9.138,baseline
1564.000,333.600,90.420,24.240,1161.000,183.400,32.340,5.594,108.800,31.190,4.369,1.068,374.000,106.600,25.360,9.066,baseline
1556.000,333.000,90.440,24.060,1166.000,183.000,32.250,5.572,107.500,31.260,4.416,1.063,374.300,106.600,25.380,9.036,baseline
1553.000,331.600,89.680,24.000,1163.000,182.000,32.260,5.591,107.700,31.150,4.379,1.065,373.800,106.600,25.280,9.012,baseline
1555.000,332.600,90.140,24.050,1163.000,183.500,32.360,5.566,107.000,30.950,4.350,1.072,373.100,106.300,25.310,9.008,baseline
1555.000,333.200,90.200,24.140,1163.000,183.100,32.340,5.577,106.000,31.140,4.377,1.066,372.400,106.500,25.320,9.035,baseline
1559.000,334.400,90.450,24.150,1170.000,183.100,32.400,5.616,107.300,31.220,4.401,1.069,373.800,106.700,25.450,9.049,baseline
1564.000,337.200,90.210,24.190,1172.000,183.500,32.450,5.598,107.400,31.330,4.376,1.065,374.600,106.700,25.460,9.119,baseline
1567.000,337.300,91.210,24.220,1166.000,183.600,32.290,5.635,106.200,31.370,4.398,1.074,375.000,107.000,25.450,9.143,baseline
1572.000,338.100,91.340,24.410,1168.000,183.000,32.210,5.610,107.700,31.110,4.397,1.065,374.400,106.900,25.520,9.130,baseline
1578.000,337.000,91.710,24.350,1170.000,183.900,32.450,5.590,106.400,31.010,4.386,1.072,376.200,107.400,25.640,9.193,baseline
1583.000,340.400,91.670,24.480,1173.000,184.100,32.550,5.632,107.500,30.860,4.406,1.073,377.100,108.000,25.660,9.234,baseline
1587.000,339.200,91.830,24.400,1167.000,183.800,32.420,5.607,107.700,31.470,4.422,1.071,376.900,107.200,25.570,9.097,baseline
1564.000,333.600,90.560,24.150,1166.000,183.000,32.530,5.579,107.100,31.050,4.420,1.071,374.300,106.800,25.360,9.042,baseline
1560.000,334.200,90.610,24.150,1164.000,182.700,32.450,5.545,108.000,31.050,4.390,1.071,372.300,106.700,25.310,9.001,baseline
1558.000,334.400,90.330,24.050,1162.000,182.700,32.380,5.566,106.800,31.220,4.418,1.061,372.500,106.200,25.360,9.018,baseline
1558.000,334.600,90.460,24.050,1170.000,183.000,32.390,5.605,106.600,31.290,4.388,1.066,372.700,106.600,25.300,9.000,baseline
1560.000,333.700,90.740,24.100,1164.000,182.700,32.380,5.592,106.600,31.120,4.378,1.066,372.200,106.100,25.210,9.008,baseline
1563.000,335.700,90.370,24.120,1169.000,183.700,32.580,5.604,107.000,30.710,4.386,1.057,373.200,106.900,25.370,9.086,baseline
1568.000,336.000,90.750,24.290,1163.000,183.500,32.470,5.638,108.800,31.070,4.362,1.064,374.700,106.800,25.430,9.106,baseline
1571.000,335.600,91.470,24.300,1173.000,183.600,32.550,5.599,107.800,31.200,4.408,1.067,373.600,106.900,25.440,9.147,baseline
1577.000,338.800,91.380,24.400,1167.000,184.100,32.470,5.660,106.200,31.280,4.399,1.072,374.000,107.200,25.550,9.158,baseline
1582.000,340.300,91.770,24.530,1171.000,184.500,32.530,5.644,107.800,31.050,4.404,1.065,375.200,107.500,25.670,9.184,baseline
1586.000,341.300,92.430,24.600,1175.000,185.200,32.660,5.655,106.400,31.190,4.397,1.077,376.300,107.500,25.740,9.230,baseline
1590.000,340.600,91.870,24.470,1169.000,184.500,32.470,5.616,105.700,31.140,4.436,1.086,375.300,107.000,25.560,9.142,baseline
1566.000,334.800,90.900,24.220,1163.000,183.200,32.630,5.613,108.700,31.240,4.391,1.067,372.900,106.500,25.450,9.055,baseline
1562.000,333.700,91.010,24.160,1169.000,183.800,32.340,5.588,106.800,31.140,4.400,1.068,372.500,106.400,25.320,9.008,baseline
1561.000,334.700,90.330,24.150,1165.000,183.900,32.410,5.631,107.400,31.180,4.392,1.063,371.200,106.100,25.370,9.027,baseline
1562.000,334.500,90.230,24.120,1164.000,183.500,32.660,5.585,108.900,31.200,4.379,1.061,372.400,106.300,25.350,9.022,baseline
1562.000,335.200,90.370,24.200,1169.000,183.300,32.560,5.636,108.600,30.850,4.391,1.056,371.800,106.200,25.250,9.071,baseline
1567.000,336.000,90.640,24.250,1161.000,184.200,32.380,5.606,106.600,31.320,4.403,1.062,372.700,106.600,25.390,9.108,baseline
1571.000,335.200,91.470,24.380,1167.000,184.400,32.510,5.637,106.300,30.960,4.379,1.068,374.800,106.800,25.400,9.088,baseline
1574.000,338.200,91.070,24.360,1169.000,184.000,32.510,5.640,107.000,31.240,4.388,1.072,373.900,106.600,25.470,9.129,baseline
1578.000,339.500,91.550,24.410,1167.000,184.300,32.600,5.652,106.500,31.280,4.388,1.068,373.900,106.600,25.470,9.176,baseline
1582.000,340.100,91.970,24.610,1170.000,185.100,32.440,5.625,106.200,31.150,4.396,1.064,376.100,107.400,25.620,9.241,baseline
1585.000,338.000,91.650,24.380,1164.000,184.600,32.290,5.639,109.000,31.340,4.433,1.073,374.400,106.900,25.440,9.103,baseline
1565.000,334.800,90.790,24.140,1167.000,184.000,32.640,5.592,109.000,31.230,4.440,1.070,372.500,105.900,25.310,9.056,baseline
1564.000,334.100,90.470,24.150,1168.000,182.900,32.450,5.615,106.200,31.070,4.387,1.066,372.300,106.000,25.330,9.009,baseline
1563.000,334.500,90.070,24.210,1168.000,183.600,32.410,5.599,106.400,31.030,4.399,1.078,371.800,106.400,25.330,9.032,baseline
1564.000,333.700,90.340,24.180,1166.000,182.800,32.570,5.597,107.900,31.130,4.410,1.059,371.400,105.900,25.270,9.035,baseline
1565.000,334.700,91.030,24.180,1170.000,183.300,32.430,5.633,108.400,30.950,4.404,1.060,371.500,106.300,25.290,9.077,baseline
1569.000,335.600,90.850,24.200,1170.000,184.100,32.430,5.634,106.700,31.130,4.374,1.063,373.700,106.200,25.380,9.118,baseline
1572.000,338.300,90.790,24.330,1173.000,184.300,32.600,5.626,107.800,30.900,4.408,1.066,373.100,106.600,25.460,9.099,baseline
1576.000,338.900,91.260,24.320,1172.000,184.400,32.550,5.651,107.800,30.900,4.355,1.074,373.600,106.900,25.470,9.192,baseline
1580.000,339.500,91.680,24.480,1172.000,184.700,32.610,5.592,106.300,30.950,4.370,1.075,374.600,106.800,25.510,9.159,baseline
1572.000,336.200,90.320,24.090,1167.000,184.100,32.280,5.586,105.800,31.190,4.397,1.069,371.800,106.000,25.190,9.016,baseline
1560.000,334.100,90.220,24.100,1162.000,184.000,32.360,5.592,107.600,31.020,4.414,1.068,369.900,105.900,25.230,9.011,baseline
1557.000,333.600,89.680,23.980,1166.000,183.100,32.390,5.563,106.900,31.330,4.403,1.063,369.700,105.400,25.160,8.975,baseline
1558.000,333.100,89.850,24.020,1164.000,182.600,32.300,5.600,105.900,30.820,4.363,1.057,370.900,105.300,25.080,8.999,baseline
1557.000,334.300,89.930,23.990,1163.000,183.500,32.420,5.616,106.500,30.910,4.375,1.061,369.700,105.400,25.190,9.015,baseline
1559.000,334.500,90.350,24.070,1169.000,182.800,32.450,5.597,107.900,31.020,4.339,1.059,370.600,105.700,25.190,8.983,baseline
1562.000,336.200,90.560,24.170,1169.000,184.000,32.450,5.617,107.300,30.800,4.356,1.061,371.100,105.800,25.190,9.053,baseline
1567.000,335.200,90.340,24.150,1164.000,182.800,32.530,5.620,106.800,30.640,4.385,1.069,371.600,105.900,25.290,9.064,baseline
1570.000,336.800,91.090,24.210,1167.000,183.200,32.370,5.610,106.300,30.620,4.356,1.058,371.100,105.700,25.370,9.077,baseline
1574.000,336.600,91.140,24.220,1167.000,184.100,32.460,5.641,107.200,31.100,4.360,1.064,373.200,106.000,25.380,9.130,baseline
1571.000,337.800,90.530,24.030,1164.000,183.000,32.300,5.612,108.100,31.280,4.372,1.068,370.800,105.500,25.190,9.015,baseline
1554.000,332.300,89.840,23.930,1163.000,183.300,32.240,5.578,107.000,30.980,4.354,1.064,369.100,104.600,24.990,8.955,baseline
1548.000,331.100,89.740,23.800,1161.000,182.400,32.290,5.581,107.900,31.010,4.342,1.061,367.400,104.800,24.960,8.966,baseline
1547.000,330.600,89.270,23.840,1161.000,182.400,32.280,5.589,106.900,30.690,4.381,1.057,367.600,104.600,25.000,8.917,baseline
1545.000,329.900,89.340,23.670,1159.000,182.800,32.350,5.564,107.000,30.820,4.349,1.046,367.100,104.700,24.930,8.938,baseline
1548.000,330.600,89.180,23.880,1164.000,182.500,32.240,5.572,107.200,31.000,4.356,1.059,367.300,104.600,24.990,8.952,baseline
1549.000,331.800,89.070,23.800,1158.000,182.400,32.320,5.580,105.900,30.540,4.349,1.049,367.800,104.700,25.020,8.984,baseline
1553.000,332.500,89.550,23.970,1164.000,182.900,32.400,5.565,106.600,30.860,4.345,1.054,368.800,104.800,25.070,9.014,baseline
1557.000,332.100,89.760,24.000,1166.000,182.900,32.320,5.609,107.300,30.990,4.364,1.058,368.900,105.100,25.140,8.999,baseline
1558.000,335.700,89.820,24.060,1169.000,183.600,32.340,5.616,107.800,30.940,4.317,1.056,369.000,105.100,25.170,9.051,baseline
1564.000,335.600,90.210,24.120,1166.000,183.100,32.550,5.637,107.300,31.020,4.387,1.050,369.600,105.500,25.270,9.027,baseline
1570.000,336.400,90.560,24.260,1172.000,184.000,32.400,5.577,106.900,30.770,4.368,1.050,370.700,105.600,25.240,9.124,baseline
1573.000,337.000,90.340,24.130,1169.000,183.900,32.290,5.596,107.300,30.810,4.367,1.060,369.800,105.000,25.080,8.973,baseline
1549.000,331.800,89.060,23.800,1165.000,182.800,32.340,5.575,106.400,30.850,4.352,1.051,367.300,104.100,24.840,8.942,baseline
1543.000,329.900,88.960,23.720,1156.000,182.200,31.860,5.523,107.800,31.020,4.320,1.057,366.100,104.200,24.830,8.851,baseline
1538.000,329.300,88.630,23.680,1161.000,182.600,32.100,5.593,107.000,30.830,4.358,1.054,365.600,104.000,24.780,8.864,baseline
1537.000,328.000,88.560,23.670,1160.000,182.400,32.150,5.560,104.800,30.800,4.355,1.055,365.300,104.200,24.730,8.866,baseline
1537.000,329.300,88.520,23.710,1160.000,183.100,32.140,5.514,104.500,30.660,4.335,1.052,365.700,103.900,24.820,8.870,baseline
1540.000,329.400,88.680,23.720,1161.000,181.700,32.040,5.567,106.800,30.750,4.309,1.048,366.000,104.200,24.940,8.916,baseline
1543.000,331.800,88.730,23.740,1166.000,181.900,32.250,5.531,104.900,30.700,4.325,1.046,365.700,104.500,24.910,8.892,baseline
1545.000,331.800,89.430,23.810,1160.000,183.000,32.270,5.556,106.400,30.880,4.322,1.062,367.900,104.400,24.940,8.948,baseline
1549.000,332.200,88.880,23.920,1163.000,181.800,32.250,5.562,106.900,30.830,4.343,1.046,367.700,104.300,24.930,8.985,baseline
1553.000,334.400,89.340,23.860,1164.000,182.400,32.250,5.573,105.800,30.500,4.337,1.055,369.000,104.700,25.010,8.998,baseline
1558.000,334.200,89.870,23.930,1165.000,183.000,32.240,5.555,106.500,30.540,4.320,1.048,369.200,104.700,25.110,9.011,baseline
1562.000,334.800,89.850,23.950,1159.000,182.200,32.190,5.552,105.800,30.950,4.359,1.061,367.700,104.500,24.980,8.896,baseline
1540.000,329.300,88.520,23.610,1158.000,182.600,32.040,5.550,106.200,30.710,4.343,1.058,365.900,104.200,24.860,8.878,baseline
1536.000,328.900,88.220,23.480,1157.000,181.300,31.990,5.525,107.200,30.670,4.339,1.051,364.600,103.800,24.690,8.845,baseline
1533.000,328.600,88.150,23.520,1158.000,181.700,31.860,5.514,105.100,30.900,4.325,1.049,364.700,103.800,24.760,8.842,baseline
1532.000,328.100,88.060,23.530,1154.000,180.900,32.010,5.487,106.600,30.630,4.305,1.051,364.400,103.600,24.780,8.853,baseline
1533.000,328.600,88.330,23.630,1158.000,181.900,31.880,5.522,105.300,30.640,4.344,1.043,365.600,103.900,24.770,8.871,baseline
1537.000,329.000,88.160,23.660,1158.000,181.800,32.140,5.529,107.400,30.530,4.332,1.046,366.000,104.100,24.780,8.906,baseline
1540.000,330.200,88.600,23.670,1161.000,181.800,32.140,5.541,106.600,30.840,4.331,1.046,365.800,104.400,24.940,8.942,baseline
1543.000,330.100,88.620,23.830,1159.000,182.200,32.240,5.518,104.700,30.960,4.365,1.044,367.300,104.200,24.900,8.937,baseline
1547.000,330.900,88.810,23.870,1164.000,182.700,32.220,5.520,104.700,30.620,4.343,1.044,367.700,104.400,24.940,8.974,baseline
1551.000,331.200,89.730,23.800,1165.000,182.300,32.120,5.569,106.300,30.760,4.351,1.048,367.800,104.500,25.080,9.038,baseline
1557.000,334.100,89.440,23.980,1166.000,182.500,32.230,5.571,106.400,30.760,4.335,1.053,368.500,105.100,25.150,9.032,baseline
1558.000,332.100,89.460,23.680,1162.000,182.200,31.990,5.546,106.700,30.880,4.381,1.057,367.500,104.100,25.020,8.909,baseline
1534.000,327.400,88.700,23.480,1158.000,181.800,31.940,5.498,107.200,30.870,4.332,1.053,365.200,104.000,24.710,8.845,baseline
1529.000,324.800,88.060,23.470,1156.000,181.200,31.910,5.517,105.300,30.600,4.355,1.044,365.700,103.400,24.600,8.818,baseline
1526.000,326.000,87.910,23.430,1151.000,181.400,31.940,5.476,107.300,30.570,4.349,1.046,364.800,103.300,24.620,8.791,baseline
1525.000,327.100,87.580,23.470,1153.000,181.600,31.950,5.495,107.100,30.770,4.360,1.050,364.100,103.500,24.620,8.829,baseline
1525.000,325.600,87.410,23.500,1155.000,181.900,32.110,5.511,107.500,31.070,4.318,1.044,363.300,103.900,24.750,8.821,baseline
1528.000,328.000,88.270,23.560,1156.000,181.300,31.950,5.525,105.600,30.750,4.346,1.039,364.400,103.800,24.730,8.807,baseline
1532.000,328.800,88.370,23.640,1156.000,182.100,32.030,5.512,105.700,30.820,4.335,1.047,366.000,103.900,24.780,8.916,baseline
1535.000,328.700,88.900,23.630,1160.000,181.600,32.020,5.520,105.600,30.700,4.351,1.044,366.400,104.400,24.850,8.927,baseline
1539.000,329.400,88.950,23.710,1157.000,182.100,32.170,5.517,105.000,30.760,4.317,1.040,366.200,104.300,24.990,8.940,baseline
1545.000,330.600,89.400,23.780,1160.000,181.900,32.080,5.549,105.700,30.650,4.343,1.051,366.700,104.300,25.010,8.974,baseline
1549.000,331.600,88.890,23.950,1165.000,182.700,32.100,5.568,105.900,30.470,4.353,1.043,367.400,104.500,25.000,9.010,baseline
1554.000,331.700,89.580,23.900,1165.000,182.600,31.930,5.583,107.400,31.110,4.351,1.060,369.300,104.600,24.880,8.911,baseline
1532.000,330.100,87.730,23.640,1157.000,181.300,31.960,5.523,108.300,30.950,4.357,1.048,365.400,103.800,24.690,8.827,baseline
1526.000,327.300,88.150,23.470,1149.000,180.900,31.990,5.491,107.100,30.950,4.318,1.052,363.900,103.600,24.620,8.764,baseline
1518.000,325.100,87.180,23.410,1153.000,180.500,31.900,5.525,107.700,30.740,4.352,1.047,362.700,103.300,24.560,8.757,baseline
1518.000,324.600,87.060,23.350,1152.000,180.800,31.860,5.540,104.500,30.880,4.323,1.037,362.800,103.100,24.460,8.759,baseline
1518.000,323.500,87.350,23.480,1152.000,180.800,31.950,5.510,105.400,30.750,4.281,1.037,364.300,103.600,24.590,8.790,baseline
1520.000,325.800,88.160,23.450,1155.000,181.700,31.970,5.522,106.100,30.880,4.330,1.050,363.800,103.700,24.720,8.818,baseline
1523.000,326.400,87.610,23.480,1155.000,180.800,32.100,5.554,104.500,30.970,4.324,1.036,364.400,103.500,24.690,8.835,baseline
1526.000,326.600,88.130,23.640,1159.000,181.400,31.890,5.549,105.600,31.150,4.323,1.049,365.200,103.700,24.760,8.868,baseline
1530.000,328.000,88.910,23.570,1159.000,181.600,32.040,5.540,106.700,30.930,4.347,1.048,365.600,104.000,24.880,8.887,baseline
1534.000,327.300,88.830,23.730,1156.000,182.000,32.100,5.546,106.900,30.750,4.334,1.050,365.900,104.400,24.850,8.899,baseline
1539.000,329.900,88.990,23.880,1155.000,182.300,32.080,5.553,106.400,30.920,4.344,1.043,366.500,104.600,24.870,8.949,baseline
1545.000,330.900,89.100,23.810,1161.000,181.600,32.270,5.576,104.600,30.950,4.337,1.050,368.000,105.200,25.070,8.991,baseline
1547.000,331.100,88.350,23.740,1151.000,181.500,31.990,5.536,106.500,31.150,4.391,1.049,367.100,104.100,24.790,8.846,baseline
1522.000,325.700,88.030,23.460,1153.000,180.900,32.100,5.513,107.600,31.060,4.367,1.047,364.400,103.700,24.620,8.803,baseline
1519.000,324.200,87.050,23.380,1149.000,181.600,31.930,5.508,106.600,30.900,4.316,1.046,364.000,103.600,24.530,8.822,baseline
1514.000,324.900,88.100,23.480,1156.000,181.100,31.990,5.502,108.000,30.890,4.336,1.043,364.300,103.100,24.620,8.760,baseline
1514.000,324.100,87.200,23.310,1149.000,180.800,31.930,5.503,107.200,31.080,4.314,1.032,363.300,103.000,24.530,8.744,baseline
1515.000,325.300,86.830,23.430,1157.000,180.200,31.900,5.508,105.500,30.600,4.347,1.043,362.400,103.300,24.660,8.795,baseline
1518.000,325.400,88.080,23.500,1154.000,181.000,31.980,5.512,107.100,30.510,4.330,1.044,364.100,103.800,24.710,8.823,baseline
1522.000,325.400,87.970,23.480,1155.000,181.200,31.960,5.558,106.500,30.810,4.323,1.040,364.800,103.700,24.720,8.821,baseline
1526.000,326.000,88.220,23.550,1157.000,181.700,32.050,5.524,106.300,30.840,4.335,1.057,364.900,104.000,24.760,8.866,baseline
1529.000,328.100,88.170,23.670,1156.000,181.200,32.060,5.549,107.300,30.710,4.336,1.061,366.200,104.300,24.780,8.879,baseline
1534.000,328.700,88.760,23.750,1154.000,181.900,32.180,5.588,107.900,30.780,4.337,1.052,365.700,104.400,24.920,8.937,baseline
1539.000,328.900,88.900,23.770,1158.000,183.100,32.260,5.575,105.500,30.840,4.342,1.049,367.800,104.500,24.950,8.937,baseline
1536.000,327.100,88.360,23.590,1159.000,182.200,32.010,5.509,106.000,31.200,4.338,1.054,365.500,103.700,24.620,8.798,baseline
1516.000,323.600,87.380,23.440,1150.000,180.400,31.830,5.515,106.700,30.690,4.338,1.041,362.000,103.300,24.490,8.776,baseline
1512.000,324.800,87.080,23.300,1151.000,181.400,32.070,5.503,109.100,30.890,4.297,1.045,363.100,102.800,24.470,8.744,baseline
1510.000,325.000,87.250,23.370,1152.000,180.000,31.940,5.530,105.200,30.850,4.303,1.040,362.500,103.100,24.600,8.689,baseline
1510.000,324.200,86.670,23.360,1147.000,180.500,31.860,5.536,106.600,30.570,4.331,1.037,362.800,103.000,24.380,8.727,baseline
1511.000,323.900,86.940,23.340,1152.000,180.800,31.970,5.544,105.900,30.760,4.334,1.036,362.900,103.300,24.480,8.711,baseline
1514.000,324.500,87.760,23.420,1153.000,180.800,32.090,5.545,105.900,30.700,4.308,1.041,362.400,103.200,24.570,8.763,baseline
1518.000,325.500,88.180,23.510,1154.000,181.200,32.150,5.578,106.500,30.640,4.309,1.035,363.000,103.100,24.660,8.799,baseline
1521.000,325.800,88.020,23.510,1157.000,181.400,32.000,5.531,107.300,30.880,4.319,1.044,362.900,103.500,24.680,8.820,baseline
1525.000,326.300,88.520,23.580,1150.000,181.700,31.910,5.575,106.200,31.010,4.330,1.054,365.100,103.900,24.610,8.856,baseline
1528.000,326.700,89.030,23.800,1152.000,181.600,32.090,5.550,106.500,30.950,4.335,1.048,364.700,104.000,24.830,8.903,baseline
1534.000,329.400,89.560,23.780,1162.000,182.200,32.070,5.538,105.500,30.820,4.315,1.051,365.400,103.800,24.750,8.851,baseline
1521.000,325.100,87.920,23.400,1152.000,181.000,32.100,5.488,106.000,30.870,4.353,1.042,361.800,103.200,24.440,8.698,baseline
1509.000,322.400,87.180,23.380,1153.000,180.500,31.930,5.541,106.200,30.720,4.324,1.040,360.900,102.400,24.370,8.656,baseline
1502.000,322.800,86.670,23.210,1149.000,180.600,32.030,5.481,106.500,30.620,4.312,1.039,359.500,102.200,24.310,8.634,baseline
1502.000,321.300,87.030,23.220,1151.000,180.900,32.020,5.524,104.500,30.350,4.333,1.033,359.400,102.000,24.160,8.621,baseline
1501.000,321.100,86.780,23.180,1149.000,180.200,31.900,5.548,104.900,30.720,4.315,1.040,358.700,102.200,24.240,8.622,baseline
1502.000,322.900,87.190,23.280,1149.000,180.500,31.890,5.538,105.200,30.660,4.278,1.036,358.700,102.100,24.300,8.629,baseline
1505.000,323.500,87.390,23.310,1151.000,180.800,32.070,5.554,105.600,30.730,4.333,1.033,359.600,102.300,24.340,8.639,baseline
1508.000,322.900,87.180,23.370,1149.000,180.300,32.120,5.574,106.100,30.510,4.315,1.046,360.900,102.500,24.340,8.706,baseline
1511.000,324.500,87.600,23.460,1152.000,180.800,32.060,5.544,106.100,30.680,4.307,1.038,361.700,102.700,24.490,8.709,baseline
1515.000,325.500,87.780,23.520,1150.000,181.600,32.100,5.547,104.900,30.930,4.359,1.040,362.400,103.300,24.420,8.750,baseline
1521.000,326.300,88.320,23.580,1150.000,181.400,32.260,5.605,106.500,30.870,4.313,1.047,362.700,102.800,24.570,8.768,baseline
1526.000,327.400,88.760,23.690,1157.000,181.100,32.180,5.555,103.700,30.520,4.298,1.045,362.100,103.200,24.460,8.708,baseline
1509.000,322.300,87.370,23.360,1146.000,180.800,32.060,5.490,105.500,30.920,4.313,1.037,359.700,102.200,24.220,8.645,baseline
1501.000,321.900,86.590,23.210,1148.000,180.700,32.040,5.532,106.400,30.810,4.291,1.039,358.900,101.900,24.200,8.603,baseline
1497.000,318.800,86.710,23.210,1143.000,179.700,31.970,5.485,104.200,30.660,4.331,1.039,356.900,101.700,24.140,8.527,baseline
1497.000,322.000,86.360,23.100,1147.000,180.100,31.940,5.528,106.900,30.680,4.318,1.037,356.800,101.500,24.040,8.565,baseline
1496.000,320.600,86.920,23.190,1147.000,179.600,31.980,5.508,105.000,30.710,4.284,1.036,356.800,101.600,24.140,8.538,baseline
1498.000,322.100,86.710,23.210,1144.000,180.300,31.920,5.531,104.400,30.610,4.330,1.036,357.000,101.600,24.060,8.586,baseline
1501.000,322.300,86.790,23.270,1149.000,180.700,31.900,5.550,105.000,30.530,4.304,1.034,358.300,101.600,24.200,8.604,baseline
1505.000,322.600,87.040,23.310,1149.000,180.700,31.990,5.543,105.600,30.460,4.266,1.039,359.800,102.200,24.240,8.623,baseline
1507.000,324.600,87.760,23.360,1148.000,180.500,31.980,5.516,104.100,30.540,4.294,1.032,360.300,102.000,24.270,8.634,baseline
1511.000,323.400,87.580,23.550,1150.000,181.300,32.040,5.558,104.900,30.720,4.305,1.032,359.800,102.500,24.410,8.717,baseline
1515.000,325.500,88.040,23.520,1151.000,181.000,32.090,5.583,106.000,30.580,4.317,1.045,361.100,102.500,24.280,8.636,baseline
1504.000,321.500,87.130,23.260,1149.000,180.800,32.000,5.514,104.600,30.750,4.330,1.041,357.900,101.500,24.060,8.557,baseline
1496.000,320.000,86.680,23.070,1143.000,180.300,31.960,5.507,106.300,30.490,4.283,1.035,356.500,101.500,24.070,8.515,baseline
1492.000,320.900,86.580,23.140,1146.000,180.100,31.940,5.491,104.500,30.520,4.306,1.037,356.300,101.300,23.940,8.502,baseline
1493.000,318.600,86.510,23.090,1144.000,179.700,31.930,5.503,106.700,30.630,4.283,1.039,356.400,101.000,23.860,8.510,baseline
1492.000,321.400,86.760,23.190,1140.000,179.200,31.980,5.522,110.100,30.390,4.271,1.031,356.200,101.100,23.970,8.482,baseline
1496.000,321.500,86.690,23.160,1146.000,180.500,31.750,5.531,106.300,30.400,4.293,1.031,356.500,101.300,24.030,8.543,baseline
1499.000,323.600,87.390,23.250,1147.000,179.900,31.970,5.556,105.100,30.620,4.305,1.038,356.500,101.300,24.050,8.550,baseline
1502.000,321.700,86.780,23.330,1147.000,180.500,31.920,5.562,106.900,30.640,4.323,1.036,358.600,101.800,24.150,8.606,baseline
1506.000,322.000,87.340,23.340,1145.000,181.000,31.980,5.542,106.100,30.650,4.320,1.043,358.400,101.600,24.180,8.613,baseline
1510.000,325.600,87.780,23.440,1150.000,180.800,31.990,5.554,106.200,30.440,4.332,1.043,360.200,101.900,24.190,8.628,baseline
1514.000,324.300,88.010,23.470,1153.000,180.300,32.030,5.546,104.500,30.590,4.322,1.042,359.600,102.100,24.350,8.690,baseline
1519.000,325.000,88.380,23.620,1153.000,181.600,32.170,5.537,105.200,30.340,4.348,1.042,361.200,102.300,24.330,8.648,baseline
1506.000,321.600,87.060,23.240,1149.000,180.900,31.920,5.486,105.400,30.910,4.335,1.046,357.000,101.600,24.040,8.550,baseline
1499.000,322.200,86.800,23.180,1147.000,180.200,31.840,5.480,105.300,30.630,4.335,1.038,356.300,101.100,24.040,8.499,baseline
1492.000,320.500,86.840,23.100,1149.000,179.800,31.800,5.506,106.200,30.420,4.286,1.042,356.500,101.200,23.900,8.471,baseline
1493.000,319.600,86.920,22.980,1143.000,179.700,31.810,5.498,102.700,30.500,4.318,1.045,355.900,101.000,23.950,8.470,baseline
1492.000,320.900,86.970,23.040,1145.000,180.100,32.010,5.524,105.100,30.570,4.299,1.037,356.000,101.100,23.960,8.452,baseline
1496.000,320.600,86.870,23.190,1145.000,180.100,31.770,5.507,105.900,30.580,4.301,1.041,355.600,101.200,23.990,8.502,baseline
1498.000,321.800,87.400,23.230,1145.000,180.800,31.930,5.561,104.900,30.450,4.290,1.041,356.700,101.100,24.090,8.537,baseline
1502.000,323.600,87.010,23.310,1147.000,180.000,31.990,5.557,103.100,30.440,4.310,1.042,357.500,101.600,24.120,8.574,baseline
1505.000,322.100,87.050,23.300,1147.000,181.400,31.910,5.576,106.300,30.820,4.321,1.046,358.500,101.900,24.100,8.594,baseline
1509.000,323.200,87.790,23.370,1147.000,180.900,31.970,5.556,105.300,30.460,4.321,1.046,358.100,102.100,24.190,8.649,baseline
1515.000,324.200,88.170,23.520,1147.000,181.100,32.000,5.579,103.900,30.630,4.327,1.047,358.700,102.100,24.290,8.709,baseline
1520.000,325.100,88.590,23.620,1155.000,181.000,32.230,5.581,106.600,30.570,4.326,1.048,361.200,102.400,24.410,8.692,baseline
1524.000,325.500,88.640,23.660,1156.000,181.400,32.240,5.549,105.100,30.770,4.345,1.046,359.900,102.700,24.270,8.630,baseline
1507.000,321.700,87.400,23.270,1145.000,180.500,32.090,5.516,106.400,30.700,4.329,1.051,357.800,101.800,24.060,8.573,baseline
1501.000,322.400,86.810,23.190,1143.000,180.100,31.900,5.534,107.000,30.850,4.322,1.038,356.000,101.100,24.030,8.492,baseline
1496.000,320.700,86.360,23.080,1149.000,179.700,31.970,5.542,104.400,30.460,4.316,1.040,355.900,101.300,24.040,8.480,baseline
1498.000,323.600,86.660,23.150,1151.000,180.600,31.940,5.549,104.500,30.690,4.327,1.039,356.500,101.200,24.010,8.491,baseline
1499.000,322.100,86.990,23.220,1147.000,179.600,31.910,5.549,106.500,30.250,4.322,1.036,356.900,101.400,24.070,8.530,baseline
1502.000,321.700,87.090,23.250,1147.000,180.700,31.960,5.572,103.700,30.630,4.315,1.039,358.200,101.400,24.150,8.526,baseline
1506.000,321.800,87.580,23.370,1147.000,180.600,31.900,5.561,107.200,31.010,4.290,1.039,357.700,101.700,24.230,8.610,baseline
1508.000,323.800,88.090,23.320,1152.000,179.900,32.010,5.545,104.700,30.740,4.328,1.043,359.600,101.900,24.190,8.588,baseline
1511.000,323.400,87.880,23.460,1152.000,180.600,32.100,5.560,104.700,30.880,4.348,1.055,359.100,102.100,24.310,8.616,baseline
1516.000,325.300,87.510,23.470,1153.000,181.500,32.120,5.560,104.500,30.580,4.306,1.047,360.500,102.400,24.340,8.654,baseline
1522.000,328.500,87.930,23.640,1153.000,181.400,32.130,5.560,107.000,30.650,4.344,1.046,361.400,103.000,24.500,8.711,baseline
1528.000,327.800,88.480,23.780,1157.000,181.400,32.250,5.569,105.700,30.900,4.335,1.054,360.700,103.100,24.490,8.746,baseline
1518.000,325.000,87.500,23.440,1153.000,180.900,32.140,5.558,106.200,30.970,4.354,1.056,359.100,102.200,24.280,8.657,baseline
1509.000,323.800,87.500,23.270,1150.000,180.500,32.070,5.551,107.300,30.610,4.331,1.044,359.000,101.700,24.170,8.602,baseline
1505.000,324.800,87.000,23.210,1147.000,179.600,31.940,5.550,107.000,30.410,4.335,1.048,358.100,101.500,24.200,8.563,baseline
1507.000,324.300,87.320,23.380,1150.000,181.000,31.840,5.573,105.300,30.890,4.330,1.054,358.300,101.900,24.240,8.581,baseline
1508.000,323.400,87.190,23.350,1150.000,180.800,31.940,5.577,105.000,30.790,4.353,1.039,359.300,102.000,24.190,8.621,baseline
1511.000,323.300,87.260,23.320,1150.000,180.800,31.960,5.559,105.500,30.450,4.306,1.040,359.500,102.000,24.350,8.631,baseline
1515.000,323.900,87.640,23.470,1152.000,181.600,32.050,5.571,105.600,30.700,4.343,1.037,359.700,102.300,24.350,8.672,baseline
1519.000,325.200,87.960,23.560,1153.000,181.400,32.160,5.553,105.500,30.650,4.320,1.046,361.100,102.800,24.360,8.677,baseline
1522.000,324.600,88.170,23.520,1151.000,181.500,32.150,5.545,106.800,30.800,4.347,1.049,361.900,102.800,24.420,8.746,baseline
1527.000,326.800,88.490,23.640,1157.000,182.200,32.310,5.589,105.500,30.680,4.351,1.053,363.100,102.900,24.570,8.761,baseline
1534.000,327.500,88.920,23.780,1153.000,182.000,32.280,5.556,106.000,30.840,4.332,1.057,363.800,103.300,24.630,8.848,baseline
1538.000,330.400,89.240,23.910,1157.000,181.700,32.240,5.603,105.700,30.730,4.309,1.054,363.900,103.600,24.740,8.871,baseline
1514.000,324.700,87.580,23.460,1149.000,181.100,32.200,5.593,107.200,30.750,4.336,1.045,360.800,102.500,24.450,8.685,easy
1516.000,324.400,87.750,23.400,1151.000,181.300,32.180,5.523,104.300,30.990,4.345,1.049,361.400,102.500,24.350,8.747,easy
1521.000,326.600,88.640,23.550,1155.000,182.000,32.210,5.582,106.000,30.750,4.351,1.053,361.100,102.900,24.350,8.794,easy
1525.000,326.600,88.370,23.640,1153.000,181.500,32.160,5.581,106.700,30.570,4.338,1.049,363.100,103.100,24.600,8.789,easy
1528.000,328.500,88.820,23.700,1157.000,181.400,32.190,5.603,105.900,30.600,4.362,1.059,362.800,103.300,24.590,8.784,easy
1532.000,328.700,88.590,23.740,1154.000,182.700,32.390,5.574,103.800,30.740,4.368,1.056,364.400,103.500,24.720,8.873,easy
1538.000,330.600,89.350,23.930,1156.000,182.200,32.430,5.611,105.600,30.600,4.337,1.058,364.300,104.200,24.750,8.932,easy
1545.000,331.800,89.610,23.970,1160.000,182.300,32.390,5.634,106.100,30.630,4.366,1.058,365.800,104.100,24.820,8.968,easy
1552.000,333.300,89.550,24.090,1164.000,182.700,32.630,5.584,107.200,30.840,4.358,1.060,366.300,104.200,24.890,8.952,easy
1542.000,331.200,88.610,23.740,1154.000,182.100,32.330,5.572,105.700,30.780,4.389,1.060,363.800,103.500,24.580,8.804,easy
1526.000,327.100,88.320,23.550,1160.000,181.500,32.190,5.582,108.500,31.030,4.337,1.046,362.800,102.800,24.560,8.796,easy
1524.000,328.500,88.300,23.410,1156.000,181.600,32.130,5.554,106.800,30.800,4.366,1.063,362.600,103.100,24.530,8.764,easy
1523.000,326.300,87.900,23.530,1156.000,182.400,32.060,5.557,106.900,30.720,4.366,1.055,362.400,103.300,24.630,8.783,easy
1522.000,325.700,88.320,23.430,1155.000,181.600,32.220,5.606,107.400,30.860,4.325,1.053,362.100,103.200,24.630,8.784,easy
1525.000,326.300,88.660,23.670,1156.000,181.900,32.200,5.559,106.600,30.660,4.342,1.050,362.300,103.200,24.600,8.809,easy
1530.000,328.900,88.510,23.700,1155.000,181.900,32.030,5.589,105.600,30.870,4.338,1.053,363.400,103.300,24.680,8.828,easy
1534.000,329.600,88.930,23.730,1156.000,182.000,32.280,5.572,107.800,30.700,4.338,1.056,363.100,103.400,24.650,8.894,easy
1538.000,331.600,89.350,23.860,1161.000,182.000,32.370,5.604,106.200,30.970,4.327,1.053,364.900,103.800,24.700,8.908,easy
1544.000,330.500,89.870,23.990,1159.000,181.900,32.220,5.620,105.500,30.880,4.334,1.052,364.500,104.200,24.840,8.932,easy
1550.000,333.900,90.420,24.050,1160.000,183.700,32.460,5.646,107.200,30.750,4.352,1.054,366.600,104.500,25.010,8.984,easy
1557.000,335.200,90.660,24.220,1165.000,182.900,32.480,5.639,107.600,30.830,4.364,1.049,368.100,104.500,24.950,8.976,easy
1548.000,331.500,89.220,23.850,1158.000,181.600,32.170,5.598,106.800,31.020,4.405,1.057,365.300,103.600,24.730,8.896,easy
1532.000,329.800,88.760,23.700,1154.000,182.200,32.330,5.572,107.200,30.820,4.350,1.056,362.400,103.500,24.640,8.860,easy
1529.000,327.000,88.880,23.560,1156.000,182.100,32.170,5.601,106.700,30.890,4.332,1.053,363.400,103.600,24.640,8.854,easy
1530.000,329.300,88.730,23.590,1161.000,182.400,32.350,5.615,106.200,30.710,4.317,1.051,362.700,103.800,24.610,8.832,easy
1529.000,328.100,89.050,23.750,1155.000,182.200,32.120,5.599,107.800,30.890,4.370,1.049,362.500,103.400,24.590,8.847,easy
1532.000,329.600,88.610,23.650,1156.000,181.900,32.290,5.555,105.300,30.810,4.340,1.047,363.500,103.600,24.750,8.892,easy
1536.000,329.300,88.910,23.770,1159.000,182.400,32.170,5.556,106.500,30.990,4.354,1.059,363.300,103.700,24.740,8.901,easy
1541.000,330.400,89.450,23.810,1158.000,182.000,32.330,5.598,106.400,30.800,4.315,1.053,364.400,103.600,24.800,8.916,easy
1545.000,332.400,89.870,23.900,1159.000,183.200,32.430,5.579,107.000,30.730,4.362,1.057,364.600,104.000,24.760,8.962,easy
1550.000,333.000,89.870,24.000,1165.000,182.200,32.450,5.604,107.400,30.920,4.367,1.059,366.300,104.400,24.950,9.019,easy
1556.000,334.600,90.270,24.080,1161.000,182.700,32.400,5.604,105.800,30.730,4.354,1.056,366.200,104.200,25.000,8.960,easy
1538.000,330.900,89.360,23.670,1154.000,182.200,32.200,5.575,106.900,31.030,4.347,1.056,363.900,103.500,24.660,8.895,easy
1531.000,327.600,88.910,23.610,1156.000,181.500,32.390,5.575,105.400,30.740,4.379,1.056,362.400,103.500,24.630,8.852,easy
1527.000,328.500,88.330,23.670,1152.000,181.900,32.150,5.555,105.400,30.820,4.343,1.037,362.200,102.900,24.550,8.829,easy
1528.000,328.500,88.540,23.650,1156.000,182.000,31.990,5.573,105.000,31.200,4.305,1.051,361.600,102.900,24.490,8.833,easy
1527.000,328.300,88.360,23.610,1155.000,181.900,32.230,5.578,105.200,30.660,4.337,1.041,361.900,103.000,24.620,8.861,easy
1531.000,329.400,89.180,23.640,1153.000,182.500,32.130,5.586,105.400,30.670,4.319,1.050,362.200,103.400,24.700,8.879,easy
1536.000,329.500,89.220,23.750,1159.000,181.800,32.090,5.597,106.500,30.620,4.327,1.053,362.600,103.300,24.770,8.918,easy
1539.000,331.800,89.160,23.830,1156.000,182.400,32.260,5.571,105.500,30.650,4.317,1.046,363.100,103.500,24.680,8.925,easy
1541.000,331.600,89.460,23.890,1154.000,181.700,32.450,5.609,105.300,30.870,4.339,1.045,363.600,103.700,24.780,8.984,easy
1545.000,331.700,89.430,23.820,1161.000,181.900,32.430,5.575,107.400,30.790,4.342,1.051,363.000,103.300,24.690,8.867,easy
1527.000,326.500,88.330,23.570,1154.000,180.800,32.170,5.531,106.900,30.730,4.288,1.045,360.000,102.800,24.490,8.795,easy
1522.000,327.600,88.060,23.480,1155.000,180.600,32.220,5.565,107.600,30.650,4.337,1.048,359.700,102.500,24.440,8.800,easy
1520.000,325.800,87.990,23.410,1151.000,181.800,32.100,5.514,106.400,30.850,4.302,1.044,359.600,102.400,24.480,8.786,easy
1519.000,327.300,88.260,23.410,1155.000,181.300,32.210,5.567,104.500,30.570,4.289,1.049,359.100,102.700,24.320,8.770,easy
1519.000,326.300,88.300,23.380,1149.000,181.600,32.110,5.602,104.600,30.650,4.302,1.051,360.200,102.200,24.480,8.791,easy
1522.000,326.000,88.560,23.420,1154.000,181.000,32.180,5.549,106.200,30.450,4.269,1.046,360.300,102.400,24.440,8.801,easy
1526.000,328.800,88.880,23.640,1151.000,182.400,32.110,5.551,105.300,30.600,4.314,1.040,360.900,102.300,24.480,8.857,easy
1529.000,329.800,88.960,23.680,1147.000,181.400,32.180,5.557,104.900,30.510,4.319,1.045,360.300,102.900,24.460,8.840,easy
1533.000,328.200,88.780,23.670,1156.000,181.700,32.370,5.596,105.000,30.710,4.311,1.047,361.100,102.900,24.610,8.887,easy
1539.000,330.700,88.780,23.840,1151.000,182.100,32.150,5.585,105.300,30.570,4.288,1.045,361.600,103.200,24.630,8.891,easy
1538.000,329.700,88.880,23.620,1152.000,180.900,32.120,5.555,107.200,30.620,4.290,1.045,359.300,102.400,24.430,8.829,easy
1518.000,327.000,88.280,23.370,1153.000,180.100,32.000,5.567,104.500,30.590,4.293,1.035,358.000,102.000,24.300,8.752,easy
1514.000,326.400,87.430,23.260,1147.000,180.700,31.990,5.560,106.400,30.480,4.300,1.036,357.900,101.500,24.300,8.710,easy
1511.000,325.500,87.580,23.270,1148.000,180.600,32.120,5.532,105.200,30.300,4.278,1.045,357.100,101.500,24.130,8.725,easy
1509.000,326.000,87.350,23.180,1155.000,180.000,31.940,5.541,106.800,30.490,4.294,1.043,357.600,101.700,24.260,8.694,easy
1512.000,324.700,87.700,23.400,1148.000,180.300,32.080,5.580,106.300,30.400,4.304,1.048,356.800,101.500,24.190,8.735,easy
1515.000,324.600,88.190,23.370,1145.000,180.600,31.970,5.556,105.300,30.520,4.318,1.045,357.000,101.500,24.280,8.725,easy
1518.000,325.800,87.880,23.390,1151.000,180.700,31.910,5.574,106.400,30.450,4.289,1.038,357.400,101.700,24.350,8.772,easy
1520.000,326.600,88.200,23.430,1149.000,181.400,31.970,5.544,104.800,30.510,4.286,1.045,358.200,101.800,24.370,8.791,easy
1524.000,328.300,88.450,23.610,1149.000,181.000,31.930,5.533,104.600,30.330,4.295,1.051,358.900,101.800,24.300,8.802,easy
1530.000,328.100,88.970,23.550,1152.000,181.400,32.090,5.557,104.400,30.500,4.268,1.044,359.200,102.300,24.440,8.878,easy
1534.000,330.900,88.810,23.700,1152.000,181.800,32.190,5.532,104.500,30.590,4.317,1.045,358.600,102.300,24.250,8.809,easy
1520.000,325.800,87.880,23.290,1145.000,180.900,32.010,5.491,106.200,30.590,4.327,1.050,356.600,101.600,24.130,8.743,easy
1511.000,324.100,87.990,23.330,1148.000,179.900,32.120,5.554,105.200,30.720,4.326,1.043,355.100,100.800,24.140,8.689,easy
1507.000,325.400,86.830,23.310,1144.000,180.700,31.950,5.493,104.600,30.760,4.287,1.042,355.200,100.800,24.020,8.679,easy
1509.000,324.400,87.740,23.230,1148.000,181.100,31.790,5.514,105.000,30.590,4.291,1.042,354.600,101.000,24.040,8.687,easy
1507.000,325.000,87.340,23.330,1146.000,180.600,31.890,5.529,104.300,30.370,4.285,1.038,355.000,100.600,23.980,8.680,easy
1511.000,324.200,87.480,23.320,1147.000,180.200,31.890,5.517,105.100,30.080,4.298,1.042,354.400,100.900,24.080,8.703,easy
1514.000,325.700,87.760,23.420,1145.000,180.400,31.880,5.540,106.600,30.720,4.307,1.039,356.000,100.900,24.170,8.733,easy
1518.000,325.600,88.010,23.470,1152.000,181.200,32.020,5.516,106.900,30.440,4.321,1.034,355.800,101.300,24.190,8.739,easy
1521.000,326.400,88.230,23.590,1151.000,180.900,32.020,5.596,105.500,30.610,4.297,1.045,355.800,101.700,24.260,8.790,easy
1527.000,329.400,88.520,23.580,1148.000,181.800,32.180,5.536,104.000,30.590,4.307,1.040,357.300,101.900,24.240,8.799,easy
1530.000,327.500,88.280,23.540,1143.000,180.900,31.880,5.538,105.900,30.430,4.279,1.041,356.100,101.200,24.130,8.736,easy
1509.000,324.900,87.770,23.240,1142.000,180.000,31.760,5.534,105.000,30.450,4.298,1.034,354.000,100.400,24.050,8.672,easy
1506.000,323.300,87.500,23.170,1144.000,179.300,31.760,5.523,104.900,30.410,4.289,1.039,352.900,100.300,23.980,8.614,easy
1502.000,324.200,86.770,23.170,1142.000,179.100,31.830,5.532,103.900,30.630,4.266,1.039,352.200,100.300,23.800,8.609,easy
1502.000,322.100,87.020,23.170,1143.000,179.300,31.870,5.497,104.600,30.380,4.301,1.038,352.900,100.300,23.980,8.574,easy
1504.000,323.700,87.250,23.240,1148.000,178.900,31.810,5.537,104.700,30.540,4.258,1.034,352.700,100.400,23.980,8.618,easy
1507.000,325.400,87.800,23.270,1141.000,179.900,31.810,5.488,103.700,30.180,4.246,1.040,353.500,100.700,24.050,8.659,easy
1511.000,324.600,87.740,23.320,1142.000,180.400,31.880,5.508,105.000,30.240,4.263,1.037,354.300,100.800,24.030,8.697,easy
1514.000,326.600,87.970,23.390,1141.000,180.300,31.850,5.529,103.900,30.490,4.278,1.044,354.400,101.000,24.120,8.693,easy
1519.000,327.800,88.460,23.490,1146.000,180.900,31.960,5.526,103.800,30.260,4.322,1.040,354.300,100.900,24.200,8.756,easy
1523.000,327.000,88.460,23.600,1145.000,181.200,31.860,5.518,104.800,30.410,4.244,1.045,355.900,101.400,24.370,8.775,easy
1529.000,328.500,89.290,23.790,1147.000,180.500,32.020,5.538,104.300,30.430,4.312,1.041,357.500,102.100,24.360,8.770,easy
1528.000,328.400,88.330,23.450,1151.000,180.100,31.950,5.520,105.700,30.880,4.320,1.042,355.300,100.800,24.040,8.650,easy
1509.000,323.400,87.750,23.240,1143.000,179.500,31.830,5.510,105.500,30.830,4.315,1.036,353.300,100.200,23.940,8.599,easy
1503.000,321.500,86.930,23.200,1144.000,179.900,31.920,5.503,106.100,30.470,4.273,1.037,352.900,99.810,23.880,8.568,easy
1502.000,322.600,87.200,23.200,1146.000,179.700,31.780,5.496,106.900,30.380,4.298,1.039,352.600,100.200,23.860,8.579,easy
1500.000,324.100,86.890,23.180,1139.000,179.700,31.670,5.495,105.800,30.490,4.309,1.035,352.100,100.300,23.830,8.573,easy
1502.000,324.100,87.250,23.200,1143.000,179.700,31.580,5.531,104.700,30.550,4.292,1.029,352.800,99.940,23.880,8.612,easy
1505.000,324.500,87.530,23.250,1145.000,179.800,31.560,5.491,106.100,30.570,4.283,1.035,353.800,100.300,23.910,8.645,easy
1508.000,325.800,87.660,23.390,1145.000,180.000,31.900,5.540,106.200,30.270,4.305,1.031,353.900,100.500,23.970,8.641,easy
1513.000,325.200,88.010,23.450,1142.000,180.200,31.760,5.523,105.500,30.380,4.281,1.038,354.300,101.000,24.040,8.713,easy
1517.000,325.800,88.340,23.490,1146.000,180.300,31.840,5.487,105.400,30.530,4.288,1.048,356.000,101.300,24.170,8.722,easy
1522.000,326.400,88.230,23.590,1146.000,181.000,31.900,5.493,104.900,30.830,4.299,1.047,356.800,101.300,24.240,8.725,easy
1516.000,324.000,87.650,23.330,1141.000,180.200,31.790,5.481,105.900,30.400,4.309,1.045,355.100,100.800,23.940,8.648,easy
1504.000,324.200,87.190,23.240,1143.000,180.000,31.890,5.514,107.000,30.470,4.294,1.034,354.300,100.400,23.880,8.570,easy
1500.000,323.500,86.670,23.170,1142.000,179.500,31.650,5.513,105.600,30.330,4.273,1.035,353.100,100.300,23.860,8.583,easy
1501.000,324.100,87.140,23.220,1140.000,179.600,31.870,5.476,105.300,30.770,4.275,1.044,353.500,100.400,23.900,8.581,easy
1500.000,324.000,87.180,23.270,1142.000,179.500,31.830,5.536,106.800,30.500,4.282,1.033,352.500,100.400,23.990,8.581,easy
1503.000,323.800,87.470,23.260,1141.000,179.600,31.820,5.552,105.800,30.290,4.271,1.042,353.300,100.400,24.020,8.621,easy
1506.000,323.700,87.350,23.350,1142.000,180.100,31.650,5.547,106.200,30.460,4.278,1.040,354.100,100.900,24.030,8.666,easy
1511.000,324.400,88.120,23.420,1145.000,179.700,31.760,5.529,105.200,30.380,4.311,1.040,355.600,100.900,24.080,8.669,easy
1514.000,325.500,87.900,23.480,1148.000,180.100,32.070,5.546,105.400,30.490,4.281,1.043,355.600,101.100,24.070,8.717,easy
1519.000,326.200,88.060,23.570,1148.000,180.500,31.940,5.546,104.700,30.750,4.299,1.040,357.800,101.600,24.210,8.762,easy
1523.000,326.900,88.080,23.410,1148.000,180.400,31.860,5.497,105.400,30.440,4.339,1.041,356.200,101.100,24.050,8.644,easy
1503.000,323.600,87.640,23.270,1142.000,179.900,31.910,5.490,106.200,30.950,4.320,1.039,354.400,100.800,23.990,8.607,easy
1502.000,323.800,87.300,23.150,1144.000,179.600,31.680,5.518,106.100,30.850,4.310,1.041,354.100,100.900,23.920,8.585,easy
1499.000,322.600,87.170,23.220,1141.000,180.000,31.740,5.507,105.600,30.730,4.295,1.045,354.200,100.700,23.960,8.588,easy
1500.000,323.100,87.130,23.300,1140.000,179.900,31.890,5.512,105.400,30.690,4.287,1.039,355.200,100.500,24.000,8.579,easy
1501.000,322.400,87.340,23.370,1141.000,178.800,31.800,5.519,104.700,30.650,4.276,1.043,354.800,101.000,24.000,8.622,easy
1505.000,324.100,87.430,23.350,1142.000,180.300,31.860,5.518,104.800,30.600,4.286,1.036,355.900,101.300,24.030,8.661,easy
1509.000,325.100,87.880,23.470,1148.000,180.200,31.970,5.533,104.700,30.600,4.309,1.043,356.300,101.300,24.300,8.648,easy
1514.000,326.200,88.030,23.460,1147.000,180.500,32.000,5.549,105.100,30.530,4.338,1.043,357.000,101.400,24.220,8.693,easy
1519.000,326.900,88.490,23.550,1150.000,180.300,31.930,5.537,105.300,30.480,4.321,1.042,358.000,102.000,24.270,8.792,easy
1521.000,326.700,88.260,23.440,1146.000,180.200,31.870,5.491,107.200,30.970,4.333,1.057,357.200,101.300,24.090,8.652,easy
1504.000,322.200,87.520,23.200,1142.000,180.000,31.580,5.525,107.300,30.350,4.320,1.045,355.800,101.100,24.020,8.608,easy
1500.000,323.100,87.250,23.210,1143.000,179.700,31.870,5.521,105.900,30.840,4.334,1.038,355.000,100.900,24.080,8.629,easy
1499.000,322.300,87.050,23.210,1139.000,179.600,31.830,5.502,105.300,30.580,4.317,1.048,355.500,101.000,23.990,8.573,easy
1501.000,321.900,87.030,23.230,1137.000,179.600,31.840,5.489,106.200,30.950,4.325,1.043,356.000,101.200,24.040,8.583,easy
1502.000,324.700,87.540,23.380,1145.000,179.300,31.890,5.526,105.900,30.360,4.275,1.040,355.800,101.200,24.170,8.649,easy
1506.000,324.500,87.700,23.390,1150.000,180.300,31.920,5.511,105.500,30.650,4.337,1.044,356.200,101.600,24.180,8.657,easy
1511.000,325.300,87.820,23.390,1143.000,180.100,31.880,5.586,104.800,30.610,4.281,1.048,357.900,101.600,24.230,8.692,easy
1515.000,325.800,87.930,23.580,1146.000,179.900,31.950,5.581,104.800,30.780,4.313,1.045,358.400,101.700,24.360,8.736,easy
1519.000,329.000,88.620,23.460,1148.000,180.500,32.020,5.557,104.200,30.950,4.300,1.053,358.500,102.500,24.460,8.763,easy
1525.000,329.400,88.620,23.660,1149.000,180.500,31.820,5.577,106.400,30.580,4.358,1.051,360.100,102.400,24.480,8.851,easy
1530.000,328.700,89.270,23.790,1150.000,181.300,32.120,5.587,105.200,30.570,4.320,1.046,360.700,102.600,24.590,8.885,easy
1536.000,331.300,89.480,23.740,1150.000,180.400,32.110,5.555,106.800,31.060,4.352,1.064,359.600,102.500,24.400,8.739,easy
1514.000,325.200,88.070,23.470,1150.000,181.100,31.870,5.539,105.600,30.850,4.330,1.047,358.600,102.100,24.260,8.710,easy
1508.000,325.700,87.560,23.310,1146.000,179.600,31.730,5.520,106.000,30.570,4.315,1.048,357.300,101.600,24.180,8.650,easy
1507.000,323.400,87.620,23.370,1145.000,179.800,31.920,5.520,106.400,30.760,4.335,1.044,357.400,101.700,24.290,8.663,easy
1507.000,326.000,87.350,23.250,1144.000,180.100,31.770,5.547,107.100,30.620,4.349,1.045,356.500,102.000,24.190,8.688,easy
1509.000,325.100,87.430,23.510,1145.000,178.900,31.920,5.554,105.900,30.540,4.330,1.042,358.200,101.700,24.250,8.686,easy
1514.000,327.200,87.950,23.470,1147.000,180.700,31.850,5.574,105.700,30.980,4.305,1.044,357.700,102.300,24.310,8.767,easy
1516.000,325.800,88.180,23.520,1149.000,180.200,31.900,5.561,109.100,30.800,4.313,1.047,358.800,102.400,24.390,8.717,easy
1521.000,328.600,88.430,23.590,1146.000,180.300,31.850,5.582,105.300,30.650,4.336,1.046,359.700,102.800,24.340,8.783,easy
1526.000,328.400,88.570,23.750,1149.000,180.900,32.090,5.564,106.400,30.950,4.369,1.059,361.100,102.800,24.480,8.819,easy
1530.000,330.100,89.470,23.880,1153.000,181.200,32.210,5.577,106.700,31.000,4.340,1.054,362.100,103.300,24.650,8.852,easy
1524.000,328.000,88.870,23.470,1150.000,179.800,31.870,5.568,107.100,30.920,4.351,1.053,360.300,102.500,24.360,8.715,easy
1514.000,326.300,87.930,23.500,1142.000,181.000,31.950,5.541,106.000,30.780,4.325,1.046,359.300,102.100,24.450,8.684,easy
1512.000,326.200,87.910,23.370,1144.000,179.800,31.930,5.539,105.600,30.850,4.359,1.044,358.600,102.100,24.430,8.693,easy
1513.000,326.900,87.950,23.430,1147.000,180.100,32.010,5.525,106.000,30.910,4.355,1.050,359.200,102.200,24.420,8.718,easy
1513.000,326.000,88.290,23.520,1147.000,180.500,32.000,5.553,106.800,30.840,4.338,1.049,359.800,102.300,24.410,8.716,easy
1516.000,327.100,88.380,23.570,1144.000,180.000,31.980,5.583,106.700,30.540,4.344,1.046,359.400,102.500,24.390,8.766,easy
1521.000,329.300,88.630,23.650,1152.000,180.100,32.140,5.553,106.200,30.770,4.323,1.056,361.800,102.500,24.530,8.769,easy
1525.000,326.400,89.160,23.800,1153.000,181.100,32.160,5.581,107.100,30.800,4.350,1.041,362.300,103.000,24.590,8.793,easy
1528.000,331.100,88.950,23.840,1153.000,180.500,32.220,5.625,105.500,30.660,4.337,1.050,360.600,103.100,24.540,8.845,easy
1534.000,329.900,89.840,23.840,1157.000,181.400,32.180,5.627,106.100,30.770,4.345,1.046,362.700,103.600,24.610,8.843,easy
1525.000,328.300,88.880,23.580,1149.000,180.900,32.080,5.601,107.800,30.960,4.354,1.052,360.500,102.700,24.390,8.761,easy
1516.000,326.700,88.520,23.520,1144.000,181.000,32.160,5.588,107.100,30.800,4.306,1.038,359.900,102.600,24.450,8.705,easy
1513.000,324.600,88.360,23.410,1143.000,180.300,32.100,5.554,106.600,30.920,4.318,1.038,358.500,102.400,24.470,8.730,easy
1514.000,324.800,88.370,23.430,1147.000,180.300,32.060,5.574,105.900,30.510,4.333,1.053,359.600,102.200,24.350,8.753,easy
1514.000,325.500,88.420,23.540,1147.000,180.000,32.020,5.568,107.000,31.030,4.334,1.037,359.600,102.300,24.290,8.734,easy
1516.000,327.300,88.100,23.550,1147.000,180.100,31.870,5.533,105.700,30.740,4.301,1.036,360.400,102.600,24.430,8.763,easy
1521.000,326.600,88.590,23.620,1147.000,180.400,32.090,5.601,105.300,30.900,4.332,1.045,360.500,102.700,24.540,8.764,easy
1524.000,327.400,88.890,23.770,1150.000,180.100,32.050,5.573,106.600,30.740,4.313,1.048,361.700,103.100,24.560,8.805,easy
1526.000,329.100,89.260,23.900,1151.000,181.000,32.110,5.578,105.900,31.030,4.314,1.046,361.500,103.400,24.620,8.845,easy
1530.000,329.700,88.660,23.710,1149.000,180.200,32.110,5.561,107.900,31.050,4.370,1.046,361.400,102.800,24.460,8.753,easy
1514.000,325.700,88.610,23.460,1149.000,179.600,31.830,5.550,106.500,30.930,4.359,1.045,359.400,102.400,24.410,8.679,easy
1510.000,325.000,87.370,23.410,1145.000,180.100,31.750,5.535,105.900,30.850,4.335,1.038,358.200,102.300,24.390,8.678,easy
1509.000,325.400,88.220,23.340,1147.000,180.000,31.880,5.562,106.600,30.740,4.292,1.040,358.100,101.800,24.360,8.671,easy
1509.000,325.400,88.550,23.440,1145.000,180.100,31.820,5.554,104.100,30.490,4.341,1.039,358.700,102.200,24.310,8.673,easy
1510.000,323.500,88.040,23.460,1146.000,180.000,31.850,5.574,105.900,30.710,4.320,1.042,358.600,102.500,24.370,8.701,easy
1513.000,325.500,88.240,23.550,1141.000,179.800,31.940,5.575,105.700,30.520,4.330,1.043,359.200,102.600,24.530,8.727,easy
1516.000,327.300,88.550,23.590,1146.000,179.700,32.160,5.559,108.600,30.620,4.349,1.033,360.200,102.800,24.530,8.776,easy
1519.000,328.400,88.480,23.660,1149.000,179.900,32.010,5.562,105.300,30.520,4.338,1.041,360.900,102.800,24.590,8.775,easy
1523.000,327.600,89.130,23.710,1152.000,180.800,32.070,5.591,107.400,30.390,4.288,1.047,362.300,102.700,24.610,8.805,easy
1527.000,328.900,88.780,23.840,1148.000,180.700,32.010,5.626,105.400,30.860,4.331,1.047,361.700,103.100,24.640,8.847,easy
1533.000,329.600,89.410,23.840,1149.000,180.900,32.230,5.572,107.100,30.670,4.312,1.055,362.800,103.600,24.750,8.916,easy
1537.000,331.900,89.320,23.980,1153.000,181.100,32.220,5.619,107.700,30.500,4.342,1.049,363.100,104.000,24.810,8.921,easy
1530.000,328.000,88.820,23.570,1148.000,180.300,31.920,5.587,108.800,30.940,4.334,1.048,361.600,102.800,24.460,8.773,easy
1516.000,324.500,88.030,23.480,1146.000,179.700,31.910,5.553,105.300,30.700,4.329,1.046,359.900,102.500,24.450,8.732,easy
1511.000,325.100,87.880,23.470,1144.000,179.500,32.080,5.568,105.700,30.560,4.366,1.034,360.700,102.200,24.340,8.674,easy
1511.000,324.300,88.310,23.550,1145.000,179.800,31.970,5.554,104.700,30.750,4.297,1.044,359.800,102.400,24.410,8.714,easy
1510.000,325.400,87.990,23.530,1144.000,179.100,31.990,5.543,106.300,30.510,4.320,1.042,358.500,102.400,24.420,8.673,easy
1511.000,325.600,88.460,23.550,1144.000,179.800,32.030,5.529,106.100,30.550,4.330,1.036,358.900,102.700,24.370,8.725,easy
1514.000,326.700,87.800,23.610,1145.000,179.600,32.000,5.538,106.700,30.800,4.316,1.041,360.300,102.500,24.570,8.755,easy
1517.000,327.200,88.750,23.660,1144.000,179.900,31.990,5.572,105.900,30.880,4.327,1.045,360.500,103.000,24.600,8.794,easy
1520.000,327.200,88.600,23.650,1152.000,179.900,32.170,5.588,105.100,30.730,4.330,1.041,361.200,102.900,24.650,8.785,easy
1525.000,330.000,88.870,23.660,1144.000,179.800,32.100,5.535,106.800,31.050,4.345,1.049,361.800,103.200,24.580,8.852,easy
1528.000,329.100,89.390,23.870,1150.000,180.800,31.940,5.586,104.600,30.640,4.332,1.050,362.600,103.600,24.770,8.877,easy
1533.000,330.000,89.570,23.990,1150.000,181.100,32.100,5.569,105.000,30.540,4.337,1.044,363.800,103.700,24.710,8.802,easy
1520.000,326.800,88.740,23.590,1140.000,179.500,31.890,5.587,107.800,30.760,4.341,1.043,361.500,102.800,24.510,8.745,easy
1515.000,326.200,88.390,23.540,1144.000,180.800,31.890,5.545,105.000,30.730,4.361,1.042,361.300,102.900,24.450,8.713,easy
1512.000,324.600,88.420,23.470,1144.000,179.700,32.010,5.569,105.900,30.780,4.324,1.037,359.900,102.600,24.430,8.708,easy
1512.000,325.700,88.300,23.560,1143.000,180.100,31.940,5.526,105.500,30.630,4.324,1.046,360.100,102.400,24.500,8.739,easy
1515.000,328.600,88.260,23.540,1148.000,179.300,31.870,5.519,106.100,30.810,4.322,1.039,359.300,102.600,24.540,8.731,easy
1517.000,326.600,88.460,23.530,1145.000,179.700,31.940,5.536,106.100,30.440,4.318,1.040,360.900,103.100,24.580,8.777,easy
1520.000,327.400,88.690,23.770,1146.000,179.700,31.960,5.581,105.700,30.550,4.273,1.036,362.000,103.200,24.490,8.804,easy
1523.000,327.400,88.620,23.760,1149.000,180.200,32.100,5.548,105.300,30.530,4.323,1.043,362.800,103.200,24.660,8.828,easy
1527.000,330.100,89.160,23.810,1146.000,179.300,32.230,5.549,104.700,30.460,4.290,1.047,362.000,103.400,24.800,8.857,easy
1531.000,331.500,89.230,23.870,1148.000,180.300,32.030,5.596,105.700,30.920,4.312,1.034,364.100,103.600,24.720,8.883,easy
1536.000,329.700,90.170,23.960,1151.000,180.900,32.100,5.597,105.200,30.670,4.304,1.039,364.700,104.200,24.770,8.909,easy
1537.000,331.300,89.670,23.800,1150.000,180.100,31.990,5.562,105.400,31.050,4.332,1.055,364.000,103.400,24.590,8.814,easy
1519.000,328.000,88.750,23.620,1145.000,179.400,31.960,5.552,106.600,30.510,4.333,1.043,360.700,102.800,24.580,8.774,easy
1515.000,326.300,88.290,23.490,1144.000,181.000,32.020,5.541,104.800,30.660,4.301,1.037,360.800,102.900,24.490,8.736,easy
1514.000,324.500,87.960,23.570,1142.000,179.800,31.770,5.554,106.100,30.990,4.274,1.041,360.600,102.700,24.550,8.718,easy
1512.000,323.200,88.000,23.520,1148.000,179.600,31.900,5.539,105.500,30.930,4.339,1.040,361.600,102.600,24.530,8.738,easy
1515.000,326.500,88.590,23.520,1140.000,179.500,31.950,5.561,106.000,30.620,4.314,1.038,361.900,103.100,24.500,8.759,easy
1516.000,326.900,88.280,23.650,1146.000,179.100,31.790,5.532,105.200,30.620,4.287,1.043,362.300,103.200,24.660,8.756,easy
1520.000,327.300,88.510,23.690,1146.000,179.700,31.900,5.522,105.300,30.680,4.316,1.037,362.900,103.400,24.640,8.795,easy
1523.000,329.000,88.360,23.810,1140.000,179.800,31.960,5.539,106.800,30.680,4.325,1.045,362.900,103.300,24.630,8.833,easy
1527.000,329.700,89.100,23.800,1148.000,179.900,31.960,5.546,106.600,30.760,4.306,1.039,363.700,103.600,24.700,8.863,easy
1530.000,329.400,89.480,23.880,1150.000,180.400,31.980,5.599,105.300,30.530,4.309,1.035,364.600,103.800,24.810,8.886,easy
1535.000,330.400,89.540,23.860,1145.000,179.700,31.980,5.557,104.800,30.870,4.337,1.043,365.900,103.700,24.780,8.856,easy
1519.000,328.200,88.340,23.510,1145.000,178.800,31.690,5.535,106.100,30.890,4.321,1.038,362.500,103.400,24.620,8.780,easy
1515.000,325.900,88.190,23.450,1138.000,179.900,31.890,5.537,105.500,30.810,4.284,1.038,362.100,103.000,24.570,8.750,easy
1509.000,325.100,88.020,23.570,1143.000,179.500,31.740,5.508,106.500,30.780,4.293,1.033,360.000,102.800,24.520,8.714,easy
1510.000,325.000,87.720,23.490,1138.000,178.300,31.740,5.500,106.100,30.490,4.304,1.039,361.400,103.000,24.490,8.713,easy
1510.000,324.300,87.350,23.550,1144.000,179.100,31.780,5.517,107.300,30.270,4.291,1.028,361.300,102.900,24.490,8.751,easy
1513.000,326.800,88.330,23.550,1142.000,179.300,31.790,5.549,104.800,30.370,4.299,1.037,361.800,102.800,24.530,8.778,easy
1516.000,326.900,87.910,23.610,1144.000,179.300,31.860,5.498,105.900,30.540,4.311,1.038,362.100,103.000,24.590,8.781,easy
1519.000,326.600,88.560,23.710,1141.000,179.400,31.940,5.554,105.700,30.640,4.295,1.040,363.800,103.400,24.690,8.775,easy
1522.000,328.300,88.390,23.650,1144.000,179.200,32.100,5.564,105.700,30.610,4.306,1.036,362.900,103.800,24.770,8.815,easy
1525.000,330.700,89.200,23.860,1143.000,179.900,31.880,5.528,106.500,30.680,4.311,1.033,364.000,103.800,24.870,8.853,easy
1530.000,330.400,89.150,23.880,1147.000,180.300,32.000,5.572,105.300,30.870,4.302,1.041,365.000,104.200,24.850,8.946,easy
1535.000,330.600,88.960,23.800,1147.000,179.200,31.950,5.524,106.500,30.470,4.301,1.042,365.400,104.000,24.850,8.870,easy
1519.000,326.400,88.590,23.560,1142.000,178.700,31.670,5.522,105.400,30.960,4.311,1.045,362.500,103.000,24.610,8.773,easy
1514.000,326.400,88.230,23.510,1142.000,179.400,31.660,5.521,106.200,30.740,4.285,1.031,362.500,103.100,24.490,8.745,easy
1511.000,324.100,88.230,23.580,1141.000,179.300,31.730,5.522,105.300,30.520,4.286,1.028,362.000,103.100,24.650,8.778,easy
1513.000,325.200,88.060,23.560,1139.000,179.400,31.720,5.487,107.800,30.490,4.286,1.042,362.300,103.000,24.530,8.742,easy
1513.000,326.400,88.360,23.530,1142.000,179.300,31.680,5.490,106.000,30.830,4.299,1.037,362.100,102.700,24.620,8.759,easy
1516.000,325.400,88.110,23.630,1143.000,179.600,31.770,5.513,105.300,30.750,4.307,1.043,363.300,103.400,24.610,8.795,easy
1519.000,327.000,88.470,23.680,1140.000,178.700,31.980,5.509,106.000,30.530,4.297,1.031,363.600,103.700,24.800,8.840,easy
1522.000,328.200,88.810,23.720,1140.000,179.700,31.950,5.525,106.100,30.460,4.299,1.040,363.500,103.300,24.740,8.866,easy
1524.000,329.200,88.850,23.880,1147.000,178.400,31.710,5.525,107.100,30.410,4.303,1.037,365.100,104.200,24.790,8.852,easy
1529.000,328.300,88.800,23.870,1146.000,179.000,31.810,5.541,107.200,30.520,4.300,1.037,364.600,103.900,24.910,8.891,easy
1534.000,330.400,89.680,23.880,1147.000,179.900,31.820,5.547,104.800,30.730,4.323,1.034,365.400,104.100,24.790,8.878,easy
1520.000,327.700,88.960,23.670,1143.000,179.500,31.700,5.563,106.300,30.670,4.316,1.036,363.400,103.200,24.680,8.775,easy
1515.000,325.800,88.220,23.480,1140.000,179.400,31.670,5.515,105.900,30.610,4.309,1.043,363.000,102.700,24.600,8.781,easy
1511.000,325.000,87.760,23.530,1140.000,178.900,31.610,5.510,106.300,30.320,4.294,1.035,362.800,102.900,24.540,8.750,easy
1511.000,324.500,88.110,23.510,1135.000,178.900,31.520,5.506,106.500,30.620,4.277,1.032,362.200,103.300,24.520,8.746,easy
1511.000,325.800,87.730,23.500,1138.000,178.100,31.570,5.504,106.800,30.540,4.275,1.032,362.700,103.200,24.660,8.742,easy
1513.000,326.400,88.530,23.690,1140.000,178.900,31.760,5.468,107.200,30.650,4.287,1.027,363.400,103.500,24.640,8.774,easy
1517.000,325.500,88.060,23.760,1139.000,179.000,31.940,5.492,104.900,30.520,4.279,1.037,364.400,103.700,24.750,8.791,easy
1520.000,328.500,88.700,23.730,1142.000,179.100,31.770,5.479,105.000,30.550,4.307,1.029,364.200,103.500,24.830,8.819,easy
1524.000,327.600,88.900,23.870,1144.000,179.300,31.780,5.547,106.400,30.510,4.302,1.032,364.300,103.700,24.810,8.874,easy
1527.000,330.300,89.500,23.800,1142.000,179.900,31.930,5.574,107.700,30.520,4.292,1.042,365.500,104.000,24.810,8.931,easy
1532.000,328.800,89.270,24.040,1148.000,179.400,31.780,5.544,104.800,30.640,4.263,1.044,366.000,104.300,25.000,8.937,easy
1536.000,331.000,89.370,23.810,1146.000,179.900,31.730,5.501,105.800,30.560,4.285,1.048,365.000,104.000,24.720,8.862,easy
1520.000,328.300,88.780,23.650,1141.000,178.100,31.650,5.483,106.300,30.770,4.306,1.036,363.900,103.400,24.640,8.788,easy
1516.000,328.000,88.080,23.590,1136.000,179.000,31.690,5.505,103.900,30.410,4.261,1.041,363.300,103.200,24.450,8.752,easy
1510.000,325.200,87.990,23.540,1140.000,178.100,31.760,5.535,104.600,30.530,4.276,1.026,362.100,103.300,24.610,8.787,easy
1512.000,326.100,87.760,23.620,1137.000,178.500,31.830,5.493,106.300,30.460,4.299,1.034,362.600,103.000,24.540,8.726,easy
1513.000,326.400,88.080,23.600,1140.000,179.300,31.560,5.490,106.700,30.220,4.279,1.025,362.700,103.200,24.590,8.761,easy
1517.000,326.300,88.700,23.770,1136.000,179.700,31.630,5.497,106.000,30.460,4.277,1.033,362.500,103.500,24.710,8.791,easy
1519.000,330.100,88.690,23.790,1143.000,179.100,31.720,5.499,105.100,30.810,4.272,1.021,363.900,103.600,24.720,8.805,easy
1524.000,328.900,88.940,23.700,1144.000,179.300,31.700,5.520,104.700,30.490,4.275,1.025,363.400,103.800,24.740,8.816,easy
1526.000,329.800,89.190,23.970,1140.000,179.100,31.650,5.531,104.700,30.710,4.274,1.038,364.400,103.800,24.800,8.874,easy
1532.000,330.200,88.980,23.940,1144.000,179.000,31.800,5.510,104.500,30.820,4.279,1.034,365.800,104.000,24.880,8.881,easy
1536.000,330.200,89.930,24.100,1144.000,179.900,31.860,5.529,103.900,30.520,4.291,1.034,366.000,104.200,24.960,8.949,easy
1538.000,329.800,88.940,23.830,1139.000,179.700,31.810,5.514,106.200,30.410,4.332,1.041,364.000,103.700,24.770,8.833,easy
1523.000,329.000,89.170,23.720,1141.000,179.000,31.770,5.516,106.100,30.630,4.304,1.035,363.000,103.700,24.650,8.778,easy
1520.000,327.500,88.610,23.790,1143.000,179.000,31.700,5.479,104.900,30.640,4.278,1.042,362.100,103.100,24.630,8.764,easy
1520.000,327.400,88.550,23.740,1141.000,179.500,31.590,5.497,105.900,30.360,4.314,1.030,361.600,103.500,24.710,8.757,easy
1520.000,328.300,88.910,23.720,1142.000,178.600,31.680,5.508,106.000,30.450,4.285,1.030,361.400,103.200,24.610,8.752,easy
1522.000,328.600,88.930,23.770,1141.000,179.100,31.850,5.492,105.400,30.450,4.288,1.029,363.000,103.300,24.740,8.810,easy
1526.000,328.700,89.080,23.830,1143.000,179.300,31.850,5.508,103.900,30.380,4.266,1.031,362.800,103.400,24.730,8.820,easy
1531.000,329.500,89.630,23.930,1140.000,179.400,31.960,5.508,102.000,30.340,4.308,1.035,363.800,103.800,24.690,8.849,easy
1534.000,330.600,89.700,24.020,1146.000,179.800,31.890,5.517,104.800,30.310,4.312,1.035,364.500,103.800,24.810,8.849,easy
1537.000,331.200,89.890,24.040,1148.000,179.600,31.820,5.564,106.300,30.530,4.295,1.044,365.300,103.800,24.820,8.891,easy
1543.000,333.600,90.090,24.160,1148.000,179.400,31.880,5.557,103.800,30.420,4.279,1.036,365.600,104.100,24.900,8.923,easy
1547.000,335.500,90.720,24.250,1151.000,180.100,31.830,5.517,106.500,30.520,4.274,1.040,366.400,104.500,24.930,8.899,easy
1535.000,330.900,89.020,23.940,1146.000,180.000,31.850,5.519,106.800,30.510,4.290,1.036,363.200,103.700,24.730,8.822,easy
1530.000,329.100,89.700,23.820,1140.000,179.800,31.660,5.510,105.200,30.150,4.264,1.040,362.500,103.200,24.580,8.769,easy
1527.000,328.400,89.340,23.770,1145.000,179.600,31.760,5.492,104.900,30.150,4.289,1.037,362.800,103.200,24.680,8.777,easy
1527.000,328.100,89.710,23.920,1145.000,179.100,31.650,5.499,106.200,30.250,4.257,1.035,361.600,102.900,24.590,8.774,easy
1527.000,329.300,88.820,23.860,1148.000,179.400,31.810,5.552,104.700,30.200,4.272,1.038,363.300,103.000,24.780,8.787,easy
1532.000,330.300,89.440,23.980,1148.000,179.000,31.890,5.517,104.200,30.340,4.279,1.031,362.600,103.200,24.660,8.806,easy
1536.000,330.200,89.460,24.060,1143.000,179.700,31.780,5.521,103.700,30.070,4.239,1.040,362.800,103.600,24.800,8.821,easy
1539.000,331.600,90.050,24.150,1146.000,179.700,31.960,5.521,105.000,30.310,4.273,1.039,364.300,104.000,24.820,8.843,easy
1542.000,332.200,90.050,24.210,1149.000,179.900,31.810,5.541,104.700,30.500,4.259,1.027,363.800,104.100,24.890,8.888,easy
1546.000,333.900,90.610,24.210,1143.000,179.800,32.070,5.544,103.900,30.430,4.269,1.034,365.400,104.000,24.980,8.952,easy
1551.000,334.800,90.710,24.380,1147.000,180.200,31.850,5.551,104.000,30.380,4.245,1.037,365.900,104.100,24.970,8.927,easy
1541.000,332.400,90.240,23.960,1145.000,180.400,31.820,5.498,104.300,30.560,4.269,1.031,363.600,103.300,24.720,8.784,easy
1536.000,331.200,90.090,23.960,1142.000,179.800,31.750,5.515,105.600,30.330,4.263,1.041,362.300,103.300,24.660,8.786,easy
1531.000,330.500,89.430,23.920,1145.000,180.200,31.910,5.513,105.000,30.380,4.296,1.028,361.500,102.800,24.620,8.777,easy
1532.000,328.700,89.050,23.960,1146.000,179.300,31.790,5.501,104.800,30.210,4.274,1.027,361.400,103.000,24.580,8.790,easy
1533.000,330.700,89.580,23.960,1145.000,180.000,31.870,5.511,105.800,30.350,4.248,1.030,361.700,102.700,24.690,8.825,easy
1535.000,330.400,89.760,23.990,1144.000,179.200,31.810,5.481,106.200,30.600,4.276,1.031,362.500,103.200,24.670,8.779,easy
1538.000,331.000,90.130,24.030,1150.000,180.000,31.840,5.520,105.700,30.230,4.290,1.033,363.000,103.700,24.710,8.839,easy
1541.000,331.800,89.960,24.100,1147.000,179.700,31.960,5.507,104.200,30.030,4.249,1.038,362.700,103.600,24.780,8.876,easy
1544.000,333.800,89.890,24.110,1142.000,179.000,31.970,5.483,103.600,30.260,4.237,1.035,363.400,103.900,24.850,8.917,easy
1549.000,334.000,90.550,24.190,1149.000,180.000,31.990,5.533,105.200,30.290,4.282,1.023,365.200,104.000,24.880,8.915,easy
1553.000,335.300,90.070,24.410,1151.000,179.800,31.990,5.541,105.700,30.350,4.257,1.037,364.600,104.200,25.000,8.951,easy
1551.000,333.000,90.560,24.160,1146.000,179.500,31.920,5.535,105.800,30.380,4.279,1.035,362.900,103.500,24.840,8.856,easy
1537.000,331.100,89.580,23.990,1145.000,179.500,31.860,5.501,104.000,30.490,4.248,1.034,363.000,103.300,24.700,8.828,easy
1536.000,330.100,89.970,23.890,1144.000,179.100,31.780,5.523,104.100,30.490,4.256,1.031,361.900,103.000,24.670,8.788,easy
1536.000,329.900,89.520,23.980,1143.000,179.900,31.910,5.531,103.600,30.340,4.248,1.033,361.800,103.200,24.750,8.790,easy
1535.000,330.300,89.660,23.970,1141.000,179.200,31.760,5.488,105.000,30.020,4.231,1.035,362.100,103.100,24.690,8.794,easy
1538.000,331.000,90.080,24.030,1140.000,179.000,31.900,5.542,104.400,30.090,4.259,1.026,362.500,103.400,24.620,8.823,easy
1541.000,332.800,89.630,24.090,1148.000,179.900,31.770,5.535,104.100,30.550,4.247,1.034,364.000,103.200,24.730,8.822,easy
1544.000,332.600,89.850,24.200,1149.000,179.900,31.810,5.532,105.100,30.380,4.270,1.031,363.900,103.600,24.770,8.873,easy
1548.000,333.400,90.290,24.210,1147.000,179.800,31.760,5.521,103.900,30.100,4.261,1.033,363.300,103.800,24.810,8.919,easy
1550.000,335.000,89.990,24.060,1144.000,180.400,31.930,5.505,104.700,30.600,4.264,1.036,363.800,103.300,24.710,8.825,easy
1537.000,333.500,89.450,23.970,1144.000,179.000,31.700,5.490,105.300,30.360,4.281,1.032,361.700,103.200,24.630,8.757,easy
1534.000,331.000,89.600,23.930,1142.000,179.100,31.720,5.494,104.900,30.380,4.247,1.034,361.100,103.100,24.540,8.778,easy
1532.000,328.300,89.750,24.000,1141.000,179.100,31.630,5.490,105.600,30.380,4.197,1.031,361.600,102.900,24.570,8.788,easy
1533.000,330.500,89.620,23.910,1145.000,178.800,31.830,5.497,105.700,30.270,4.285,1.030,360.800,103.300,24.500,8.750,easy
1536.000,330.500,89.320,23.980,1141.000,179.300,31.540,5.499,104.400,30.190,4.259,1.025,361.700,103.000,24.710,8.799,easy
1538.000,330.200,90.070,24.010,1141.000,179.300,31.710,5.487,103.500,30.190,4.246,1.028,361.900,103.000,24.660,8.811,easy
1541.000,333.900,89.920,24.020,1148.000,179.600,31.600,5.491,103.800,30.040,4.228,1.030,362.900,103.400,24.650,8.838,easy
1543.000,333.100,90.340,24.110,1142.000,180.300,31.800,5.479,106.800,30.110,4.278,1.031,363.700,103.500,24.680,8.883,easy
1547.000,334.500,90.060,24.240,1148.000,179.700,31.800,5.464,102.900,30.070,4.250,1.028,364.700,103.500,24.810,8.886,easy
1550.000,336.500,90.050,24.170,1143.000,179.400,31.840,5.474,106.600,30.300,4.266,1.040,363.100,103.800,24.560,8.784,easy
1534.000,330.200,88.690,23.940,1145.000,179.800,31.780,5.473,104.700,30.320,4.210,1.017,362.300,103.000,24.530,8.747,easy
1529.000,329.600,89.080,23.800,1140.000,178.400,31.670,5.436,104.100,30.230,4.249,1.026,361.200,102.600,24.490,8.715,easy
1526.000,329.000,89.130,23.870,1141.000,179.400,31.610,5.482,104.500,30.390,4.217,1.021,360.900,102.500,24.440,8.739,easy
1527.000,328.900,89.200,23.790,1141.000,178.700,31.400,5.463,104.900,30.300,4.255,1.025,360.500,102.500,24.510,8.705,easy
1528.000,328.300,89.180,23.890,1141.000,178.800,31.530,5.464,103.800,29.820,4.220,1.026,361.100,102.700,24.470,8.767,easy
1530.000,329.800,89.500,23.810,1136.000,178.700,31.670,5.479,104.400,30.070,4.248,1.031,361.400,103.100,24.480,8.727,easy
1533.000,331.300,89.740,23.950,1143.000,180.100,31.450,5.447,102.000,30.130,4.249,1.020,361.600,102.900,24.620,8.768,easy
1536.000,329.900,89.650,24.060,1138.000,179.200,31.690,5.447,103.000,30.050,4.265,1.035,363.000,103.200,24.640,8.800,easy
1540.000,331.200,89.920,24.030,1143.000,178.900,31.680,5.479,104.500,30.320,4.256,1.028,363.200,103.500,24.720,8.848,easy
1544.000,334.300,90.180,24.230,1143.000,179.500,31.800,5.513,104.600,30.150,4.245,1.037,363.600,103.500,24.790,8.865,easy
1545.000,332.400,89.600,23.980,1142.000,179.000,31.610,5.455,104.700,30.420,4.246,1.037,363.200,103.100,24.690,8.776,easy
1529.000,327.800,89.150,23.810,1141.000,178.700,31.510,5.464,106.100,30.180,4.235,1.017,360.800,102.800,24.490,8.701,easy
1526.000,328.800,88.660,23.690,1139.000,179.300,31.640,5.463,105.200,30.210,4.225,1.020,360.400,102.100,24.290,8.696,easy
1522.000,328.600,88.590,23.660,1138.000,178.500,31.420,5.459,103.300,30.150,4.205,1.021,359.200,102.300,24.470,8.700,easy
1523.000,326.900,88.740,23.700,1140.000,177.800,31.340,5.472,103.200,29.990,4.227,1.021,359.400,102.300,24.320,8.689,easy
1524.000,328.600,88.780,23.690,1140.000,178.500,31.370,5.452,103.600,30.080,4.246,1.026,360.200,102.600,24.350,8.705,easy
1527.000,330.300,89.300,23.720,1139.000,178.500,31.480,5.468,102.300,30.140,4.249,1.014,361.100,102.700,24.440,8.734,easy
1530.000,329.300,89.190,23.870,1138.000,178.800,31.510,5.444,105.700,30.200,4.217,1.030,361.000,102.900,24.510,8.722,easy
1531.000,329.300,89.020,23.880,1141.000,177.900,31.730,5.496,102.800,29.670,4.201,1.030,362.100,102.700,24.520,8.760,easy
1535.000,331.100,89.710,23.910,1144.000,178.600,31.670,5.459,104.900,30.130,4.252,1.027,362.800,103.000,24.560,8.803,easy
1539.000,332.100,89.950,24.050,1144.000,178.600,31.520,5.487,103.600,29.980,4.221,1.027,364.600,103.100,24.680,8.810,easy
1544.000,332.200,90.520,24.170,1141.000,179.100,31.610,5.500,104.300,30.060,4.233,1.024,364.700,103.200,24.730,8.814,easy
1535.000,330.400,88.910,23.820,1138.000,179.000,31.440,5.450,104.200,30.020,4.249,1.023,362.900,102.600,24.560,8.752,easy
1527.000,329.800,88.350,23.690,1141.000,179.000,31.460,5.467,104.800,30.150,4.233,1.020,361.800,102.900,24.380,8.651,easy
1521.000,325.600,88.140,23.590,1136.000,178.100,31.300,5.482,104.500,30.230,4.276,1.025,361.000,102.400,24.350,8.687,easy
1523.000,329.000,88.440,23.650,1145.000,178.700,31.430,5.449,105.700,30.100,4.235,1.024,360.200,102.300,24.320,8.664,easy
1521.000,328.800,88.510,23.680,1142.000,178.500,31.390,5.440,105.300,30.310,4.214,1.026,360.100,102.200,24.330,8.680,easy
1537.000,330.900,88.900,23.820,1137.000,178.300,31.360,5.445,104.900,30.290,4.245,1.024,362.300,102.600,24.480,8.720,bogus
1525.000,329.200,88.410,23.690,1137.000,178.200,31.410,5.430,104.600,30.230,4.228,1.023,361.200,102.400,24.350,8.682,bogus
1520.000,327.400,88.430,23.620,1138.000,177.900,31.430,5.447,103.600,30.140,4.235,1.021,360.100,102.300,24.350,8.665,bogus
1521.000,327.900,88.380,23.660,1140.000,177.700,31.410,5.458,105.100,30.160,4.232,1.025,360.100,101.900,24.370,8.661,bogus
1518.000,327.300,87.960,23.580,1136.000,177.900,31.440,5.441,105.300,30.060,4.221,1.023,359.600,102.300,24.290,8.658,bogus
1491.000,321.800,87.380,23.210,1130.000,176.800,31.410,5.397,103.200,29.640,4.175,1.003,352.300,100.600,24.050,8.600,hard
1491.000,322.300,87.270,23.230,1135.000,177.000,31.310,5.395,104.000,29.890,4.175,1.008,352.400,100.400,24.070,8.573,hard
1494.000,322.500,86.890,23.360,1130.000,177.200,31.250,5.385,103.900,29.500,4.170,1.002,353.800,100.800,24.180,8.636,hard
1497.000,322.800,87.120,23.430,1137.000,177.600,31.370,5.443,101.500,29.740,4.186,1.005,354.300,101.000,24.130,8.650,hard
1503.000,325.900,87.820,23.470,1136.000,177.500,31.520,5.440,104.400,29.830,4.194,1.012,355.100,101.100,24.230,8.698,hard
1507.000,325.900,88.060,23.500,1138.000,177.400,31.650,5.424,103.900,30.000,4.175,1.016,355.800,101.300,24.320,8.692,hard
1509.000,325.500,87.830,23.300,1141.000,176.500,31.250,5.373,103.700,30.160,4.202,1.018,354.100,100.600,24.020,8.614,hard
1489.000,322.400,86.660,23.230,1135.000,176.900,31.100,5.377,103.600,29.940,4.197,1.015,351.900,100.300,23.930,8.557,hard
1484.000,318.500,86.350,23.080,1128.000,176.900,31.180,5.388,103.900,29.850,4.188,1.011,351.500,100.400,23.920,8.514,hard
1483.000,321.800,86.600,23.100,1134.000,177.100,31.130,5.402,105.300,29.790,4.196,1.006,351.500,99.990,23.830,8.555,hard
1484.000,321.800,86.730,23.060,1134.000,176.200,31.130,5.387,102.900,30.000,4.180,1.007,352.400,100.200,23.830,8.559,hard
1485.000,320.600,86.790,23.110,1131.000,176.800,31.270,5.406,104.300,29.720,4.198,0.999,352.500,100.000,23.950,8.584,hard
1489.000,321.100,87.050,23.280,1134.000,175.900,31.180,5.372,104.600,29.490,4.205,1.000,353.800,100.500,24.020,8.580,hard
1494.000,321.800,87.420,23.390,1134.000,176.000,31.360,5.394,103.100,29.780,4.176,1.008,354.500,100.500,24.130,8.594,hard
1498.000,322.800,87.390,23.400,1135.000,176.700,31.430,5.432,104.400,29.970,4.184,1.005,354.200,100.900,24.100,8.667,hard
1501.000,323.500,87.460,23.350,1133.000,176.400,31.410,5.424,105.300,29.980,4.176,1.013,353.200,100.200,23.950,8.551,hard
1481.000,319.500,86.110,23.000,1131.000,176.400,31.320,5.388,103.200,29.670,4.196,1.005,351.400,100.000,23.800,8.496,hard
1478.000,320.000,85.990,23.030,1128.000,176.000,31.190,5.396,103.200,29.720,4.166,1.010,350.400,99.610,23.880,8.488,hard
1477.000,318.300,86.240,22.970,1132.000,176.600,31.100,5.403,102.500,29.700,4.172,1.008,350.700,99.770,23.780,8.464,hard
1476.000,318.400,86.130,22.960,1128.000,176.600,31.150,5.357,105.300,29.720,4.163,1.003,351.600,99.620,23.700,8.490,hard
1478.000,320.700,86.690,23.030,1133.000,176.200,30.970,5.400,104.000,29.690,4.174,1.005,351.000,99.650,23.760,8.483,hard
1482.000,320.900,86.150,23.080,1123.000,175.400,31.280,5.400,102.100,29.770,4.161,1.006,349.500,99.850,23.920,8.531,hard
1485.000,320.800,86.630,23.120,1127.000,176.300,31.190,5.393,104.000,29.720,4.154,1.009,351.800,100.500,23.910,8.561,hard
1489.000,322.200,86.940,23.200,1130.000,176.300,31.290,5.416,102.700,29.800,4.198,1.003,352.900,100.100,23.950,8.558,hard
1488.000,320.200,86.470,23.010,1129.000,175.100,31.220,5.328,102.500,29.870,4.183,1.007,350.900,99.870,23.820,8.473,hard
1470.000,316.800,85.530,22.860,1129.000,175.800,31.160,5.350,102.100,29.650,4.158,0.997,349.800,99.260,23.590,8.448,hard
1468.000,317.300,85.170,22.780,1123.000,175.800,31.160,5.332,104.400,29.770,4.186,0.996,348.900,99.280,23.590,8.428,hard
1469.000,316.900,85.380,22.820,1127.000,175.300,31.170,5.363,103.000,29.790,4.172,1.006,349.200,99.160,23.630,8.413,hard
1467.000,316.100,84.860,22.750,1124.000,174.600,30.990,5.386,102.200,29.820,4.125,1.002,348.500,99.460,23.560,8.444,hard
1469.000,317.000,85.660,22.850,1126.000,175.200,31.130,5.371,103.200,29.630,4.144,0.997,348.600,99.090,23.690,8.454,hard
1473.000,317.300,85.800,22.780,1125.000,175.500,31.250,5.381,100.400,29.540,4.158,1.002,349.800,99.640,23.680,8.487,hard
1476.000,319.000,86.380,22.970,1131.000,175.800,31.070,5.354,103.500,29.990,4.147,1.001,349.800,99.420,23.700,8.507,hard
1480.000,319.200,86.330,23.000,1129.000,176.100,31.010,5.404,103.300,29.470,4.142,1.005,350.800,99.810,23.840,8.531,hard
1484.000,319.900,86.710,23.010,1128.000,175.900,31.370,5.402,104.000,29.560,4.190,0.999,352.300,100.000,23.880,8.541,hard
1485.000,319.400,86.000,22.920,1127.000,175.600,30.970,5.403,102.300,29.880,4.176,1.016,348.800,99.230,23.580,8.456,hard
1464.000,314.400,84.950,22.600,1123.000,174.900,30.960,5.346,103.500,29.670,4.158,1.003,347.600,98.740,23.540,8.340,hard
1457.000,314.400,85.160,22.580,1119.000,175.000,30.950,5.335,102.500,29.500,4.175,0.999,346.500,98.290,23.340,8.357,hard
1457.000,315.300,84.680,22.630,1123.000,175.200,30.960,5.358,103.500,29.370,4.147,1.004,346.900,98.480,23.430,8.333,hard
1455.000,315.300,84.780,22.500,1125.000,175.300,30.960,5.339,104.300,29.790,4.124,0.997,347.100,98.340,23.420,8.346,hard
1458.000,314.500,85.050,22.610,1119.000,175.000,31.030,5.362,103.200,29.510,4.150,0.994,346.700,98.600,23.470,8.375,hard
1461.000,317.400,85.350,22.660,1125.000,175.500,30.930,5.348,101.700,29.360,4.136,0.996,348.400,98.680,23.470,8.374,hard
1465.000,315.600,85.420,22.770,1123.000,174.800,30.980,5.392,102.000,29.810,4.121,1.000,347.800,98.740,23.460,8.401,hard
1467.000,316.900,85.270,22.660,1128.000,174.900,30.870,5.375,102.900,29.330,4.144,0.997,348.700,98.950,23.610,8.440,hard
1472.000,317.300,85.400,22.870,1128.000,175.800,31.100,5.389,104.600,29.310,4.123,1.010,350.600,98.870,23.680,8.461,hard
1477.000,318.100,86.180,22.860,1123.000,175.500,31.120,5.389,103.500,29.660,4.119,1.008,350.300,99.570,23.690,8.511,hard
1483.000,320.100,86.630,23.080,1128.000,176.100,31.210,5.368,103.500,29.650,4.163,0.996,351.000,99.840,23.790,8.546,hard
1488.000,321.900,87.010,23.150,1129.000,176.700,31.090,5.356,103.100,29.650,4.172,1.010,351.600,100.000,23.820,8.528,hard
1471.000,317.000,85.330,22.720,1126.000,175.500,31.060,5.338,103.200,29.680,4.205,1.005,349.200,98.900,23.590,8.350,hard
1460.000,314.500,84.820,22.620,1121.000,174.500,31.060,5.344,102.700,29.690,4.165,1.001,348.200,98.570,23.360,8.302,hard
1454.000,314.700,84.140,22.530,1121.000,174.900,30.880,5.357,104.300,29.680,4.175,0.999,346.300,98.500,23.350,8.304,hard
1456.000,314.400,84.610,22.480,1126.000,174.600,30.870,5.320,102.000,29.810,4.168,1.000,347.300,98.450,23.390,8.280,hard
1454.000,314.100,84.980,22.500,1126.000,175.000,30.870,5.378,103.200,30.040,4.174,1.001,347.300,98.470,23.350,8.333,hard
1456.000,315.500,85.410,22.620,1121.000,174.800,31.000,5.363,102.300,29.490,4.188,1.002,347.300,98.580,23.420,8.345,hard
1462.000,316.100,85.330,22.630,1122.000,175.300,31.080,5.375,102.500,29.770,4.151,0.997,348.800,98.750,23.420,8.346,hard
1464.000,315.600,85.460,22.750,1124.000,175.400,31.110,5.381,102.100,29.890,4.152,1.001,349.700,99.280,23.510,8.381,hard
1467.000,316.000,85.810,22.820,1127.000,175.400,31.030,5.372,103.400,29.500,4.167,1.010,350.900,99.050,23.500,8.410,hard
1471.000,319.100,86.200,22.870,1126.000,176.200,30.910,5.400,102.200,29.790,4.147,1.001,350.500,99.450,23.650,8.418,hard
1478.000,319.700,86.370,22.910,1128.000,175.600,31.180,5.399,102.900,29.560,4.194,0.996,351.400,99.650,23.770,8.496,hard
1482.000,319.100,86.500,23.030,1132.000,177.000,31.240,5.420,103.700,29.620,4.175,1.010,351.500,99.810,23.810,8.512,hard
1478.000,317.400,85.450,22.800,1125.000,175.700,31.080,5.336,104.700,29.680,4.178,1.008,350.200,98.660,23.570,8.360,hard
1462.000,314.900,84.770,22.680,1123.000,175.600,30.950,5.343,103.100,29.820,4.156,1.002,349.000,98.680,23.590,8.342,hard
1458.000,314.000,84.770,22.610,1126.000,175.700,31.020,5.333,102.400,29.500,4.173,1.004,347.600,98.530,23.370,8.316,hard
1460.000,315.200,84.980,22.560,1126.000,174.900,31.170,5.359,103.100,29.620,4.170,1.003,347.900,98.420,23.360,8.314,hard
1459.000,315.100,84.970,22.630,1126.000,176.000,30.920,5.366,103.700,29.480,4.139,1.003,347.700,98.340,23.340,8.345,hard
1461.000,315.500,85.340,22.620,1127.000,174.900,31.090,5.372,102.300,29.850,4.147,1.000,347.900,98.770,23.440,8.355,hard
1466.000,316.800,85.450,22.750,1125.000,175.200,30.980,5.356,102.200,29.840,4.164,0.998,348.800,98.710,23.550,8.385,hard
1470.000,318.000,86.030,22.730,1126.000,176.100,31.130,5.384,104.900,29.440,4.148,1.004,349.400,99.140,23.540,8.415,hard
1474.000,319.900,86.260,22.860,1128.000,176.700,31.080,5.419,102.800,29.610,4.159,1.004,350.600,99.140,23.620,8.420,hard
1478.000,318.000,86.310,22.930,1134.000,176.300,31.410,5.387,104.600,29.810,4.157,1.004,350.900,99.950,23.780,8.471,hard
1484.000,319.600,86.380,23.100,1129.000,176.400,31.270,5.438,103.400,29.790,4.155,1.007,351.300,99.860,23.810,8.529,hard
1489.000,321.600,86.640,23.210,1135.000,176.000,31.240,5.427,104.000,29.600,4.178,1.007,353.000,100.100,23.780,8.500,hard
1483.000,320.900,85.750,22.800,1129.000,176.400,31.230,5.385,104.100,29.820,4.198,1.006,350.600,99.370,23.560,8.373,hard
1467.000,316.500,85.280,22.710,1130.000,176.400,31.150,5.362,103.500,29.630,4.173,1.002,347.400,98.950,23.410,8.366,hard
1462.000,315.200,85.460,22.660,1125.000,175.400,31.100,5.358,104.000,29.610,4.174,1.003,348.200,98.520,23.480,8.297,hard
1462.000,316.800,85.310,22.710,1126.000,175.700,31.110,5.353,103.200,29.720,4.167,1.003,347.600,98.690,23.370,8.302,hard
1462.000,315.100,84.800,22.640,1128.000,175.500,31.190,5.367,103.400,29.640,4.156,1.001,346.600,98.870,23.400,8.342,hard
1466.000,316.700,85.190,22.750,1129.000,175.700,31.060,5.416,103.300,29.470,4.173,1.005,348.400,99.080,23.490,8.369,hard
1470.000,315.900,85.340,22.780,1130.000,175.900,31.080,5.392,102.000,29.930,4.143,0.997,348.900,98.760,23.520,8.406,hard
1474.000,317.800,86.550,22.890,1125.000,176.300,31.090,5.382,102.500,29.710,4.144,0.999,348.800,99.250,23.580,8.417,hard
1477.000,319.300,85.630,22.920,1127.000,176.200,31.260,5.456,101.900,29.330,4.165,1.004,349.500,99.250,23.630,8.442,hard
1482.000,319.900,86.810,22.970,1133.000,176.400,31.220,5.433,102.100,29.740,4.144,1.003,350.600,99.520,23.630,8.481,hard
1489.000,322.100,87.210,23.080,1131.000,177.400,31.350,5.432,104.200,29.920,4.162,1.009,351.100,99.960,23.800,8.540,hard
1493.000,324.000,87.240,23.270,1138.000,177.400,31.430,5.412,103.500,29.700,4.187,1.008,352.300,100.100,23.830,8.535,hard
1493.000,320.900,86.630,22.930,1131.000,176.400,31.230,5.411,104.500,29.820,4.218,1.013,349.000,99.090,23.550,8.369,hard
1471.000,317.400,85.320,22.760,1124.000,176.400,31.230,5.382,101.900,29.820,4.179,0.996,347.700,98.860,23.490,8.367,hard
1468.000,316.700,85.690,22.710,1129.000,175.100,31.230,5.366,102.800,29.670,4.158,1.008,347.100,98.690,23.350,8.351,hard
1468.000,316.400,85.620,22.760,1129.000,175.300,31.220,5.381,103.100,29.500,4.172,0.995,348.000,98.850,23.420,8.360,hard
1467.000,317.200,85.370,22.720,1135.000,176.000,31.110,5.403,103.900,29.650,4.158,0.997,347.400,98.490,23.490,8.326,hard
1469.000,317.600,85.970,22.780,1128.000,175.800,31.250,5.397,103.800,29.630,4.172,0.997,348.700,98.800,23.390,8.359,hard
1473.000,317.500,86.220,22.850,1125.000,176.200,31.080,5.407,102.300,29.850,4.150,1.010,347.800,98.670,23.530,8.397,hard
1476.000,319.000,86.150,22.810,1132.000,175.800,31.220,5.423,101.500,29.650,4.171,1.005,348.900,99.460,23.570,8.437,hard
1480.000,318.700,86.420,22.970,1136.000,176.100,31.320,5.429,102.800,29.860,4.193,1.008,349.000,99.300,23.660,8.470,hard
1484.000,319.700,86.800,23.080,1131.000,177.100,31.250,5.402,104.500,29.920,4.166,1.006,350.200,99.630,23.620,8.453,hard
1489.000,321.400,86.820,23.240,1134.000,177.200,31.280,5.418,103.600,29.720,4.195,1.009,350.900,99.740,23.760,8.534,hard
1497.000,323.700,86.680,23.150,1128.000,176.800,31.350,5.423,102.500,29.940,4.213,1.008,350.400,99.690,23.690,8.436,hard
1473.000,318.500,86.100,22.820,1130.000,176.200,31.250,5.401,102.900,29.820,4.183,1.004,348.200,98.940,23.540,8.326,hard
1470.000,318.800,85.680,22.680,1130.000,175.800,31.220,5.356,104.100,29.580,4.171,1.002,347.300,98.810,23.400,8.352,hard
1469.000,316.100,85.600,22.740,1127.000,175.900,31.100,5.399,102.900,29.650,4.196,0.994,347.000,98.730,23.430,8.371,hard
1469.000,318.200,85.570,22.700,1126.000,175.500,31.260,5.378,102.600,29.590,4.126,1.005,346.300,98.420,23.310,8.331,hard
1469.000,317.500,85.370,22.870,1128.000,175.700,31.200,5.424,103.900,29.480,4.168,1.002,347.400,98.580,23.500,8.346,hard
1474.000,318.400,86.170,22.910,1133.000,176.500,31.150,5.427,102.500,29.760,4.149,0.999,348.300,99.070,23.560,8.362,hard
1478.000,319.000,86.330,22.990,1127.000,176.700,31.250,5.420,103.900,29.670,4.167,1.002,348.300,99.320,23.520,8.418,hard
1480.000,318.200,86.530,22.960,1129.000,176.200,31.260,5.417,102.300,29.490,4.199,0.998,348.000,99.310,23.550,8.443,hard
1484.000,320.200,86.810,23.120,1132.000,176.900,31.320,5.454,103.300,29.740,4.183,1.001,349.000,99.150,23.720,8.470,hard
1490.000,321.100,87.090,23.070,1130.000,177.100,31.360,5.448,105.700,29.640,4.142,1.002,348.700,99.800,23.730,8.535,hard
1495.000,323.100,87.150,23.310,1135.000,176.900,31.540,5.432,101.900,29.470,4.182,1.005,351.800,99.760,23.900,8.544,hard
1495.000,320.400,87.080,22.960,1132.000,176.400,31.390,5.407,103.100,29.890,4.197,1.013,348.900,98.900,23.610,8.404,hard
1471.000,318.200,85.840,22.760,1126.000,176.100,31.250,5.417,102.500,29.650,4.184,1.011,346.900,98.780,23.390,8.353,hard
1466.000,317.400,85.640,22.650,1128.000,176.000,31.210,5.376,103.600,29.670,4.165,0.999,345.800,98.280,23.280,8.335,hard
1465.000,316.600,85.240,22.740,1129.000,175.700,31.190,5.392,102.200,29.440,4.123,1.002,345.700,98.300,23.400,8.307,hard
1463.000,315.600,85.350,22.660,1127.000,174.900,31.030,5.400,103.000,29.850,4.151,0.996,345.500,97.770,23.330,8.298,hard
1465.000,316.300,85.160,22.670,1124.000,176.300,31.100,5.396,102.200,29.760,4.131,0.997,345.900,98.230,23.340,8.321,hard
1468.000,318.300,85.770,22.770,1128.000,175.600,31.040,5.401,103.700,29.750,4.167,1.005,347.600,98.470,23.440,8.378,hard
1470.000,318.700,85.500,22.860,1129.000,176.500,31.170,5.412,102.700,29.900,4.147,1.001,347.300,98.780,23.470,8.382,hard
1474.000,318.500,85.950,22.930,1127.000,175.500,31.260,5.420,102.300,29.990,4.153,1.004,348.100,99.140,23.530,8.376,hard
1478.000,318.600,86.520,23.090,1129.000,176.800,31.360,5.385,103.000,29.670,4.138,1.001,348.400,98.990,23.610,8.456,hard
1482.000,322.500,86.910,23.100,1130.000,177.000,31.290,5.439,103.200,29.610,4.153,0.999,349.700,99.200,23.580,8.474,hard
1487.000,322.000,86.720,23.110,1132.000,176.700,31.380,5.416,102.700,29.590,4.195,1.011,350.200,99.090,23.500,8.393,hard
1466.000,317.700,85.160,22.850,1125.000,175.300,31.140,5.379,103.100,29.740,4.163,1.002,346.200,98.150,23.330,8.323,hard
1461.000,315.500,84.800,22.660,1127.000,175.800,31.230,5.354,101.000,29.830,4.176,1.003,344.000,97.890,23.270,8.275,hard
1453.000,315.500,84.620,22.560,1123.000,175.800,31.260,5.384,103.100,29.670,4.172,1.002,343.800,97.830,23.230,8.251,hard
1454.000,314.100,84.840,22.510,1124.000,175.200,31.110,5.391,102.600,29.650,4.130,0.999,343.600,97.870,23.230,8.256,hard
1452.000,314.500,84.570,22.570,1125.000,175.400,31.050,5.376,102.700,29.650,4.125,0.994,344.000,97.900,23.310,8.260,hard
1456.000,315.500,84.860,22.620,1121.000,175.700,31.070,5.391,102.000,29.660,4.122,1.001,343.600,97.770,23.270,8.302,hard
1458.000,314.800,84.870,22.620,1128.000,175.000,31.140,5.396,102.600,29.490,4.143,0.994,344.900,98.040,23.260,8.318,hard
1462.000,315.900,85.410,22.670,1130.000,175.900,31.110,5.403,102.700,29.360,4.141,0.998,344.900,98.030,23.410,8.340,hard
1465.000,316.000,85.700,22.790,1121.000,175.800,31.150,5.404,102.000,29.490,4.124,0.998,345.900,98.500,23.410,8.347,hard
1470.000,317.900,86.020,22.900,1126.000,175.600,31.100,5.361,101.700,29.450,4.172,0.993,347.000,98.440,23.450,8.389,hard
1473.000,318.500,85.870,22.960,1129.000,175.800,31.200,5.390,103.300,29.420,4.147,0.999,347.000,98.710,23.570,8.408,hard
1479.000,320.100,86.570,22.880,1125.000,175.200,31.110,5.404,102.400,29.610,4.171,1.010,345.700,98.180,23.320,8.306,hard
1456.000,314.500,84.790,22.630,1120.000,175.500,31.080,5.365,103.100,29.640,4.160,1.002,344.100,97.490,23.200,8.237,hard
1452.000,314.100,84.260,22.560,1122.000,174.500,30.980,5.368,100.200,29.580,4.167,0.997,342.600,97.370,23.110,8.216,hard
1448.000,313.000,84.410,22.490,1124.000,174.600,30.810,5.347,102.000,29.530,4.089,0.997,342.700,97.060,23.010,8.233,hard
1447.000,313.300,84.790,22.480,1122.000,174.500,30.940,5.353,103.100,29.620,4.113,0.995,342.800,97.270,23.050,8.188,hard
1449.000,313.300,84.480,22.510,1119.000,175.000,30.880,5.378,102.700,29.320,4.140,1.002,343.200,97.260,23.000,8.235,hard
1450.000,315.000,84.550,22.590,1123.000,174.900,31.090,5.354,101.200,29.430,4.149,0.999,343.300,97.420,23.130,8.272,hard
1454.000,315.900,84.790,22.670,1120.000,175.000,31.020,5.349,103.100,29.550,4.178,0.999,343.100,97.670,23.290,8.272,hard
1456.000,314.000,84.820,22.610,1120.000,175.900,30.920,5.409,102.900,29.310,4.140,1.002,344.900,98.010,23.350,8.302,hard
1463.000,316.200,85.530,22.740,1120.000,175.400,31.050,5.380,102.000,29.360,4.129,0.997,344.800,98.140,23.380,8.317,hard
1465.000,316.900,85.630,22.770,1126.000,175.600,31.060,5.400,102.200,29.440,4.135,0.997,346.600,98.510,23.320,8.354,hard
1472.000,318.700,85.580,22.840,1122.000,175.800,30.990,5.345,102.500,29.530,4.186,1.007,345.200,97.750,23.310,8.292,hard
1452.000,311.600,84.220,22.500,1124.000,174.600,30.740,5.337,101.100,29.390,4.152,1.002,342.500,97.500,23.090,8.192,hard
1444.000,312.600,83.530,22.390,1118.000,174.500,30.770,5.347,101.500,29.620,4.142,0.996,341.400,96.980,22.960,8.166,hard
1439.000,312.700,83.280,22.330,1116.000,174.200,30.890,5.345,101.600,29.610,4.101,0.992,341.500,96.400,22.930,8.179,hard
1440.000,311.100,83.430,22.190,1117.000,173.900,30.720,5.335,101.500,29.450,4.120,1.001,341.300,96.780,23.050,8.151,hard
1439.000,310.300,83.520,22.170,1116.000,173.900,30.720,5.375,102.500,29.340,4.104,0.993,341.600,96.800,22.970,8.175,hard
1442.000,312.000,83.740,22.340,1118.000,174.600,30.790,5.362,101.900,29.210,4.117,0.987,342.000,96.670,23.100,8.191,hard
1444.000,313.400,84.550,22.390,1120.000,174.000,30.930,5.380,101.300,29.470,4.108,0.997,341.000,97.160,23.060,8.177,hard
1447.000,312.800,83.520,22.430,1114.000,174.300,30.870,5.347,101.700,29.220,4.103,0.990,341.900,96.970,23.140,8.224,hard
1452.000,313.300,84.460,22.490,1123.000,174.700,30.940,5.365,100.500,29.530,4.127,0.990,342.700,97.370,23.180,8.268,hard
1456.000,314.300,84.560,22.610,1119.000,175.200,31.000,5.342,102.400,29.650,4.141,0.999,344.000,97.520,23.250,8.297,hard
1460.000,314.900,84.880,22.610,1121.000,175.100,31.060,5.383,103.700,29.500,4.140,0.994,344.000,98.020,23.260,8.356,hard
1466.000,316.900,84.810,22.630,1121.000,175.300,30.870,5.349,104.000,29.340,4.146,1.011,343.800,97.380,23.090,8.223,hard
1443.000,311.100,83.390,22.300,1117.000,174.300,30.720,5.339,103.400,29.620,4.150,0.993,341.300,96.860,22.970,8.176,hard
1437.000,309.500,82.990,22.190,1114.000,174.400,30.770,5.347,102.100,29.460,4.108,0.987,339.900,96.120,22.960,8.155,hard
1431.000,310.300,83.150,22.220,1115.000,172.700,30.780,5.286,103.400,29.450,4.101,0.987,339.600,96.380,22.820,8.091,hard
1432.000,309.800,83.030,22.140,1113.000,173.400,30.590,5.336,101.900,29.390,4.134,0.982,340.100,96.290,22.820,8.096,hard
1432.000,310.300,82.940,22.130,1113.000,173.400,30.600,5.342,102.400,29.630,4.123,0.989,338.800,96.240,22.840,8.123,hard
1435.000,308.700,83.580,22.270,1113.000,174.500,30.650,5.314,102.800,29.570,4.108,0.995,339.800,96.290,22.900,8.158,hard
1438.000,310.500,83.430,22.250,1118.000,174.600,30.810,5.358,102.000,29.570,4.124,0.996,341.000,96.870,23.040,8.180,hard
1441.000,311.100,83.900,22.360,1114.000,174.200,30.660,5.353,101.400,29.440,4.143,0.991,341.700,96.820,23.040,8.217,hard
1445.000,311.200,83.510,22.450,1121.000,174.400,30.780,5.344,100.500,29.400,4.146,1.006,342.000,97.220,23.070,8.238,hard
1451.000,312.300,84.000,22.480,1120.000,173.600,30.870,5.328,101.700,29.130,4.129,0.998,342.400,97.030,23.170,8.278,hard
1455.000,313.800,84.540,22.460,1121.000,175.100,30.930,5.334,101.400,29.450,4.134,1.001,344.000,97.270,23.200,8.303,hard
1454.000,313.800,83.710,22.240,1117.000,173.800,30.870,5.329,102.100,29.500,4.166,1.004,341.300,96.920,22.950,8.172,hard
1437.000,309.600,83.350,22.110,1113.000,173.800,30.740,5.329,101.700,29.530,4.173,0.998,339.900,96.420,22.840,8.092,hard
1431.000,309.700,82.990,22.030,1118.000,173.700,30.790,5.302,100.200,29.510,4.134,0.991,339.300,96.010,22.820,8.092,hard
1430.000,309.400,82.780,22.050,1111.000,173.000,30.710,5.305,101.200,29.330,4.146,0.996,339.600,96.350,22.810,8.134,hard
1428.000,308.900,82.480,22.050,1116.000,173.700,30.640,5.300,101.900,29.470,4.130,0.996,338.700,96.110,22.780,8.107,hard
1431.000,309.300,82.860,22.070,1119.000,173.500,30.620,5.299,102.700,29.410,4.111,1.001,339.300,96.190,22.810,8.123,hard
1434.000,310.200,83.050,22.170,1111.000,173.400,30.650,5.316,101.100,29.590,4.092,0.993,340.500,96.310,22.860,8.163,hard
1438.000,311.600,83.740,22.210,1117.000,173.500,30.640,5.358,100.900,29.270,4.114,0.996,340.500,96.950,22.960,8.204,hard
1441.000,310.100,83.710,22.310,1113.000,174.400,30.720,5.322,101.000,29.280,4.137,0.994,341.400,97.180,23.010,8.202,hard
1447.000,312.900,84.250,22.390,1113.000,174.600,31.000,5.336,103.600,29.310,4.146,1.001,342.400,97.120,23.080,8.224,hard
1452.000,312.100,84.540,22.400,1117.000,174.800,30.910,5.344,102.700,29.170,4.111,0.998,343.700,97.450,23.160,8.263,hard
1449.000,311.500,83.870,22.120,1113.000,173.300,30.630,5.278,104.600,29.520,4.135,1.003,340.400,96.600,22.870,8.121,hard
1431.000,309.700,82.780,22.090,1116.000,174.000,30.730,5.281,100.500,29.250,4.124,0.993,339.900,95.780,22.720,8.091,hard
1425.000,308.300,82.820,22.010,1112.000,173.300,30.580,5.303,102.700,29.680,4.091,0.998,338.600,95.880,22.670,8.076,hard
1423.000,307.500,82.610,22.010,1113.000,173.500,30.590,5.269,102.200,29.670,4.136,0.985,338.500,95.980,22.740,8.039,hard
1423.000,306.500,82.270,21.960,1113.000,174.000,30.650,5.332,102.200,29.190,4.103,0.994,338.500,96.090,22.730,8.093,hard
1426.000,308.300,82.680,21.950,1112.000,173.100,30.560,5.304,101.700,29.420,4.108,0.989,339.100,96.040,22.680,8.106,hard
1429.000,308.800,83.420,22.160,1112.000,173.800,30.540,5.326,103.200,29.590,4.136,0.993,340.600,96.490,22.800,8.098,hard
1432.000,309.000,82.890,22.080,1107.000,173.800,30.700,5.323,101.700,29.480,4.121,1.002,340.100,96.330,22.950,8.135,hard
1437.000,311.500,83.640,22.180,1110.000,173.300,30.740,5.348,103.100,29.620,4.122,1.002,340.000,96.660,22.960,8.186,hard
1440.000,310.700,83.550,22.340,1113.000,173.100,30.700,5.353,101.800,29.190,4.149,0.995,341.800,96.860,23.010,8.221,hard
1444.000,313.800,83.810,22.290,1120.000,174.400,30.720,5.343,102.300,29.360,4.155,1.000,342.600,96.990,23.010,8.173,hard
1434.000,309.600,82.870,22.130,1109.000,173.500,30.500,5.297,102.500,29.800,4.136,0.993,338.600,95.990,22.780,8.070,hard
1425.000,307.300,82.290,21.930,1107.000,173.500,30.770,5.259,102.300,29.430,4.129,0.992,336.600,95.770,22.800,8.049,hard
1418.000,306.000,81.860,21.740,1113.000,172.600,30.580,5.271,101.800,29.320,4.106,0.986,336.500,95.750,22.620,8.028,hard
1418.000,306.200,82.290,21.800,1111.000,172.700,30.550,5.293,101.900,29.340,4.098,0.993,337.000,95.530,22.530,8.023,hard
1416.000,305.400,82.040,21.930,1108.000,173.100,30.570,5.312,101.800,29.140,4.090,0.992,336.600,95.340,22.680,8.014,hard
1419.000,308.100,82.390,21.910,1109.000,173.300,30.640,5.289,100.500,29.240,4.084,0.984,337.800,95.900,22.670,8.048,hard
1422.000,307.800,82.630,21.970,1108.000,173.200,30.560,5.296,101.600,29.510,4.094,0.989,338.000,95.330,22.720,8.074,hard
1427.000,308.100,82.560,22.090,1109.000,173.500,30.690,5.358,102.900,29.090,4.118,0.996,338.600,95.920,22.780,8.087,hard
1428.000,309.000,82.970,22.060,1113.000,173.600,30.700,5.316,102.000,29.330,4.112,0.989,339.700,96.030,22.840,8.137,hard
1435.000,311.200,83.350,22.160,1109.000,173.700,30.620,5.295,102.200,29.210,4.118,0.999,339.800,96.430,22.870,8.164,hard
1439.000,311.200,83.770,22.240,1117.000,174.100,30.780,5.372,101.200,29.480,4.161,0.990,341.500,97.000,22.950,8.217,hard
1446.000,311.400,83.910,22.420,1114.000,174.100,30.890,5.298,102.200,29.320,4.110,0.996,341.000,97.150,22.910,8.179,hard
1431.000,309.300,82.830,22.000,1109.000,172.900,30.640,5.296,102.500,29.340,4.147,0.995,338.300,95.980,22.680,8.049,hard
1423.000,308.600,82.360,21.920,1111.000,172.000,30.610,5.280,101.600,29.350,4.095,0.991,336.300,95.770,22.660,8.003,hard
1417.000,306.100,81.940,21.800,1108.000,173.400,30.400,5.280,102.200,29.260,4.133,0.997,336.700,95.480,22.590,7.992,hard
1418.000,307.200,81.970,21.810,1110.000,173.300,30.660,5.326,101.700,29.210,4.132,0.986,335.900,95.430,22.590,8.022,hard
1416.000,308.000,82.660,21.870,1106.000,173.000,30.780,5.285,100.400,29.240,4.130,0.987,336.500,95.430,22.680,7.998,hard
1418.000,308.000,82.730,21.890,1109.000,172.400,30.640,5.298,100.700,29.460,4.106,0.987,336.600,95.770,22.770,8.026,hard
1423.000,307.100,82.430,22.070,1111.000,172.700,30.800,5.327,101.200,29.240,4.115,0.989,339.000,95.600,22.760,8.072,hard
1426.000,310.000,82.950,22.060,1113.000,173.000,30.690,5.302,102.000,29.440,4.125,0.996,338.700,96.080,22.810,8.082,hard
1430.000,309.100,83.190,22.150,1113.000,173.200,30.610,5.343,102.900,29.330,4.115,0.992,339.500,96.380,22.910,8.131,hard
1434.000,311.300,83.500,22.250,1112.000,173.400,30.610,5.353,102.700,29.330,4.095,0.994,338.800,96.590,22.900,8.158,hard
1438.000,309.600,83.870,22.310,1117.000,173.900,30.870,5.327,102.400,29.080,4.118,0.998,340.100,96.500,23.060,8.129,hard
1428.000,309.000,82.980,21.970,1113.000,173.200,30.780,5.270,102.400,29.680,4.138,0.996,337.200,95.620,22.710,8.077,hard
1421.000,306.700,82.510,21.990,1111.000,172.500,30.580,5.296,100.500,29.390,4.119,0.988,337.100,95.530,22.690,7.984,hard
1419.000,305.900,82.150,21.940,1109.000,172.700,30.770,5.316,101.600,29.200,4.118,0.985,336.500,95.490,22.590,7.995,hard
1419.000,306.300,82.540,21.870,1110.000,172.800,30.700,5.275,101.800,29.430,4.104,0.985,335.900,95.520,22.650,7.988,hard
1420.000,306.100,82.440,21.950,1116.000,172.900,30.750,5.291,100.900,29.150,4.110,0.986,335.900,95.420,22.620,8.050,hard
1422.000,307.000,82.520,22.060,1112.000,173.400,30.700,5.324,100.800,29.540,4.155,0.980,336.100,95.640,22.720,8.026,hard
1425.000,309.300,82.640,22.080,1111.000,172.700,30.680,5.347,101.600,29.430,4.090,0.990,337.700,95.990,22.730,8.075,hard
1430.000,307.300,83.240,22.130,1115.000,174.000,30.830,5.330,100.600,29.530,4.124,0.990,338.700,96.040,22.820,8.111,hard
1433.000,308.500,83.620,22.260,1115.000,173.400,30.670,5.372,102.900,29.330,4.115,0.994,338.100,96.500,22.890,8.106,hard
1438.000,311.400,84.090,22.300,1115.000,173.500,30.670,5.359,100.800,29.570,4.118,0.997,338.700,96.620,22.960,8.135,hard
1444.000,312.100,83.530,22.410,1113.000,174.300,31.010,5.323,101.900,29.360,4.091,0.990,341.300,96.970,23.060,8.166,hard
1438.000,310.300,83.160,22.110,1110.000,173.600,30.760,5.327,101.800,29.520,4.166,0.998,338.300,95.910,22.740,8.032,hard
1425.000,307.200,82.580,21.980,1110.000,173.700,30.570,5.308,102.100,29.060,4.114,0.988,337.400,95.690,22.670,8.014,hard
1419.000,306.700,82.430,21.990,1108.000,172.800,30.670,5.311,102.100,29.030,4.083,0.982,336.000,95.280,22.470,7.978,hard
1420.000,306.300,82.560,22.010,1109.000,172.600,30.700,5.279,102.000,29.330,4.111,0.991,335.900,95.400,22.540,7.948,hard
1418.000,307.200,82.360,21.910,1104.000,172.900,30.730,5.329,100.700,29.260,4.119,0.986,335.400,95.470,22.520,8.015,hard
1420.000,307.400,82.810,22.030,1110.000,173.300,30.660,5.362,102.300,29.550,4.089,0.983,337.000,95.380,22.630,7.988,hard
1424.000,307.400,83.160,22.010,1107.000,172.900,30.690,5.335,100.400,29.210,4.115,0.988,336.200,95.520,22.640,8.038,hard
1425.000,308.700,83.050,22.050,1107.000,173.300,30.620,5.325,101.400,29.250,4.122,0.994,336.900,95.970,22.760,8.050,hard
1431.000,310.200,82.970,22.200,1110.000,174.000,30.650,5.330,103.300,29.260,4.083,0.992,337.700,96.060,22.810,8.094,hard
1434.000,309.800,83.970,22.240,1115.000,174.200,30.760,5.322,101.500,29.200,4.116,0.981,338.400,96.350,22.830,8.126,hard
1438.000,310.900,83.940,22.300,1116.000,173.900,30.860,5.339,100.600,29.150,4.114,0.993,339.300,96.540,22.870,8.166,hard
1438.000,310.100,83.240,22.110,1108.000,173.000,30.640,5.332,103.000,29.720,4.140,0.989,337.200,95.640,22.650,7.990,hard
1423.000,307.500,82.550,21.930,1110.000,173.100,30.590,5.309,99.970,29.260,4.120,0.995,335.800,95.580,22.640,7.979,hard
1416.000,306.000,82.570,21.880,1106.000,172.600,30.760,5.297,103.200,29.480,4.130,0.992,334.100,95.080,22.450,7.909,hard
1416.000,307.200,82.190,21.890,1107.000,172.700,30.530,5.301,103.000,29.140,4.112,0.984,333.800,94.660,22.470,7.917,hard
1416.000,305.700,81.840,21.870,1109.000,172.900,30.670,5.319,99.910,29.290,4.112,0.989,333.800,95.180,22.480,7.945,hard
1416.000,306.100,82.380,21.840,1109.000,173.000,30.590,5.296,101.100,29.210,4.100,0.976,334.400,94.860,22.500,7.984,hard
1421.000,308.400,82.510,21.950,1110.000,173.500,30.560,5.319,100.600,29.060,4.118,0.985,335.600,94.790,22.610,7.959,hard
1423.000,309.600,83.210,22.030,1109.000,172.600,30.720,5.318,99.320,28.980,4.093,0.990,335.600,95.180,22.690,7.994,hard
1425.000,308.400,83.410,22.070,1113.000,172.700,30.660,5.345,102.200,29.430,4.146,0.988,335.500,95.440,22.580,8.024,hard
1429.000,308.400,83.780,22.110,1112.000,173.600,30.900,5.363,101.500,29.020,4.163,0.989,336.100,95.530,22.750,8.063,hard
1433.000,311.200,83.340,22.270,1112.000,173.700,30.960,5.362,98.610,29.420,4.107,0.997,339.200,95.680,22.750,8.075,hard
1438.000,310.300,83.950,22.330,1113.000,173.700,30.780,5.373,101.900,29.020,4.141,0.999,338.400,96.040,22.850,8.105,hard
1441.000,311.200,83.440,22.190,1116.000,173.700,30.750,5.303,102.100,29.220,4.146,0.997,337.000,95.770,22.630,8.013,hard
1425.000,306.100,82.600,21.920,1112.000,172.800,30.670,5.335,101.000,29.620,4.083,0.994,335.700,95.140,22.570,7.996,hard
1421.000,306.700,82.450,21.990,1109.000,172.200,30.410,5.300,100.600,29.070,4.081,0.991,333.600,94.740,22.500,7.918,hard
1419.000,306.300,82.550,21.900,1108.000,173.100,30.620,5.302,101.600,29.240,4.082,0.980,334.000,94.580,22.540,7.940,hard
1416.000,306.200,82.390,21.820,1104.000,172.600,30.550,5.360,101.700,29.130,4.108,0.983,334.200,94.840,22.540,7.969,hard
1421.000,307.100,82.580,21.980,1113.000,173.000,30.780,5.354,101.500,29.400,4.117,0.998,334.900,95.010,22.560,7.962,hard
1422.000,309.400,82.940,22.040,1114.000,172.900,30.620,5.335,102.700,29.410,4.108,0.988,335.000,95.090,22.590,8.006,hard
1426.000,309.000,82.900,22.050,1112.000,173.700,30.780,5.328,99.430,29.020,4.100,0.990,335.800,95.090,22.530,8.051,hard
1430.000,309.500,83.220,22.110,1110.000,173.500,30.690,5.350,101.500,29.370,4.075,0.988,336.300,95.300,22.660,8.039,hard
1433.000,311.900,83.460,22.210,1113.000,173.900,30.650,5.342,100.600,29.230,4.094,0.993,336.600,95.420,22.690,8.110,hard
1436.000,311.200,83.220,22.270,1110.000,173.500,30.810,5.365,102.300,29.220,4.110,0.996,337.200,95.880,22.860,8.103,hard
1443.000,312.900,84.230,22.390,1118.000,173.600,30.650,5.356,100.500,29.400,4.104,0.990,339.200,96.100,22.730,8.091,hard
1431.000,310.400,83.020,22.040,1114.000,173.700,30.740,5.360,102.000,29.280,4.152,0.992,334.700,95.130,22.590,7.989,hard
1423.000,306.600,82.530,22.080,1107.000,172.900,30.620,5.323,103.000,29.230,4.141,0.989,334.700,94.830,22.480,7.931,hard
1418.000,307.000,82.300,21.970,1109.000,172.600,30.670,5.319,101.800,29.120,4.129,0.992,333.300,94.390,22.410,7.926,hard
1420.000,306.100,82.900,21.940,1107.000,172.800,30.640,5.297,97.990,28.850,4.105,0.984,333.800,94.590,22.440,7.898,hard
1419.000,305.800,82.740,21.950,1109.000,172.800,30.600,5.299,100.900,29.340,4.093,0.984,334.500,94.510,22.360,7.961,hard
1422.000,308.700,82.660,21.950,1110.000,172.900,30.700,5.332,100.400,29.140,4.072,0.988,335.200,94.810,22.480,7.973,hard
1425.000,308.300,82.890,22.110,1115.000,173.200,30.650,5.338,98.820,29.280,4.076,0.982,335.500,95.140,22.510,7.989,hard
1429.000,309.000,82.940,22.140,1113.000,173.500,30.670,5.333,100.800,29.290,4.124,0.995,335.500,95.140,22.590,8.005,hard
1432.000,308.500,83.340,22.190,1115.000,173.700,30.660,5.349,103.500,28.940,4.089,0.983,336.400,95.160,22.670,8.052,hard
1437.000,309.700,84.010,22.210,1111.000,174.000,30.550,5.303,100.900,29.310,4.102,0.994,336.800,95.440,22.800,8.086,hard
1443.000,311.400,83.860,22.390,1113.000,174.400,30.880,5.337,103.000,29.280,4.101,0.992,338.200,95.780,22.870,8.115,hard
1448.000,312.600,84.070,22.440,1116.000,174.400,30.750,5.339,101.200,29.330,4.109,0.989,339.000,96.230,22.970,8.115,hard
1443.000,311.200,83.580,22.110,1114.000,173.600,30.820,5.342,103.600,29.340,4.157,0.991,336.400,95.250,22.700,8.031,hard
1429.000,307.700,82.730,22.160,1109.000,173.100,30.690,5.287,100.700,29.350,4.136,0.989,334.000,94.780,22.510,7.969,hard
1424.000,307.400,82.520,21.950,1111.000,172.700,30.480,5.323,101.600,29.300,4.093,0.995,334.300,94.270,22.500,7.932,hard
1424.000,308.200,82.400,22.080,1114.000,172.700,30.530,5.291,101.400,28.980,4.089,0.991,335.000,94.620,22.440,7.912,hard
1422.000,307.400,82.360,22.080,1112.000,173.400,30.800,5.308,101.400,29.430,4.097,0.987,334.300,94.660,22.420,7.958,hard
1426.000,308.400,82.520,22.030,1111.000,173.600,30.700,5.322,99.630,29.060,4.089,0.986,333.700,94.810,22.610,7.995,hard
1431.000,309.600,83.320,22.100,1110.000,174.000,30.630,5.295,102.500,29.330,4.090,0.987,334.900,94.820,22.570,8.013,hard
1433.000,308.900,83.520,22.190,1111.000,173.700,30.750,5.325,100.100,29.180,4.098,0.986,335.500,95.180,22.620,8.023,hard
1436.000,310.300,83.380,22.240,1109.000,173.500,30.680,5.313,102.800,29.310,4.073,0.984,336.800,95.300,22.700,8.046,hard
1440.000,312.900,83.950,22.340,1114.000,173.400,30.700,5.337,101.800,29.250,4.119,0.989,337.400,95.540,22.730,8.076,hard
1444.000,310.600,84.100,22.410,1111.000,173.800,30.700,5.352,98.250,29.310,4.073,0.993,338.700,95.720,22.780,8.098,hard
1450.000,313.500,84.000,22.510,1118.000,173.700,30.960,5.342,101.700,29.350,4.096,0.992,338.700,96.210,22.860,8.115,hard
1443.000,311.700,83.580,22.190,1116.000,174.000,30.700,5.334,102.800,29.480,4.086,0.995,336.300,95.620,22.630,8.008,hard
