A-DC1,A-DC2,A-DC3,A-DC4,A-DC5,A-DC6,A-DC7,A-DC8,B-DC1,B-DC2,B-DC3,B-DC4,B-DC5,B-DC6,B-DC7,B-DC8,condition
1381.000,332.100,75.020,17.350,1565.000,343.200,79.840,17.810,397.300,113.200,28.770,8.230,562.600,151.100,40.320,12.060,baseline
1380.000,331.800,74.980,17.330,1561.000,342.900,80.090,17.790,389.900,113.500,28.860,8.221,563.900,150.900,40.520,12.070,baseline
1381.000,331.800,74.940,17.460,1561.000,343.900,80.280,17.860,399.200,112.500,28.920,8.187,564.900,150.800,40.650,12.090,baseline
1384.000,333.700,75.280,17.510,1563.000,344.000,80.230,17.930,395.600,113.100,28.950,8.251,565.200,151.700,40.770,12.190,baseline
1386.000,334.600,75.570,17.620,1562.000,344.400,80.100,17.970,385.300,113.900,28.900,8.271,566.700,152.100,40.930,12.210,baseline
1388.000,334.700,76.020,17.680,1566.000,344.800,80.440,18.020,400.300,113.100,29.100,8.230,566.800,152.100,41.120,12.220,baseline
1390.000,335.800,75.930,17.770,1565.000,345.000,80.360,17.870,399.400,113.200,29.030,8.257,567.000,152.400,40.700,12.180,baseline
1383.000,332.200,74.780,17.340,1559.000,343.500,80.020,17.800,389.600,114.000,28.840,8.242,566.100,151.600,40.580,12.050,baseline
1380.000,331.300,74.740,17.220,1563.000,343.600,80.160,17.810,395.800,112.800,29.020,8.209,567.300,150.900,40.610,11.990,baseline
1379.000,331.000,75.090,17.270,1558.000,344.100,80.050,17.790,405.400,113.400,29.000,8.231,565.700,151.400,40.520,12.100,baseline
1379.000,330.700,74.950,17.260,1563.000,344.100,80.070,17.850,389.900,114.100,28.830,8.255,565.100,151.800,40.440,12.100,baseline
1380.000,331.900,74.680,17.400,1563.000,344.600,80.160,17.820,393.500,113.900,28.970,8.257,567.100,151.400,40.880,12.080,baseline
1382.000,333.000,75.030,17.400,1563.000,344.100,80.350,17.930,403.700,112.900,29.130,8.263,567.200,151.900,40.800,12.190,baseline
1384.000,333.200,75.460,17.540,1560.000,345.300,80.550,17.980,393.800,114.100,28.970,8.298,567.500,152.700,40.910,12.250,baseline
1386.000,334.800,75.950,17.610,1567.000,344.500,80.520,17.960,391.800,114.100,29.090,8.290,570.100,152.200,41.190,12.230,baseline
1389.000,336.000,76.250,17.660,1566.000,345.400,80.670,18.040,403.200,113.500,29.210,8.282,571.000,152.800,41.340,12.350,baseline
1393.000,337.300,76.300,17.820,1569.000,344.700,80.570,17.970,397.400,114.200,29.100,8.341,569.800,153.600,40.970,12.270,baseline
1387.000,333.300,75.630,17.340,1561.000,344.500,80.030,17.880,392.800,114.600,29.000,8.283,569.800,152.300,40.970,12.140,baseline
1384.000,333.100,75.260,17.280,1563.000,344.100,80.040,17.840,402.300,113.100,29.140,8.248,570.200,152.000,40.910,12.120,baseline
1382.000,333.400,75.460,17.270,1562.000,345.000,80.120,17.890,401.800,114.000,29.060,8.276,569.100,152.700,40.710,12.170,baseline
1384.000,332.400,75.230,17.360,1562.000,344.300,80.390,17.880,387.800,114.600,29.010,8.284,569.400,152.900,40.870,12.160,baseline
1383.000,333.000,75.110,17.380,1562.000,344.600,80.550,17.900,402.800,113.900,29.150,8.241,570.700,152.400,41.050,12.130,baseline
1386.000,334.400,75.910,17.490,1563.000,344.900,80.290,17.970,405.100,113.800,29.120,8.304,569.900,153.200,41.000,12.270,baseline
1388.000,334.800,75.720,17.630,1566.000,345.300,80.420,17.970,389.100,114.700,29.080,8.335,571.100,153.600,41.190,12.300,baseline
1390.000,336.200,75.880,17.630,1564.000,345.400,80.710,18.010,400.200,114.300,29.290,8.312,572.400,153.400,41.540,12.300,baseline
1392.000,336.100,76.500,17.780,1568.000,345.800,80.790,18.080,410.100,114.100,29.290,8.335,573.200,154.100,41.450,12.430,baseline
1395.000,337.500,76.250,17.780,1567.000,345.500,80.680,18.000,394.000,115.100,29.140,8.350,572.600,154.100,41.360,12.330,baseline
1390.000,335.300,75.760,17.430,1567.000,345.600,80.580,17.890,400.300,114.600,29.230,8.292,574.500,153.500,41.330,12.190,baseline
1388.000,334.000,75.690,17.490,1567.000,344.900,80.340,17.940,406.400,114.000,29.290,8.281,573.300,153.500,41.160,12.240,baseline
1389.000,335.300,75.640,17.480,1565.000,345.600,80.400,17.950,396.300,115.000,29.120,8.331,572.100,153.900,41.040,12.310,baseline
1390.000,336.500,75.890,17.520,1567.000,344.600,80.470,17.920,396.800,114.700,29.180,8.311,574.300,153.700,41.400,12.250,baseline
1391.000,335.600,76.070,17.490,1568.000,344.800,80.480,17.960,409.700,114.100,29.330,8.293,574.600,154.000,41.460,12.310,baseline
1392.000,335.600,75.990,17.640,1563.000,345.900,80.520,17.990,401.100,114.600,29.270,8.338,573.300,154.900,41.340,12.390,baseline
1395.000,337.500,76.480,17.750,1566.000,346.100,80.550,18.050,395.300,115.200,29.270,8.357,576.100,154.500,41.680,12.400,baseline
1398.000,336.400,76.620,17.830,1569.000,346.100,80.880,18.040,409.600,114.100,29.440,8.307,576.500,154.700,41.980,12.450,baseline
1401.000,337.700,76.820,18.000,1569.000,346.200,80.740,18.100,402.600,114.900,29.330,8.359,577.600,155.900,41.740,12.530,baseline
1402.000,338.400,76.650,17.800,1567.000,345.400,80.530,17.910,392.300,115.600,29.330,8.356,576.100,155.000,41.550,12.330,baseline
1394.000,336.600,75.910,17.470,1565.000,344.500,80.350,17.860,406.400,114.100,29.270,8.275,576.700,154.100,41.520,12.260,baseline
1393.000,336.300,75.930,17.470,1564.000,344.900,80.280,17.900,406.100,114.500,29.220,8.315,575.400,154.400,41.270,12.280,baseline
1392.000,335.800,75.740,17.550,1565.000,345.400,80.250,17.930,392.900,115.100,29.220,8.337,574.400,154.700,41.320,12.310,baseline
1393.000,336.200,76.120,17.530,1567.000,344.900,80.500,17.890,405.100,114.600,29.280,8.301,577.100,153.900,41.560,12.290,baseline
1394.000,335.800,76.420,17.620,1565.000,345.500,80.340,17.980,411.700,114.800,29.350,8.323,577.000,155.000,41.530,12.410,baseline
1397.000,336.500,76.450,17.780,1567.000,346.800,80.600,18.040,393.900,115.300,29.280,8.382,575.300,155.400,41.590,12.440,baseline
1399.000,337.600,76.650,17.810,1567.000,346.700,80.780,18.050,400.700,115.200,29.460,8.366,579.200,155.400,41.960,12.450,baseline
1402.000,337.600,77.020,17.950,1568.000,347.300,80.950,18.070,411.600,114.800,29.470,8.366,579.800,155.700,42.010,12.540,baseline
1405.000,341.500,77.220,17.990,1574.000,347.100,80.960,18.110,404.300,115.700,29.440,8.415,578.800,156.600,42.010,12.620,baseline
1409.000,343.300,77.610,18.160,1573.000,347.400,80.960,18.070,399.900,115.800,29.560,8.400,581.500,156.400,42.320,12.540,baseline
1406.000,339.200,76.770,17.830,1570.000,346.200,80.550,17.920,414.600,114.900,29.530,8.350,580.500,155.600,41.840,12.380,baseline
1400.000,338.400,76.170,17.700,1569.000,346.400,80.400,17.940,405.800,115.800,29.410,8.362,577.600,155.800,41.570,12.390,baseline
1398.000,338.100,76.160,17.600,1564.000,346.000,80.300,17.940,396.000,115.900,29.320,8.356,578.900,155.200,41.740,12.340,baseline
1397.000,337.300,76.540,17.660,1568.000,346.500,80.490,17.960,410.100,114.600,29.520,8.333,580.100,155.300,41.780,12.350,baseline
1398.000,338.000,76.430,17.680,1567.000,346.000,80.610,17.950,407.600,115.400,29.390,8.360,578.100,155.600,41.590,12.390,baseline
1398.000,338.500,76.630,17.780,1567.000,346.300,80.740,18.040,393.700,115.900,29.410,8.394,578.900,155.900,41.780,12.440,baseline
1400.000,337.600,76.650,17.880,1571.000,345.500,80.750,18.020,409.700,115.100,29.530,8.347,580.000,155.600,42.100,12.470,baseline
1403.000,338.600,77.050,17.930,1566.000,346.800,80.990,18.070,408.400,115.400,29.560,8.407,579.800,156.600,41.940,12.570,baseline
1404.000,339.800,77.130,18.030,1569.000,347.000,80.970,18.090,395.700,116.400,29.450,8.413,579.600,156.500,42.170,12.590,baseline
1407.000,340.800,77.670,18.190,1572.000,346.600,81.010,18.100,406.100,115.500,29.670,8.389,582.800,156.700,42.400,12.610,baseline
1409.000,340.500,77.280,17.930,1573.000,346.700,80.770,18.020,411.300,115.600,29.620,8.376,582.300,156.200,41.990,12.490,baseline
1401.000,338.400,76.240,17.720,1570.000,346.100,80.510,17.950,401.000,116.000,29.390,8.381,579.100,156.200,41.830,12.460,baseline
1400.000,338.900,76.610,17.730,1568.000,345.300,80.730,17.950,404.700,115.900,29.540,8.353,580.800,155.300,41.880,12.380,baseline
1399.000,337.100,76.530,17.750,1569.000,345.300,80.560,17.950,412.700,115.100,29.470,8.363,580.700,155.700,41.790,12.450,baseline
1399.000,338.800,76.240,17.750,1564.000,345.600,80.530,17.980,401.900,116.000,29.410,8.384,578.300,155.800,41.760,12.480,baseline
1400.000,337.800,76.710,17.770,1571.000,346.000,80.590,18.010,402.100,115.700,29.480,8.376,579.100,155.700,42.030,12.460,baseline
1402.000,337.600,77.150,17.900,1570.000,346.400,80.870,18.080,410.600,114.700,29.590,8.349,580.600,156.000,42.100,12.530,baseline
1405.000,339.900,77.070,18.030,1570.000,346.500,80.760,18.080,404.200,115.600,29.400,8.398,579.300,156.500,42.010,12.630,baseline
1405.000,340.200,77.610,18.170,1571.000,346.900,80.680,18.110,394.400,115.900,29.510,8.400,581.900,156.700,42.380,12.590,baseline
1408.000,339.700,77.310,17.990,1570.000,345.800,80.610,17.930,411.200,114.900,29.610,8.374,581.000,155.600,42.080,12.460,baseline
1400.000,337.300,76.490,17.740,1568.000,346.000,80.380,17.920,408.300,115.000,29.410,8.347,578.200,155.800,41.710,12.440,baseline
1398.000,337.400,76.280,17.720,1564.000,345.400,80.380,17.880,396.200,115.800,29.350,8.362,578.600,155.300,41.670,12.370,baseline
1398.000,337.800,76.400,17.700,1567.000,345.500,80.810,17.920,408.100,115.100,29.520,8.318,579.300,155.000,41.870,12.360,baseline
1397.000,337.700,76.660,17.780,1565.000,345.400,80.460,17.920,408.600,114.900,29.490,8.354,578.200,155.400,41.600,12.450,baseline
1397.000,338.600,76.470,17.810,1564.000,345.300,80.510,18.000,393.800,115.400,29.240,8.364,577.000,155.400,41.770,12.440,baseline
1399.000,338.200,77.050,17.850,1568.000,345.100,80.670,18.010,400.400,114.700,29.420,8.350,578.600,155.100,42.000,12.490,baseline
1401.000,338.300,77.160,18.000,1567.000,346.100,80.690,18.060,410.200,114.900,29.410,8.358,578.800,155.700,41.950,12.540,baseline
1404.000,340.400,77.050,18.100,1569.000,346.800,80.860,18.090,395.900,115.600,29.270,8.381,578.000,156.400,42.020,12.590,baseline
1405.000,338.900,77.670,18.160,1568.000,345.800,80.750,18.030,400.200,115.000,29.450,8.370,579.400,155.900,42.270,12.540,baseline
1404.000,338.000,76.980,17.930,1569.000,346.100,80.480,17.890,411.200,114.600,29.430,8.352,578.800,155.400,41.790,12.410,baseline
1397.000,337.000,76.640,17.680,1560.000,345.300,80.150,17.910,397.500,115.400,29.180,8.324,574.900,155.200,41.430,12.360,baseline
1394.000,337.300,75.930,17.700,1561.000,345.300,80.380,17.870,398.500,114.800,29.280,8.298,576.500,154.000,41.520,12.290,baseline
1393.000,336.000,76.140,17.700,1562.000,344.600,80.140,17.890,410.000,114.100,29.270,8.303,576.000,154.300,41.540,12.330,baseline
1392.000,336.600,76.560,17.700,1559.000,344.900,80.230,17.890,399.700,114.700,29.160,8.316,573.000,154.700,41.310,12.370,baseline
1393.000,336.400,75.990,17.750,1562.000,344.600,80.520,17.930,395.000,114.900,29.140,8.316,574.400,154.400,41.600,12.370,baseline
1395.000,337.600,76.500,17.820,1559.000,344.200,80.600,17.930,407.800,113.800,29.320,8.313,574.700,154.400,41.710,12.420,baseline
1396.000,337.600,76.690,17.930,1563.000,345.500,80.620,18.040,402.000,114.700,29.260,8.339,574.800,154.900,41.630,12.490,baseline
1398.000,338.800,76.820,18.020,1563.000,345.400,80.670,18.030,392.600,115.100,29.220,8.355,574.400,155.200,41.870,12.500,baseline
1400.000,338.300,77.290,18.070,1564.000,345.200,80.660,18.040,405.200,114.800,29.420,8.329,576.200,154.900,42.110,12.510,baseline
1401.000,337.400,77.150,17.890,1566.000,345.000,80.110,17.890,407.000,114.500,29.370,8.353,575.900,154.700,41.470,12.380,baseline
1393.000,336.200,76.070,17.610,1562.000,344.100,80.160,17.860,391.900,115.000,29.140,8.334,574.000,154.200,41.290,12.300,baseline
1390.000,335.600,75.980,17.620,1560.000,343.100,80.150,17.870,401.000,114.400,29.250,8.264,573.700,153.300,41.380,12.220,baseline
1391.000,334.900,75.960,17.620,1557.000,344.200,80.110,17.840,408.300,114.000,29.240,8.299,572.600,153.800,41.190,12.300,baseline
1390.000,337.000,76.130,17.660,1557.000,343.700,80.090,17.840,394.700,115.000,29.140,8.319,572.200,154.000,41.100,12.300,baseline
1390.000,336.700,76.560,17.680,1557.000,343.500,80.330,17.870,398.000,114.300,29.230,8.302,574.300,153.700,41.480,12.270,baseline
1392.000,336.600,76.710,17.720,1557.000,344.100,80.140,17.920,407.200,113.800,29.320,8.314,574.000,154.200,41.530,12.370,baseline
1393.000,337.300,76.610,17.850,1557.000,344.500,80.030,17.910,397.200,115.100,29.220,8.345,572.200,154.800,41.430,12.420,baseline
1395.000,337.500,76.640,17.880,1559.000,343.700,80.480,17.960,393.200,114.900,29.300,8.323,574.200,154.500,41.860,12.390,baseline
1398.000,338.500,77.170,18.010,1561.000,345.100,80.310,17.940,405.400,114.300,29.400,8.330,575.500,154.900,41.900,12.460,baseline
1396.000,337.400,76.770,17.810,1559.000,343.300,80.050,17.810,400.500,115.000,29.270,8.359,573.300,154.600,41.280,12.360,baseline
1391.000,335.800,76.140,17.650,1557.000,343.200,79.730,17.790,395.900,115.100,29.260,8.340,574.800,153.900,41.420,12.260,baseline
1390.000,334.800,75.950,17.590,1560.000,343.800,80.030,17.820,407.900,114.200,29.340,8.283,573.900,153.600,41.430,12.260,baseline
1390.000,335.900,75.940,17.630,1558.000,344.000,79.920,17.830,403.700,114.800,29.290,8.328,572.300,154.300,41.090,12.330,baseline
1390.000,334.800,75.740,17.610,1555.000,343.400,80.080,17.800,393.100,115.700,29.190,8.330,572.700,154.300,41.330,12.300,baseline
1391.000,336.200,76.440,17.720,1559.000,343.900,80.240,17.900,406.300,114.300,29.340,8.305,574.800,153.800,41.570,12.300,baseline
1393.000,336.900,76.360,17.800,1557.000,344.200,80.250,17.870,408.000,114.800,29.390,8.347,573.700,154.800,41.500,12.430,baseline
1395.000,338.100,76.470,17.870,1557.000,344.900,80.190,17.940,393.400,115.500,29.270,8.372,574.000,155.000,41.690,12.430,baseline
1397.000,338.200,76.930,17.950,1558.000,344.700,80.290,17.930,402.100,114.900,29.420,8.355,578.000,154.900,42.010,12.420,baseline
1398.000,337.600,76.880,17.720,1557.000,344.100,80.100,17.780,412.000,114.900,29.470,8.345,576.100,155.000,41.480,12.340,baseline
1391.000,336.800,75.650,17.600,1558.000,342.200,79.850,17.780,396.100,115.400,29.190,8.348,574.700,154.700,41.240,12.280,baseline
1389.000,335.700,75.630,17.460,1556.000,342.800,79.730,17.730,402.000,115.300,29.310,8.319,575.900,154.300,41.430,12.180,baseline
1388.000,336.300,75.890,17.540,1557.000,342.600,79.750,17.760,411.000,114.500,29.400,8.313,575.800,154.400,41.400,12.260,baseline
1389.000,334.900,75.890,17.550,1556.000,343.300,79.940,17.790,398.700,115.500,29.280,8.352,574.300,154.700,41.290,12.300,baseline
1390.000,335.000,76.200,17.590,1557.000,344.000,80.090,17.790,399.700,115.500,29.340,8.353,577.100,154.600,41.630,12.300,baseline
1392.000,337.000,76.540,17.670,1558.000,343.200,80.080,17.850,412.200,114.300,29.470,8.350,578.400,154.900,41.700,12.380,baseline
1394.000,336.700,76.500,17.800,1557.000,343.900,79.980,17.910,401.100,115.400,29.430,8.392,576.800,155.500,41.650,12.460,baseline
1395.000,338.000,76.510,17.810,1559.000,343.800,80.310,17.870,395.300,115.700,29.420,8.394,578.900,155.800,42.020,12.450,baseline
1398.000,338.100,77.030,17.920,1558.000,344.100,80.400,17.920,409.000,114.800,29.560,8.381,580.700,156.200,42.110,12.530,baseline
1401.000,339.700,77.090,18.010,1561.000,344.900,80.410,17.940,404.900,115.300,29.550,8.425,579.800,157.000,42.130,12.660,baseline
1403.000,342.500,77.390,18.090,1562.000,344.700,80.380,17.930,397.000,116.200,29.540,8.450,581.300,156.900,42.220,12.520,baseline
1399.000,338.100,76.800,17.660,1563.000,343.800,79.990,17.790,409.500,115.400,29.630,8.346,580.700,155.800,41.960,12.390,baseline
1396.000,338.400,76.470,17.560,1563.000,343.600,80.060,17.780,409.800,115.500,29.530,8.368,580.500,156.200,41.680,12.410,baseline
1395.000,337.200,75.970,17.590,1561.000,344.200,79.870,17.770,396.000,116.300,29.330,8.379,580.200,156.300,41.820,12.380,baseline
1395.000,338.100,76.350,17.590,1561.000,343.200,80.160,17.780,407.100,115.700,29.500,8.352,582.900,155.800,42.070,12.330,baseline
1395.000,336.500,76.690,17.580,1562.000,344.500,80.080,17.870,414.600,115.200,29.530,8.370,583.200,156.400,41.970,12.460,baseline
1397.000,337.500,76.580,17.720,1564.000,344.500,80.200,17.880,397.200,116.200,29.490,8.417,582.200,157.300,42.070,12.510,baseline
1400.000,339.100,76.810,17.810,1561.000,343.900,80.450,17.880,403.100,116.000,29.580,8.410,584.500,157.000,42.330,12.520,baseline
1402.000,339.700,77.140,17.890,1559.000,344.700,80.500,17.860,414.100,115.500,29.690,8.415,585.400,157.500,42.300,12.620,baseline
1404.000,340.100,77.300,17.970,1565.000,345.300,80.440,17.950,402.300,116.400,29.520,8.451,584.600,158.400,42.280,12.680,baseline
1406.000,341.400,77.190,18.100,1562.000,345.000,80.640,17.950,400.300,116.600,29.650,8.427,587.900,158.100,42.820,12.650,baseline
1409.000,342.000,78.230,18.200,1563.000,345.000,80.510,18.010,413.700,115.400,29.770,8.428,588.300,158.600,42.850,12.780,baseline
1412.000,344.500,77.890,18.270,1563.000,345.500,80.280,17.900,407.700,116.400,29.670,8.465,587.500,159.300,42.560,12.690,baseline
1406.000,341.400,77.250,17.850,1564.000,344.200,80.140,17.760,400.800,116.700,29.590,8.388,588.400,158.000,42.520,12.550,baseline
1404.000,339.600,77.040,17.760,1564.000,344.600,80.230,17.770,415.100,115.700,29.580,8.367,588.800,157.800,42.420,12.520,baseline
1403.000,339.500,76.910,17.770,1564.000,344.900,79.840,17.760,408.800,116.000,29.550,8.383,587.500,158.800,42.160,12.570,baseline
1404.000,340.800,77.000,17.800,1561.000,344.600,80.050,17.780,399.500,116.800,29.540,8.381,588.300,158.300,42.390,12.540,baseline
1404.000,339.200,77.210,17.810,1565.000,343.400,80.100,17.810,410.900,115.700,29.660,8.360,588.800,158.000,42.640,12.550,baseline
1406.000,340.100,77.360,17.950,1561.000,344.800,80.090,17.810,413.800,115.900,29.560,8.412,588.500,158.800,42.410,12.670,baseline
1407.000,341.900,77.430,18.000,1560.000,344.900,80.230,17.830,397.000,116.900,29.490,8.427,588.900,159.200,42.620,12.690,baseline
1411.000,342.100,77.400,18.110,1565.000,345.400,80.320,17.850,408.900,116.200,29.680,8.382,591.500,159.100,42.920,12.730,baseline
1411.000,342.200,77.960,18.220,1565.000,344.800,80.220,17.870,415.800,115.700,29.720,8.394,591.700,159.500,42.930,12.810,baseline
1414.000,343.000,77.990,18.320,1563.000,344.800,80.190,17.870,399.300,116.900,29.580,8.420,591.400,160.300,43.030,12.800,baseline
1413.000,343.300,77.860,18.040,1562.000,344.500,80.210,17.730,404.400,116.300,29.700,8.391,592.700,158.800,42.800,12.620,baseline
1408.000,342.800,77.480,17.930,1561.000,343.800,79.830,17.700,416.300,115.900,29.620,8.357,592.500,159.200,42.630,12.640,baseline
1407.000,341.700,77.540,17.910,1559.000,343.900,79.840,17.750,405.500,116.800,29.470,8.372,589.200,159.300,42.530,12.670,baseline
1408.000,342.700,77.280,17.920,1565.000,343.700,79.860,17.720,402.900,116.700,29.550,8.364,591.500,158.900,42.700,12.630,baseline
1408.000,341.200,77.330,17.980,1558.000,343.600,79.820,17.750,416.300,115.400,29.620,8.351,591.500,159.000,42.720,12.640,baseline
1409.000,341.700,77.580,18.070,1562.000,344.600,79.980,17.730,407.400,116.400,29.560,8.394,589.300,159.700,42.640,12.740,baseline
1410.000,342.200,77.940,18.120,1560.000,343.800,79.880,17.720,399.900,116.500,29.510,8.379,590.200,159.200,42.910,12.740,baseline
1412.000,343.600,78.120,18.180,1561.000,344.200,80.090,17.780,412.700,115.600,29.710,8.360,592.400,159.600,43.010,12.790,baseline
1413.000,343.000,78.340,18.290,1562.000,344.000,79.880,17.800,410.100,116.300,29.550,8.398,591.500,160.200,42.940,12.880,baseline
1416.000,345.700,78.110,18.360,1565.000,344.500,79.980,17.710,397.600,116.800,29.550,8.411,591.100,160.000,43.040,12.780,baseline
1412.000,341.600,77.610,18.030,1561.000,343.000,79.780,17.590,411.000,116.100,29.620,8.333,591.600,158.400,42.740,12.610,baseline
1407.000,340.600,77.390,17.960,1557.000,343.200,79.360,17.640,413.800,115.800,29.490,8.337,588.400,158.800,42.360,12.620,baseline
1405.000,341.000,77.190,17.890,1559.000,343.000,79.700,17.640,397.800,116.400,29.370,8.348,587.400,158.800,42.430,12.600,baseline
1405.000,341.800,77.380,17.940,1558.000,341.900,79.610,17.630,408.000,115.900,29.510,8.308,589.000,157.700,42.640,12.580,baseline
1404.000,340.300,77.550,17.930,1560.000,342.600,79.570,17.650,415.300,115.300,29.460,8.315,588.400,158.300,42.410,12.620,baseline
1405.000,342.900,77.200,18.020,1552.000,343.200,79.520,17.690,399.300,116.000,29.310,8.326,586.900,158.600,42.420,12.680,baseline
1407.000,339.600,77.710,18.090,1559.000,342.400,79.900,17.680,402.700,115.900,29.410,8.324,588.500,158.200,42.760,12.650,baseline
1407.000,341.200,77.920,18.220,1555.000,342.800,79.870,17.750,413.000,114.800,29.530,8.320,587.200,158.500,42.720,12.750,baseline
1410.000,342.200,77.920,18.360,1559.000,343.100,79.870,17.740,402.900,116.000,29.330,8.371,585.900,159.300,42.700,12.830,baseline
1412.000,343.000,78.220,18.360,1558.000,342.600,79.750,17.750,401.500,115.900,29.450,8.346,588.300,158.800,43.110,12.780,baseline
1412.000,342.300,78.290,18.160,1556.000,342.900,79.470,17.590,414.400,114.700,29.470,8.300,588.000,157.800,42.580,12.610,baseline
1405.000,340.500,77.190,17.970,1558.000,342.200,79.310,17.560,406.100,115.300,29.290,8.291,584.100,157.700,42.150,12.590,baseline
1402.000,341.300,76.920,17.900,1554.000,342.300,79.480,17.580,400.300,116.000,29.190,8.287,583.600,157.000,42.200,12.480,baseline
1399.000,338.500,76.900,17.910,1556.000,341.600,79.550,17.520,409.900,114.600,29.250,8.247,584.100,156.600,42.170,12.480,baseline
1399.000,339.700,77.080,17.930,1553.000,341.900,79.200,17.610,405.300,115.200,29.200,8.280,579.800,156.900,41.870,12.540,baseline
1398.000,339.300,77.060,17.900,1556.000,342.200,79.330,17.640,394.100,115.600,29.160,8.282,579.400,156.500,42.020,12.520,baseline
1400.000,339.800,77.590,18.010,1552.000,341.900,79.400,17.600,408.800,114.200,29.290,8.235,581.200,156.100,42.390,12.570,baseline
1401.000,340.400,77.550,18.120,1553.000,342.700,79.360,17.650,407.100,114.700,29.210,8.287,579.900,157.000,42.230,12.640,baseline
1403.000,341.100,77.560,18.230,1552.000,342.200,79.410,17.680,392.500,115.200,29.120,8.304,580.400,157.200,42.290,12.650,baseline
1404.000,341.200,77.990,18.290,1551.000,342.200,79.660,17.680,403.100,114.700,29.300,8.276,582.600,157.100,42.600,12.650,baseline
1407.000,341.600,78.460,18.310,1558.000,342.700,79.570,17.600,408.600,114.300,29.270,8.271,582.400,157.500,42.290,12.660,baseline
1403.000,342.000,77.300,18.000,1552.000,341.200,79.050,17.520,396.400,115.400,29.060,8.266,578.500,156.400,41.820,12.500,baseline
1397.000,337.900,76.930,17.900,1551.000,340.900,79.200,17.500,399.800,114.300,29.120,8.214,578.600,155.400,42.020,12.380,baseline
1395.000,337.500,76.770,17.800,1553.000,341.300,79.010,17.510,409.600,113.800,29.140,8.214,577.100,155.100,41.730,12.410,baseline
1394.000,338.400,76.700,17.870,1553.000,340.200,78.980,17.500,398.000,114.600,28.910,8.228,575.200,155.400,41.490,12.430,baseline
1393.000,337.200,76.590,17.870,1547.000,341.200,79.320,17.480,396.200,114.400,28.990,8.224,574.800,154.700,41.810,12.390,baseline
1393.000,337.600,76.860,17.930,1553.000,341.200,79.080,17.570,406.300,113.500,29.080,8.210,576.100,154.600,41.810,12.450,baseline
1395.000,339.100,76.960,18.010,1552.000,341.500,79.140,17.560,397.600,114.200,28.960,8.238,573.800,155.500,41.730,12.520,baseline
1396.000,339.600,77.170,18.090,1549.000,341.100,79.180,17.610,393.600,114.400,29.020,8.251,573.700,155.600,42.160,12.540,baseline
1399.000,339.800,77.690,18.110,1553.000,341.200,79.260,17.610,407.000,113.600,29.170,8.216,576.200,155.500,42.190,12.560,baseline
1400.000,340.000,77.720,18.270,1552.000,342.600,79.190,17.660,403.300,114.200,29.180,8.272,575.400,156.400,42.010,12.670,baseline
1403.000,340.400,77.590,18.210,1551.000,341.400,79.260,17.430,391.800,114.800,29.070,8.261,575.800,155.800,41.840,12.440,baseline
1396.000,338.000,76.820,17.830,1546.000,339.900,78.870,17.450,405.300,113.700,29.160,8.197,576.000,154.800,41.840,12.340,baseline
1391.000,336.400,76.700,17.830,1552.000,341.000,78.880,17.470,405.700,113.800,28.950,8.224,574.200,155.000,41.480,12.380,baseline
1391.000,337.800,76.360,17.840,1546.000,339.800,78.920,17.450,389.100,114.600,28.850,8.226,572.700,154.700,41.590,12.380,baseline
1390.000,337.400,76.640,17.780,1551.000,339.200,78.680,17.430,399.700,113.900,29.060,8.189,573.400,153.700,41.590,12.330,baseline
1388.000,336.500,76.780,17.750,1547.000,340.100,78.710,17.520,406.700,113.500,29.020,8.213,573.300,154.400,41.590,12.440,baseline
1391.000,336.800,76.700,17.910,1549.000,340.900,79.010,17.520,391.900,114.900,28.920,8.247,572.800,154.800,41.660,12.470,baseline
1393.000,337.400,77.100,17.920,1551.000,340.300,79.270,17.560,397.500,114.100,29.070,8.216,576.100,154.600,42.000,12.440,baseline
1394.000,337.300,77.070,18.020,1552.000,340.900,79.130,17.580,408.400,113.500,29.160,8.225,575.700,155.200,41.910,12.540,baseline
1396.000,338.600,77.240,18.140,1552.000,341.300,79.230,17.620,394.800,114.800,28.990,8.267,575.900,155.900,41.930,12.600,baseline
1397.000,337.600,76.900,17.960,1551.000,340.200,78.840,17.450,396.600,114.600,29.160,8.245,575.700,155.000,41.830,12.370,baseline
1390.000,335.800,76.410,17.740,1550.000,340.700,78.840,17.440,408.500,113.800,29.190,8.205,575.800,154.700,41.690,12.350,baseline
1389.000,335.200,76.380,17.780,1543.000,340.700,78.790,17.510,399.700,114.500,29.020,8.237,572.600,155.000,41.430,12.440,baseline
1389.000,336.200,76.500,17.770,1547.000,339.800,79.010,17.490,394.800,114.800,29.040,8.243,573.900,154.500,41.730,12.340,baseline
1388.000,336.400,76.650,17.780,1552.000,340.000,78.910,17.540,407.800,113.900,29.120,8.206,575.500,154.400,41.660,12.380,baseline
1389.000,336.700,76.320,17.840,1549.000,340.600,79.000,17.490,403.600,114.500,29.060,8.254,574.400,155.300,41.640,12.480,baseline
1391.000,338.300,76.620,17.890,1549.000,340.500,79.110,17.560,393.700,114.800,29.050,8.270,576.000,155.400,41.850,12.480,baseline
1394.000,337.400,77.160,17.980,1551.000,340.200,79.340,17.580,407.600,113.800,29.200,8.248,577.400,155.000,42.240,12.500,baseline
1396.000,337.700,77.150,18.130,1551.000,341.000,79.360,17.660,406.600,114.600,29.250,8.283,576.400,156.000,42.060,12.600,baseline
1398.000,338.700,77.240,18.150,1549.000,341.300,79.130,17.540,391.900,115.100,29.140,8.304,577.100,156.300,41.870,12.460,baseline
1392.000,336.700,76.540,17.710,1553.000,340.700,78.920,17.460,404.500,114.500,29.180,8.210,578.300,154.900,41.830,12.330,baseline
1388.000,335.600,76.270,17.670,1551.000,340.400,78.850,17.440,411.900,114.400,29.200,8.229,576.800,154.900,41.610,12.340,baseline
1386.000,335.000,76.000,17.710,1550.000,340.800,78.800,17.450,396.400,115.100,29.090,8.258,575.200,155.300,41.440,12.380,baseline
1387.000,334.400,76.220,17.660,1549.000,340.300,79.010,17.460,402.100,114.500,29.150,8.250,576.100,154.600,41.630,12.310,baseline
1386.000,334.600,76.110,17.720,1549.000,340.100,78.940,17.460,412.200,114.200,29.180,8.244,576.400,155.100,41.660,12.420,baseline
1387.000,335.700,76.120,17.780,1550.000,340.600,79.210,17.540,399.600,115.100,29.080,8.298,575.800,155.500,41.670,12.480,baseline
1389.000,336.400,76.580,17.820,1552.000,340.900,79.060,17.590,397.100,115.200,29.200,8.289,577.800,155.700,41.990,12.430,baseline
1391.000,336.800,77.200,17.960,1550.000,341.000,79.150,17.580,410.400,114.300,29.360,8.273,578.700,155.900,42.030,12.540,baseline
1392.000,338.300,76.960,18.030,1552.000,341.100,79.050,17.620,401.100,115.400,29.260,8.319,578.500,156.600,42.030,12.600,baseline
1395.000,339.400,77.070,18.000,1553.000,341.400,78.990,17.520,395.800,115.500,29.300,8.324,579.900,156.000,42.070,12.470,baseline
1388.000,336.100,76.260,17.610,1549.000,339.600,78.950,17.470,410.500,114.200,29.340,8.255,580.900,155.200,41.840,12.370,baseline
1386.000,334.200,75.860,17.550,1550.000,340.900,78.810,17.440,406.100,115.000,29.190,8.274,577.700,155.600,41.390,12.360,baseline
1383.000,335.700,75.660,17.550,1548.000,340.400,78.940,17.460,396.100,115.400,29.140,8.274,577.800,155.700,41.600,12.320,baseline
1383.000,334.900,75.980,17.510,1551.000,340.500,78.880,17.470,409.100,114.800,29.300,8.250,578.600,155.300,41.700,12.330,baseline
1383.000,335.400,75.770,17.570,1547.000,340.000,78.940,17.510,410.500,114.500,29.250,8.299,577.800,155.900,41.610,12.390,baseline
1386.000,336.500,75.850,17.630,1547.000,341.100,79.040,17.550,396.900,115.300,29.150,8.330,578.000,156.400,41.780,12.440,baseline
1387.000,335.600,76.340,17.770,1554.000,340.500,79.080,17.550,408.300,115.300,29.360,8.305,580.800,155.700,42.080,12.450,baseline
1389.000,337.100,76.540,17.870,1552.000,341.000,79.270,17.650,411.400,114.700,29.370,8.307,580.300,156.600,42.000,12.530,baseline
1390.000,338.700,76.690,17.900,1555.000,341.200,79.170,17.630,399.400,115.800,29.230,8.366,580.300,157.200,42.080,12.580,baseline
1394.000,338.200,77.210,17.980,1553.000,341.100,79.240,17.580,403.300,115.400,29.470,8.341,583.000,156.600,42.320,12.510,baseline
1390.000,335.600,76.420,17.640,1552.000,340.600,79.080,17.480,412.700,115.000,29.470,8.286,582.400,156.400,41.910,12.410,baseline
1385.000,335.700,75.960,17.540,1549.000,340.300,78.690,17.480,402.800,115.600,29.260,8.311,580.400,156.500,41.620,12.400,baseline
1383.000,335.700,75.640,17.510,1544.000,340.600,78.890,17.460,402.800,115.600,29.280,8.305,581.600,155.900,41.800,12.300,baseline
1384.000,334.500,75.960,17.510,1549.000,340.300,78.900,17.460,412.000,114.700,29.390,8.270,581.800,155.900,41.800,12.330,baseline
1383.000,336.000,75.770,17.530,1547.000,339.900,78.810,17.480,406.800,115.500,29.290,8.327,579.600,156.200,41.660,12.430,baseline
1384.000,336.100,75.950,17.620,1547.000,340.200,78.950,17.500,400.500,115.700,29.290,8.319,581.500,156.100,41.970,12.410,baseline
1386.000,335.500,76.210,17.710,1550.000,340.600,79.260,17.550,410.900,115.000,29.400,8.306,582.600,156.200,42.140,12.460,baseline
1389.000,336.800,76.510,17.730,1549.000,341.200,79.110,17.580,409.400,115.600,29.380,8.356,582.300,157.200,41.980,12.560,baseline
1390.000,338.100,76.270,17.850,1552.000,341.300,79.220,17.590,398.300,116.100,29.380,8.372,582.500,157.400,42.310,12.570,baseline
1392.000,337.600,76.990,17.940,1552.000,341.700,79.300,17.530,410.600,115.200,29.550,8.320,584.700,156.900,42.300,12.500,baseline
1389.000,336.700,76.050,17.620,1548.000,340.600,78.900,17.480,413.600,115.500,29.450,8.328,582.800,157.000,41.870,12.470,baseline
1385.000,335.100,75.980,17.560,1550.000,340.400,78.950,17.510,397.300,116.300,29.220,8.348,582.300,156.900,41.860,12.450,baseline
1385.000,335.300,75.910,17.540,1551.000,340.100,79.180,17.490,410.300,115.300,29.370,8.302,583.600,156.400,42.060,12.390,baseline
1386.000,335.900,76.030,17.630,1548.000,340.800,78.970,17.500,415.800,115.300,29.470,8.311,582.800,156.400,41.930,12.460,baseline
1385.000,335.800,76.120,17.640,1549.000,341.000,78.940,17.520,400.900,115.900,29.270,8.335,581.000,157.000,41.920,12.470,baseline
1386.000,336.300,76.400,17.710,1553.000,341.000,79.280,17.560,404.200,115.500,29.450,8.307,584.900,157.000,42.300,12.490,baseline
1390.000,336.400,76.810,17.800,1549.000,341.900,79.340,17.580,414.100,115.000,29.520,8.330,584.100,157.300,42.290,12.590,baseline
1392.000,337.600,76.540,17.910,1550.000,341.600,79.400,17.650,400.800,116.200,29.330,8.375,584.300,157.900,42.300,12.620,baseline
1393.000,338.000,76.760,17.980,1556.000,341.200,79.400,17.610,404.900,116.100,29.490,8.370,585.300,157.600,42.570,12.580,baseline
1393.000,337.700,76.530,17.770,1547.000,340.900,79.020,17.470,414.400,115.300,29.550,8.326,585.400,157.100,42.110,12.450,baseline
1388.000,336.000,75.800,17.580,1548.000,340.500,79.080,17.460,409.800,115.700,29.310,8.319,583.000,157.000,41.780,12.440,baseline
1385.000,336.600,75.550,17.540,1549.000,340.200,78.980,17.480,403.100,115.900,29.300,8.313,582.100,156.500,41.960,12.370,baseline
1385.000,335.700,75.990,17.520,1554.000,340.600,78.950,17.500,414.100,114.800,29.430,8.296,583.600,156.300,42.040,12.360,baseline
1384.000,335.500,75.760,17.540,1550.000,340.900,79.060,17.510,409.400,115.200,29.340,8.317,581.800,156.500,41.780,12.460,baseline
1386.000,334.200,75.940,17.600,1549.000,341.000,78.970,17.540,399.200,115.800,29.230,8.317,581.600,156.800,42.010,12.440,baseline
1388.000,335.500,76.690,17.700,1546.000,340.500,79.300,17.570,409.400,114.500,29.380,8.271,583.700,156.500,42.260,12.490,baseline
1389.000,336.500,76.530,17.840,1551.000,341.000,79.210,17.580,410.600,115.300,29.360,8.330,582.200,157.300,42.130,12.610,baseline
1391.000,338.700,76.980,17.910,1550.000,341.500,79.230,17.630,397.800,116.000,29.250,8.362,582.000,157.600,42.280,12.620,baseline
1393.000,339.100,76.850,17.960,1552.000,339.900,79.300,17.600,406.700,115.300,29.440,8.302,584.500,157.300,42.510,12.600,baseline
1395.000,338.400,77.000,18.060,1551.000,340.300,79.280,17.540,414.400,115.100,29.430,8.340,583.900,158.000,42.210,12.600,baseline
1390.000,337.400,76.290,17.680,1552.000,340.200,79.080,17.450,399.000,115.700,29.290,8.309,581.700,157.000,41.900,12.470,baseline
1387.000,335.600,75.990,17.580,1546.000,339.300,78.860,17.420,404.700,115.000,29.300,8.272,581.500,156.000,42.000,12.370,baseline
1383.000,334.600,75.880,17.490,1545.000,340.300,78.840,17.420,412.100,114.600,29.340,8.249,581.100,156.200,41.880,12.420,baseline
1384.000,335.700,75.720,17.530,1545.000,339.400,78.900,17.470,398.900,115.400,29.140,8.300,578.300,156.200,41.660,12.430,baseline
1383.000,335.900,76.030,17.600,1548.000,339.700,78.800,17.450,401.600,115.400,29.210,8.260,579.700,156.000,41.870,12.370,baseline
1384.000,336.000,76.410,17.700,1549.000,339.600,78.960,17.490,410.900,114.300,29.340,8.246,581.200,156.100,41.900,12.470,baseline
1388.000,336.300,76.620,17.840,1546.000,340.300,78.880,17.560,402.900,114.900,29.170,8.294,578.700,156.400,41.840,12.540,baseline
1388.000,336.600,76.670,17.910,1546.000,340.500,79.020,17.530,396.300,115.400,29.170,8.277,580.300,156.400,42.090,12.520,baseline
1391.000,336.800,76.840,18.000,1547.000,340.700,79.240,17.520,409.100,114.200,29.310,8.260,581.100,156.700,42.340,12.580,baseline
1394.000,337.400,76.950,18.070,1549.000,340.800,79.130,17.590,405.800,115.000,29.210,8.294,580.800,157.500,42.250,12.680,baseline
1397.000,340.100,77.340,18.140,1550.000,340.700,79.150,17.490,393.000,115.400,29.240,8.300,581.700,157.200,42.300,12.530,baseline
1392.000,336.800,76.300,17.740,1551.000,338.900,78.650,17.340,408.600,114.100,29.260,8.228,581.600,155.700,41.970,12.410,baseline
1387.000,337.200,76.090,17.650,1543.000,339.100,78.660,17.380,407.600,114.400,29.150,8.227,578.600,156.100,41.600,12.420,baseline
1385.000,337.100,75.840,17.530,1544.000,338.600,78.650,17.380,393.600,115.300,29.000,8.248,576.400,155.900,41.640,12.390,baseline
1385.000,334.600,76.050,17.640,1542.000,338.600,78.710,17.370,405.000,114.500,29.130,8.187,577.600,155.200,41.740,12.360,baseline
1384.000,334.600,75.990,17.640,1545.000,338.800,78.720,17.420,409.700,114.000,29.090,8.208,577.100,155.400,41.610,12.410,baseline
1385.000,335.800,76.280,17.750,1540.000,338.900,78.490,17.410,393.600,114.600,28.970,8.239,576.900,155.800,41.760,12.480,baseline
1387.000,336.100,76.680,17.820,1545.000,339.400,78.770,17.390,400.700,114.200,29.100,8.218,578.600,155.600,42.040,12.460,baseline
1389.000,336.100,76.900,17.900,1544.000,338.600,78.810,17.430,409.000,114.100,29.130,8.214,579.000,156.200,42.050,12.560,baseline
1391.000,337.200,76.790,18.030,1541.000,339.800,78.790,17.500,397.100,115.000,28.990,8.253,577.600,156.700,42.070,12.610,baseline
1394.000,337.300,77.260,18.120,1547.000,338.600,78.710,17.400,400.200,114.700,29.120,8.238,579.000,156.000,42.150,12.470,baseline
1390.000,336.600,76.130,17.730,1539.000,338.500,78.500,17.280,409.400,113.900,29.170,8.192,578.500,155.200,41.790,12.400,baseline
1386.000,336.300,75.690,17.760,1542.000,338.500,78.300,17.270,401.200,114.600,28.920,8.221,575.500,155.700,41.460,12.420,baseline
1385.000,336.000,75.930,17.670,1544.000,337.500,78.560,17.330,396.600,114.600,28.880,8.192,575.600,155.200,41.750,12.380,baseline
1386.000,335.400,76.200,17.700,1545.000,337.700,78.330,17.330,408.200,113.300,29.060,8.159,576.100,154.800,41.710,12.370,baseline
1385.000,335.200,76.110,17.690,1542.000,338.300,78.390,17.300,403.300,114.100,28.970,8.186,575.200,155.600,41.560,12.450,baseline
1386.000,336.100,76.420,17.810,1541.000,338.700,78.640,17.330,393.200,114.700,28.900,8.202,575.700,155.600,41.720,12.430,baseline
1388.000,337.200,76.520,17.920,1546.000,337.900,78.480,17.370,405.500,113.700,29.020,8.165,577.800,155.400,42.050,12.490,baseline
1391.000,336.700,76.890,18.000,1548.000,339.400,78.680,17.400,405.800,114.100,29.060,8.210,577.200,156.300,41.880,12.560,baseline
1393.000,337.900,77.210,18.100,1540.000,339.400,78.660,17.430,391.300,114.700,29.040,8.236,577.800,156.500,42.150,12.610,baseline
1396.000,337.400,76.860,18.070,1543.000,339.100,78.440,17.310,402.800,114.200,29.170,8.207,579.200,155.500,42.140,12.450,baseline
1388.000,336.700,76.320,17.690,1542.000,338.400,78.250,17.270,408.800,114.000,29.020,8.168,577.500,155.700,41.540,12.390,baseline
1385.000,334.500,76.050,17.620,1540.000,338.300,78.090,17.210,394.500,114.600,28.830,8.181,575.200,155.300,41.420,12.330,baseline
1383.000,335.300,75.790,17.610,1543.000,337.000,78.300,17.210,401.300,114.100,28.960,8.157,576.800,154.700,41.640,12.270,baseline
1383.000,336.100,75.780,17.620,1541.000,337.900,78.220,17.240,412.200,113.500,29.060,8.153,575.800,154.800,41.480,12.340,baseline
1382.000,334.800,75.840,17.640,1538.000,337.500,78.190,17.270,398.000,114.400,28.840,8.193,574.700,155.300,41.470,12.390,baseline
1384.000,335.200,76.020,17.760,1543.000,337.900,78.350,17.330,397.700,114.400,28.940,8.189,575.700,154.800,41.800,12.360,baseline
1386.000,336.600,76.820,17.780,1545.000,338.300,78.330,17.340,409.600,113.500,29.100,8.198,577.100,155.500,41.720,12.450,baseline
1388.000,337.500,76.720,17.860,1541.000,339.000,78.320,17.330,401.200,115.000,28.970,8.223,576.600,156.100,41.740,12.520,baseline
1389.000,337.900,76.560,17.970,1540.000,339.200,78.640,17.370,394.500,115.000,29.080,8.223,578.700,156.100,42.040,12.490,baseline
1393.000,337.700,77.360,18.010,1545.000,338.900,78.420,17.300,409.200,114.000,29.190,8.200,579.800,155.900,42.030,12.470,baseline
1388.000,334.600,76.080,17.640,1542.000,337.500,78.270,17.240,403.000,114.700,29.010,8.195,578.100,155.900,41.490,12.390,baseline
1384.000,335.300,75.790,17.590,1541.000,337.800,78.140,17.200,395.500,115.100,28.960,8.196,576.100,155.400,41.600,12.280,baseline
1380.000,333.500,75.720,17.530,1536.000,337.600,78.340,17.200,406.700,113.600,29.060,8.159,577.800,154.700,41.600,12.290,baseline
1382.000,334.300,75.630,17.500,1540.000,337.100,78.140,17.240,406.600,114.000,29.040,8.177,577.400,155.500,41.430,12.350,baseline
1381.000,335.600,75.650,17.550,1541.000,337.600,78.270,17.300,393.900,115.400,28.960,8.225,576.500,155.400,41.500,12.360,baseline
1383.000,335.500,75.980,17.620,1540.000,337.800,78.390,17.310,406.600,114.400,29.100,8.197,579.000,155.100,41.830,12.350,baseline
1385.000,335.600,76.240,17.740,1538.000,338.400,78.190,17.350,411.000,114.100,29.160,8.233,578.700,155.900,41.820,12.480,baseline
1386.000,335.900,76.450,17.750,1540.000,338.500,78.510,17.430,395.700,115.400,29.060,8.265,578.800,156.300,41.860,12.530,baseline
1388.000,337.800,76.770,17.830,1541.000,338.200,78.540,17.440,402.800,114.900,29.240,8.267,581.100,156.000,42.260,12.490,baseline
1391.000,337.100,76.990,17.900,1543.000,339.100,78.790,17.390,410.300,114.400,29.290,8.256,582.000,156.700,42.190,12.560,baseline
1389.000,336.000,76.150,17.680,1539.000,338.600,78.490,17.260,401.500,115.400,29.150,8.272,579.900,156.600,41.690,12.410,baseline
1384.000,335.200,75.700,17.590,1538.000,337.900,78.210,17.260,401.600,115.200,29.200,8.218,581.500,155.900,41.850,12.310,baseline
1383.000,334.000,76.000,17.500,1541.000,337.600,78.640,17.300,413.700,114.400,29.280,8.214,582.600,155.800,41.700,12.380,baseline
1384.000,334.500,75.840,17.570,1539.000,337.900,78.490,17.290,404.200,115.400,29.140,8.259,579.600,156.700,41.550,12.420,baseline
1383.000,334.600,75.940,17.540,1537.000,338.500,78.480,17.290,398.300,115.700,29.160,8.263,581.000,156.200,41.750,12.390,baseline
1384.000,335.600,75.910,17.580,1539.000,337.700,78.300,17.340,414.000,114.700,29.280,8.246,582.500,156.200,41.960,12.410,baseline
1387.000,336.700,76.360,17.710,1542.000,339.400,78.600,17.370,408.100,115.500,29.250,8.292,582.200,157.400,41.880,12.530,baseline
1388.000,336.800,76.400,17.780,1543.000,338.700,78.780,17.480,397.800,116.100,29.300,8.319,582.700,157.300,42.130,12.520,baseline
1391.000,337.400,76.760,17.810,1547.000,339.100,78.900,17.460,412.500,115.000,29.540,8.289,584.500,157.300,42.450,12.520,baseline
1391.000,337.300,76.330,17.680,1542.000,339.000,78.700,17.300,414.400,115.500,29.370,8.316,584.000,157.400,41.840,12.470,baseline
1385.000,335.900,75.870,17.530,1537.000,338.400,78.550,17.320,400.900,116.000,29.230,8.311,584.200,157.200,41.810,12.380,baseline
1383.000,335.100,76.060,17.450,1539.000,338.400,78.650,17.320,409.600,115.300,29.420,8.256,584.500,156.400,41.910,12.340,baseline
1383.000,334.000,75.620,17.460,1538.000,338.400,78.250,17.340,416.000,115.400,29.410,8.282,583.700,157.000,41.770,12.420,baseline
1383.000,336.000,75.750,17.530,1540.000,338.500,78.430,17.340,400.200,116.100,29.280,8.331,582.600,157.400,41.750,12.430,baseline
1384.000,334.600,75.860,17.580,1540.000,338.800,78.750,17.430,408.600,115.900,29.390,8.299,585.900,157.100,42.060,12.390,baseline
1387.000,335.200,76.190,17.650,1539.000,338.400,78.760,17.440,416.400,115.300,29.540,8.319,585.800,157.500,42.180,12.520,baseline
1388.000,337.000,76.000,17.760,1541.000,338.600,78.920,17.460,405.000,116.500,29.400,8.342,585.200,158.300,42.140,12.600,baseline
1390.000,338.500,76.480,17.820,1542.000,339.600,78.980,17.530,404.400,116.300,29.470,8.358,586.900,158.100,42.460,12.540,baseline
1393.000,337.300,76.920,17.810,1544.000,339.700,79.240,17.510,416.600,115.200,29.670,8.360,587.700,158.400,42.500,12.660,baseline
1395.000,339.400,76.760,17.930,1543.000,338.700,78.780,17.470,407.600,116.000,29.570,8.372,586.900,158.800,42.230,12.570,baseline
1388.000,335.500,76.250,17.530,1544.000,338.600,78.720,17.420,402.800,116.700,29.460,8.331,587.400,157.900,42.040,12.400,baseline
1387.000,334.900,75.930,17.440,1540.000,339.100,78.620,17.370,416.300,115.300,29.570,8.305,587.700,157.300,42.010,12.390,baseline
1383.000,334.400,75.850,17.440,1538.000,338.800,78.530,17.390,412.200,115.900,29.500,8.328,586.200,157.800,41.790,12.420,baseline
1384.000,335.600,75.890,17.460,1539.000,338.900,78.760,17.410,400.400,116.500,29.430,8.346,586.700,157.700,42.090,12.370,baseline
1384.000,335.700,76.200,17.530,1539.000,338.800,78.660,17.440,414.700,115.600,29.610,8.327,587.900,157.600,42.150,12.400,baseline
1386.000,335.400,76.500,17.580,1543.000,339.900,78.900,17.480,413.200,116.200,29.530,8.343,586.400,158.400,42.140,12.540,baseline
1389.000,337.300,76.350,17.670,1539.000,339.600,78.900,17.540,398.700,116.700,29.470,8.381,585.900,158.800,42.210,12.540,baseline
1390.000,336.400,76.740,17.750,1541.000,339.300,79.010,17.520,413.400,116.000,29.620,8.362,588.800,158.000,42.500,12.560,baseline
1391.000,337.800,76.670,17.850,1545.000,339.700,79.090,17.590,416.300,116.000,29.710,8.393,589.000,158.900,42.510,12.670,baseline
1394.000,338.400,76.980,17.970,1544.000,340.300,79.330,17.610,401.900,117.100,29.500,8.434,588.600,159.500,42.540,12.720,baseline
1397.000,339.100,77.400,17.950,1545.000,339.900,79.010,17.490,408.900,116.600,29.730,8.384,590.500,158.600,42.700,12.550,baseline
1390.000,337.700,76.570,17.570,1542.000,339.500,78.880,17.430,420.500,116.000,29.640,8.362,589.700,158.200,42.250,12.490,baseline
1388.000,335.300,76.200,17.510,1538.000,339.200,78.780,17.420,405.900,117.200,29.420,8.365,586.600,158.500,41.950,12.450,baseline
1386.000,336.000,76.020,17.520,1543.000,339.600,78.670,17.400,406.000,116.300,29.560,8.338,587.800,157.900,42.180,12.380,baseline
1386.000,335.600,76.340,17.520,1539.000,338.500,78.890,17.410,416.700,115.800,29.600,8.315,588.100,157.600,42.160,12.440,baseline
1385.000,336.000,76.130,17.540,1539.000,339.400,78.840,17.440,408.000,116.300,29.480,8.359,586.300,158.300,41.920,12.500,baseline
1386.000,337.300,76.370,17.680,1540.000,338.900,78.950,17.470,401.800,116.500,29.540,8.377,586.900,157.800,42.300,12.460,baseline
1388.000,335.200,76.720,17.640,1544.000,339.100,79.050,17.470,413.100,115.300,29.630,8.353,588.400,157.700,42.440,12.560,baseline
1389.000,338.100,76.480,17.820,1544.000,339.200,78.960,17.530,408.000,115.900,29.500,8.370,587.300,158.500,42.240,12.630,baseline
1391.000,338.300,76.760,17.910,1542.000,340.000,79.060,17.580,400.100,116.900,29.530,8.409,587.100,158.300,42.530,12.600,baseline
1393.000,337.700,76.890,17.980,1547.000,339.300,79.080,17.610,414.500,115.700,29.640,8.371,589.000,158.500,42.710,12.650,baseline
1393.000,340.100,77.130,17.860,1540.000,339.300,78.840,17.450,414.100,115.700,29.620,8.372,587.800,158.600,42.190,12.580,baseline
1388.000,336.900,76.290,17.630,1538.000,338.600,78.870,17.440,399.400,116.700,29.390,8.369,586.200,158.000,42.060,12.470,baseline
1386.000,336.400,76.230,17.550,1542.000,338.800,78.720,17.420,410.100,115.700,29.500,8.309,587.300,157.100,42.190,12.400,baseline
1386.000,337.100,76.000,17.600,1540.000,339.100,78.890,17.440,415.500,115.800,29.490,8.328,585.400,157.500,42.040,12.470,baseline
1385.000,335.800,76.120,17.600,1536.000,339.400,78.630,17.440,400.500,116.500,29.320,8.338,583.700,157.800,41.900,12.480,baseline
1385.000,335.800,76.400,17.640,1539.000,337.900,78.910,17.450,405.300,115.300,29.460,8.310,584.700,156.900,42.160,12.420,baseline
1387.000,336.200,76.730,17.770,1539.000,339.000,78.890,17.500,414.800,115.100,29.480,8.331,584.400,157.600,42.190,12.520,baseline
1387.000,337.300,76.630,17.870,1539.000,339.300,78.800,17.490,400.800,115.900,29.320,8.356,583.400,158.000,42.180,12.570,baseline
1390.000,338.000,76.800,17.960,1541.000,339.000,78.950,17.520,400.800,115.800,29.510,8.351,585.000,157.700,42.470,12.520,baseline
1392.000,339.100,77.210,18.030,1543.000,339.500,78.920,17.570,412.700,114.800,29.540,8.320,586.300,157.800,42.490,12.620,baseline
1393.000,338.100,76.920,17.900,1539.000,338.600,78.810,17.400,404.100,115.800,29.370,8.343,584.300,158.000,42.030,12.530,baseline
1385.000,337.300,76.200,17.600,1539.000,337.900,78.540,17.330,399.400,115.700,29.290,8.286,582.800,156.900,42.020,12.350,baseline
1381.000,334.600,76.350,17.600,1535.000,337.600,78.560,17.380,407.900,114.800,29.240,8.244,580.700,155.700,41.860,12.340,hard
1383.000,335.600,76.370,17.740,1535.000,338.800,78.440,17.410,409.400,114.800,29.210,8.279,578.500,156.900,41.710,12.470,hard
1383.000,335.900,76.390,17.820,1534.000,338.100,78.630,17.420,391.900,115.400,29.170,8.304,580.300,156.800,41.960,12.490,hard
1385.000,336.900,76.610,17.890,1540.000,337.700,78.660,17.450,406.300,114.600,29.290,8.269,580.700,156.200,42.190,12.470,hard
1387.000,337.300,76.880,18.000,1534.000,338.200,78.670,17.470,412.200,114.600,29.250,8.304,580.700,156.700,42.110,12.560,hard
1390.000,337.300,76.770,18.140,1538.000,338.600,78.560,17.450,395.000,115.400,29.150,8.327,580.600,157.500,42.150,12.610,hard
1390.000,336.900,76.810,17.870,1534.000,337.500,78.370,17.270,403.100,114.800,29.310,8.285,580.800,156.200,41.960,12.320,hard
1382.000,335.300,75.620,17.640,1533.000,336.900,78.220,17.300,411.700,114.400,29.240,8.232,578.800,155.600,41.510,12.300,hard
1380.000,334.600,75.510,17.590,1534.000,337.400,78.170,17.240,398.100,114.700,29.000,8.258,575.900,155.600,41.280,12.290,hard
1377.000,335.300,75.990,17.570,1534.000,336.500,78.080,17.280,394.600,114.700,29.150,8.227,577.000,154.800,41.510,12.240,hard
1377.000,332.900,75.810,17.590,1533.000,336.500,78.070,17.250,410.600,113.700,29.210,8.217,576.700,154.700,41.370,12.280,hard
1377.000,333.900,75.880,17.650,1528.000,336.900,77.960,17.280,399.800,114.500,29.020,8.254,574.200,155.000,41.260,12.370,hard
1378.000,334.700,76.260,17.710,1529.000,337.000,78.290,17.280,394.300,114.400,29.080,8.257,575.700,155.000,41.670,12.340,hard
1380.000,336.700,76.480,17.800,1531.000,336.400,78.300,17.320,408.800,113.800,29.200,8.247,575.800,154.900,41.740,12.400,hard
1379.000,335.500,76.300,17.910,1536.000,336.900,78.280,17.360,405.700,114.600,29.180,8.279,574.600,155.800,41.570,12.500,hard
1383.000,338.800,76.440,18.060,1536.000,337.300,78.380,17.360,390.600,115.400,29.210,8.307,576.100,155.800,41.970,12.480,hard
1385.000,337.100,77.220,18.080,1537.000,337.800,78.280,17.360,408.900,114.300,29.330,8.269,577.900,155.800,42.070,12.480,hard
1384.000,337.700,76.410,17.810,1532.000,336.200,77.930,17.190,408.500,114.400,29.180,8.262,575.900,155.400,41.460,12.330,hard
1377.000,335.200,75.500,17.660,1531.000,336.100,77.830,17.160,396.100,115.100,29.030,8.263,573.500,154.500,41.330,12.280,hard
1373.000,333.500,75.710,17.580,1534.000,335.400,77.900,17.120,411.100,114.300,29.150,8.230,573.500,153.800,41.350,12.210,hard
1372.000,331.800,75.740,17.600,1526.000,335.000,77.590,17.150,414.200,114.200,29.110,8.242,572.800,154.400,41.250,12.300,hard
1372.000,333.500,75.710,17.620,1527.000,336.100,77.560,17.140,403.700,115.100,29.010,8.264,571.000,154.600,41.310,12.280,hard
1372.000,333.800,76.080,17.710,1529.000,335.700,77.950,17.160,409.700,115.100,29.170,8.256,574.000,154.100,41.580,12.290,hard
1374.000,333.900,75.890,17.770,1531.000,336.800,77.870,17.230,422.200,114.200,29.290,8.272,573.400,154.300,41.590,12.380,hard
1376.000,335.700,76.120,17.930,1528.000,336.800,77.920,17.240,406.200,115.200,29.150,8.312,572.600,155.400,41.580,12.440,hard
1378.000,336.600,76.460,17.900,1530.000,336.600,77.990,17.240,405.000,115.200,29.210,8.291,574.300,154.700,41.830,12.410,hard
1380.000,335.500,76.490,18.060,1530.000,336.500,78.030,17.240,417.400,114.300,29.340,8.278,575.300,155.200,42.010,12.490,hard
1381.000,335.400,76.450,17.880,1533.000,336.400,77.670,17.140,409.400,115.400,29.210,8.291,572.100,155.000,41.410,12.380,hard
1374.000,335.300,75.610,17.660,1529.000,335.700,77.620,17.090,401.900,115.400,29.140,8.251,571.500,154.100,41.400,12.250,hard
1372.000,333.100,75.760,17.630,1527.000,334.900,77.550,17.080,418.200,114.100,29.240,8.225,572.100,153.500,41.340,12.220,hard
1372.000,333.000,75.710,17.630,1529.000,335.500,77.620,17.100,414.100,114.900,29.110,8.274,569.900,154.500,41.100,12.270,hard
1370.000,333.400,75.500,17.660,1528.000,334.900,77.380,17.080,401.900,115.100,29.070,8.240,569.100,153.800,41.210,12.240,hard
1370.000,333.200,75.970,17.680,1530.000,334.900,77.640,17.070,413.700,114.300,29.160,8.238,571.300,153.700,41.370,12.280,hard
1373.000,333.100,75.780,17.800,1528.000,335.100,77.650,17.160,415.300,114.700,29.090,8.251,571.000,154.300,41.330,12.370,hard
1374.000,334.900,76.040,17.890,1527.000,336.300,77.830,17.160,398.700,115.200,29.080,8.301,571.300,154.700,41.570,12.400,hard
1376.000,334.900,76.610,17.930,1533.000,335.900,77.800,17.190,412.100,114.500,29.300,8.254,573.900,154.300,41.850,12.420,hard
1379.000,336.100,76.600,18.050,1529.000,335.900,77.700,17.170,419.000,114.400,29.280,8.286,573.800,155.100,41.830,12.470,hard
1378.000,335.800,75.800,17.790,1527.000,334.800,77.490,17.020,403.400,115.600,29.100,8.290,572.400,154.700,41.350,12.330,hard
1371.000,333.300,75.890,17.560,1528.000,334.400,77.560,16.970,410.900,114.600,29.160,8.242,572.300,153.500,41.310,12.170,hard
1369.000,331.600,75.500,17.530,1528.000,334.100,77.310,16.980,420.100,114.100,29.140,8.217,570.900,153.600,41.170,12.210,hard
1367.000,332.700,75.470,17.520,1526.000,334.200,77.240,16.990,405.100,115.200,29.040,8.244,568.000,154.100,40.950,12.250,hard
1366.000,331.900,75.660,17.600,1526.000,334.100,77.270,17.000,405.500,114.900,29.110,8.236,571.000,153.200,41.230,12.170,hard
1367.000,332.200,75.900,17.600,1526.000,334.200,77.320,17.010,418.400,114.000,29.240,8.235,571.800,153.500,41.220,12.270,hard
1370.000,332.800,75.640,17.710,1532.000,334.700,77.340,17.070,407.700,115.100,29.040,8.262,569.600,154.400,41.220,12.370,hard
1371.000,332.800,75.850,17.750,1530.000,334.900,77.530,17.070,401.500,115.300,29.210,8.293,572.300,154.000,41.540,12.320,hard
1374.000,332.500,76.200,17.810,1531.000,335.200,77.640,17.120,416.200,114.400,29.340,8.257,573.800,154.400,41.740,12.390,hard
1376.000,334.200,76.340,18.000,1530.000,336.000,77.700,17.170,410.500,114.900,29.210,8.310,572.500,155.300,41.570,12.470,hard
1379.000,336.000,76.500,17.910,1528.000,335.600,77.680,17.050,398.900,115.600,29.270,8.298,573.900,155.300,41.550,12.330,hard
1372.000,333.700,75.540,17.550,1531.000,334.400,77.560,16.970,414.200,115.000,29.270,8.230,573.600,153.700,41.380,12.200,hard
1369.000,332.400,75.290,17.450,1528.000,334.400,77.180,16.980,413.400,114.900,29.210,8.246,571.900,154.300,41.080,12.210,hard
1368.000,332.400,74.880,17.430,1533.000,335.000,77.500,17.000,398.500,115.700,29.150,8.268,572.200,154.300,41.140,12.200,hard
1368.000,332.200,75.490,17.420,1529.000,333.600,77.480,16.990,410.700,115.200,29.260,8.227,573.100,153.700,41.370,12.170,hard
1368.000,331.800,75.370,17.550,1528.000,334.600,77.570,17.060,416.900,114.600,29.320,8.270,572.200,154.200,41.260,12.300,hard
1370.000,333.300,75.300,17.580,1527.000,335.400,77.710,17.140,401.900,115.700,29.140,8.300,573.100,154.900,41.380,12.350,hard
1371.000,333.400,75.630,17.690,1531.000,334.300,77.870,17.130,408.600,115.300,29.380,8.295,574.200,154.500,41.670,12.320,hard
1373.000,334.500,76.130,17.770,1533.000,336.200,77.870,17.190,418.400,115.200,29.460,8.283,576.200,155.200,41.640,12.420,hard
1375.000,334.800,76.360,17.860,1533.000,336.100,77.800,17.170,402.900,116.000,29.270,8.345,575.500,155.900,41.670,12.500,hard
1379.000,335.200,76.610,17.940,1532.000,336.500,78.010,17.180,405.000,115.800,29.420,8.340,576.800,155.800,41.980,12.400,hard
1377.000,333.800,75.900,17.680,1532.000,335.800,77.630,17.070,415.800,114.800,29.440,8.291,577.000,155.100,41.590,12.280,hard
1372.000,333.400,75.640,17.560,1529.000,335.900,77.720,17.080,411.400,115.600,29.260,8.317,575.800,155.300,41.340,12.310,hard
1370.000,331.400,75.440,17.460,1529.000,335.200,77.720,17.100,406.300,116.100,29.280,8.292,576.000,155.000,41.460,12.270,hard
1372.000,332.400,75.570,17.510,1531.000,335.500,77.720,17.100,416.400,114.800,29.500,8.291,576.000,154.900,41.580,12.270,hard
1369.000,333.400,75.360,17.540,1531.000,336.000,77.870,17.140,411.500,115.800,29.360,8.339,575.500,155.400,41.420,12.340,hard
1372.000,334.100,75.530,17.570,1536.000,335.900,77.850,17.180,401.900,116.400,29.340,8.340,576.800,155.600,41.690,12.340,hard
1374.000,332.600,76.210,17.660,1534.000,335.700,78.190,17.200,416.600,115.200,29.500,8.310,579.000,155.400,41.850,12.390,hard
1375.000,334.200,76.080,17.740,1535.000,336.600,77.690,17.280,415.700,115.800,29.480,8.369,578.700,156.200,41.770,12.480,hard
1378.000,335.800,76.320,17.800,1533.000,336.800,78.070,17.270,400.700,116.500,29.460,8.393,578.600,156.800,41.900,12.490,hard
1379.000,334.700,76.190,17.770,1536.000,336.900,77.910,17.170,413.500,115.900,29.620,8.352,580.300,156.200,41.980,12.360,hard
1373.000,334.100,75.820,17.520,1533.000,336.400,77.890,17.140,418.200,116.100,29.470,8.346,579.300,155.900,41.530,12.370,hard
1372.000,334.300,75.590,17.460,1532.000,336.100,77.960,17.180,404.800,116.700,29.360,8.349,576.900,156.100,41.520,12.330,hard
1372.000,332.700,75.360,17.460,1530.000,336.500,78.210,17.210,411.900,116.100,29.520,8.332,578.900,155.400,41.690,12.260,hard
1372.000,332.900,75.900,17.510,1533.000,336.200,77.930,17.190,420.500,115.400,29.580,8.344,578.900,155.800,41.650,12.350,hard
1371.000,334.600,75.430,17.550,1533.000,336.300,77.920,17.270,407.400,116.400,29.440,8.367,577.100,156.500,41.590,12.390,hard
1374.000,334.400,75.790,17.620,1536.000,336.800,78.160,17.250,404.300,116.200,29.510,8.360,579.700,156.000,42.010,12.350,hard
1375.000,335.100,76.340,17.700,1534.000,336.800,78.270,17.300,417.900,115.300,29.600,8.362,581.100,156.600,41.980,12.480,hard
1377.000,335.500,76.260,17.790,1534.000,337.200,78.190,17.360,408.400,116.700,29.510,8.398,579.400,157.100,41.920,12.540,hard
1378.000,335.300,76.550,17.910,1537.000,337.300,78.650,17.360,403.200,116.700,29.560,8.393,581.400,157.100,42.200,12.510,hard
1380.000,334.600,76.280,17.750,1537.000,336.100,78.190,17.210,418.700,115.700,29.640,8.362,582.500,156.400,41.870,12.370,hard
1373.000,333.100,75.500,17.480,1533.000,337.000,78.000,17.190,413.200,116.300,29.490,8.368,579.800,156.200,41.470,12.320,hard
1370.000,333.300,75.290,17.440,1532.000,336.200,78.110,17.140,403.500,116.700,29.410,8.360,579.200,155.700,41.520,12.240,hard
1369.000,333.000,75.120,17.460,1533.000,336.300,78.170,17.190,415.100,115.600,29.490,8.308,579.500,155.200,41.590,12.250,hard
1368.000,332.300,75.330,17.430,1532.000,336.100,78.120,17.240,416.200,115.900,29.450,8.340,576.800,155.400,41.280,12.310,hard
1369.000,333.100,75.390,17.470,1527.000,336.800,78.200,17.310,397.400,116.400,29.390,8.363,577.200,155.600,41.440,12.310,hard
1370.000,333.300,75.710,17.550,1534.000,336.600,78.340,17.350,410.100,115.300,29.530,8.350,579.100,155.000,41.790,12.300,hard
1371.000,334.000,75.990,17.620,1530.000,337.100,78.190,17.390,416.100,115.200,29.540,8.386,577.900,155.800,41.680,12.420,hard
1373.000,333.800,75.900,17.690,1535.000,337.000,78.450,17.350,399.900,116.400,29.410,8.422,577.400,156.200,41.730,12.470,hard
1374.000,334.400,76.260,17.820,1533.000,336.800,78.420,17.390,407.800,116.000,29.540,8.378,578.800,155.800,42.010,12.430,hard
1376.000,335.700,76.360,17.810,1536.000,336.900,78.340,17.340,414.500,115.400,29.640,8.382,578.700,155.800,41.750,12.380,hard
1371.000,334.600,75.530,17.470,1533.000,337.200,78.300,17.220,403.200,116.400,29.350,8.375,576.500,155.900,41.390,12.270,hard
1368.000,331.700,75.190,17.370,1528.000,335.600,77.920,17.260,404.800,115.700,29.450,8.341,576.400,154.600,41.270,12.140,hard
1363.000,329.900,75.160,17.360,1528.000,335.900,78.000,17.260,414.300,114.300,29.520,8.313,575.200,154.400,41.140,12.180,hard
1363.000,331.300,75.180,17.380,1525.000,336.800,78.040,17.270,406.400,115.900,29.300,8.360,572.700,154.600,41.000,12.210,hard
1363.000,332.000,75.000,17.360,1528.000,336.100,78.220,17.320,401.000,115.800,29.400,8.338,572.600,154.200,41.310,12.180,hard
1364.000,330.800,75.390,17.430,1529.000,336.000,78.360,17.320,412.600,114.900,29.450,8.325,574.100,154.200,41.250,12.210,hard
1366.000,331.900,75.450,17.480,1527.000,336.900,78.260,17.380,407.700,115.400,29.410,8.379,571.100,154.700,41.190,12.340,hard
1367.000,333.500,75.120,17.630,1529.000,336.200,78.640,17.370,396.000,115.600,29.360,8.388,572.500,154.800,41.450,12.300,hard
1368.000,333.600,75.590,17.680,1534.000,337.200,78.620,17.440,408.800,114.700,29.510,8.355,574.800,154.300,41.690,12.340,hard
1372.000,333.600,76.090,17.670,1532.000,336.800,78.500,17.360,409.500,115.500,29.480,8.382,573.500,155.000,41.230,12.280,hard
1366.000,332.400,74.850,17.420,1528.000,336.100,78.190,17.330,394.500,116.100,29.330,8.366,571.300,154.200,41.060,12.150,hard
1362.000,330.500,75.200,17.320,1532.000,335.900,78.340,17.300,409.900,115.100,29.380,8.318,572.000,153.100,41.050,12.110,hard
1361.000,329.500,75.220,17.340,1532.000,336.000,78.110,17.340,411.300,115.000,29.370,8.337,570.200,153.500,40.860,12.160,hard
1361.000,331.800,74.750,17.420,1527.000,336.400,78.130,17.330,398.800,115.900,29.240,8.367,568.500,153.600,40.890,12.190,hard
1360.000,330.200,74.850,17.350,1530.000,336.700,78.510,17.330,405.000,115.000,29.410,8.334,570.900,153.000,41.060,12.130,hard
1362.000,330.500,75.170,17.480,1528.000,336.900,78.580,17.390,413.600,114.900,29.420,8.345,570.200,153.500,41.190,12.220,hard
1363.000,332.600,75.000,17.560,1527.000,336.800,78.520,17.440,401.100,115.800,29.320,8.391,569.100,154.500,41.120,12.330,hard
1366.000,332.400,75.420,17.680,1528.000,337.400,78.720,17.450,400.700,115.400,29.450,8.378,572.200,154.300,41.400,12.270,hard
1368.000,332.200,75.770,17.740,1534.000,337.100,78.690,17.450,413.000,115.100,29.600,8.376,573.100,154.600,41.570,12.320,hard
1368.000,334.100,75.350,17.580,1529.000,337.400,78.380,17.350,402.700,115.800,29.390,8.401,570.000,154.100,40.910,12.220,hard
1362.000,331.200,74.900,17.360,1529.000,336.700,78.370,17.370,399.800,115.900,29.370,8.351,570.600,153.300,41.050,12.070,hard
1358.000,329.200,74.830,17.230,1531.000,335.300,78.430,17.320,411.500,114.600,29.470,8.325,569.300,152.600,40.960,12.070,hard
1358.000,329.400,74.390,17.290,1528.000,336.100,78.130,17.340,408.800,115.400,29.390,8.356,567.800,153.300,40.680,12.120,hard
1357.000,329.700,74.550,17.300,1525.000,336.200,78.220,17.310,396.100,115.900,29.370,8.366,567.400,152.900,40.800,12.090,hard
1357.000,329.500,74.780,17.290,1528.000,336.000,78.360,17.320,411.300,115.100,29.480,8.339,568.800,152.800,40.950,12.150,hard
1358.000,329.500,75.250,17.490,1531.000,336.800,78.640,17.440,408.100,115.400,29.460,8.386,567.800,153.400,40.930,12.230,hard
1360.000,331.400,75.230,17.540,1529.000,337.400,78.770,17.460,394.900,116.200,29.410,8.413,568.100,153.900,41.190,12.260,hard
1363.000,331.500,75.660,17.580,1527.000,336.400,78.780,17.440,407.800,115.600,29.660,8.386,570.700,153.500,41.390,12.240,hard
1366.000,332.400,75.560,17.710,1531.000,338.300,78.930,17.510,413.200,115.400,29.550,8.418,571.500,154.300,41.320,12.350,hard
1367.000,333.000,75.430,17.670,1533.000,336.900,78.350,17.370,398.500,116.200,29.460,8.434,570.600,154.300,41.120,12.220,hard
1360.000,329.600,74.820,17.310,1532.000,336.600,78.460,17.300,405.200,115.500,29.540,8.360,570.300,152.900,41.170,12.080,hard
1358.000,329.200,74.640,17.290,1531.000,335.800,78.360,17.330,414.000,115.300,29.530,8.356,570.200,152.900,40.780,12.090,hard
1357.000,330.600,74.490,17.280,1526.000,337.300,78.320,17.350,402.500,116.000,29.400,8.390,567.000,153.400,40.790,12.130,hard
1357.000,329.900,74.650,17.250,1532.000,336.800,78.540,17.350,402.800,115.700,29.470,8.392,569.400,152.900,40.990,12.080,hard
1357.000,329.400,75.110,17.340,1529.000,337.600,78.830,17.360,416.800,114.900,29.610,8.382,569.100,153.100,41.000,12.140,hard
1360.000,330.200,74.810,17.440,1529.000,337.300,78.570,17.460,404.200,116.000,29.560,8.423,568.200,153.700,40.910,12.240,hard
1361.000,330.300,75.270,17.500,1534.000,337.500,78.840,17.460,399.700,115.900,29.560,8.429,571.900,154.100,41.360,12.210,hard
1364.000,331.200,75.460,17.560,1532.000,337.400,78.820,17.520,413.000,115.700,29.750,8.411,572.400,154.200,41.540,12.300,hard
1366.000,332.700,75.770,17.700,1531.000,338.800,78.930,17.550,409.200,116.200,29.690,8.457,572.000,155.200,41.290,12.420,hard
1369.000,333.000,75.650,17.630,1534.000,337.900,78.650,17.390,398.300,116.600,29.690,8.442,573.100,154.500,41.330,12.220,hard
1362.000,331.000,75.210,17.360,1534.000,337.000,78.510,17.390,413.600,115.900,29.720,8.399,573.200,153.600,41.270,12.190,hard
1361.000,330.500,74.900,17.350,1534.000,337.300,78.550,17.350,414.000,116.100,29.600,8.440,571.900,154.100,41.050,12.220,hard
1360.000,331.300,74.890,17.410,1531.000,337.300,78.720,17.380,399.300,117.000,29.620,8.455,571.600,154.100,41.170,12.190,hard
1360.000,330.200,74.930,17.350,1533.000,338.100,78.800,17.400,410.500,116.200,29.780,8.408,573.500,153.800,41.400,12.190,hard
1362.000,331.000,75.280,17.460,1535.000,337.500,78.810,17.480,418.300,116.100,29.750,8.461,573.900,154.600,41.220,12.270,hard
1364.000,332.500,75.340,17.580,1535.000,338.000,78.690,17.480,401.700,116.700,29.690,8.495,573.800,155.300,41.420,12.350,hard
1367.000,332.000,75.910,17.660,1536.000,338.400,78.830,17.510,409.700,116.800,29.830,8.479,576.100,154.900,41.760,12.350,hard
1370.000,333.600,76.150,17.800,1539.000,337.800,78.760,17.530,416.600,116.100,29.910,8.469,577.000,156.000,41.740,12.450,hard
1372.000,335.400,76.430,17.870,1535.000,339.200,78.910,17.500,403.200,117.300,29.810,8.511,577.000,156.700,41.750,12.500,hard
1372.000,334.100,75.690,17.640,1538.000,337.900,78.750,17.330,406.100,116.900,29.860,8.468,577.800,155.400,41.610,12.260,hard
1367.000,331.200,75.460,17.530,1535.000,337.300,78.600,17.340,419.800,116.200,29.930,8.430,577.100,155.200,41.470,12.230,hard
1365.000,331.400,74.880,17.460,1533.000,337.400,78.670,17.370,408.600,117.200,29.720,8.479,574.000,155.300,41.240,12.290,hard
1365.000,331.300,75.220,17.500,1535.000,337.200,78.870,17.360,404.900,116.900,29.800,8.461,575.900,155.000,41.500,12.240,hard
1366.000,331.800,75.170,17.410,1534.000,337.700,78.660,17.360,417.100,116.200,29.900,8.448,577.500,155.000,41.540,12.280,hard
1366.000,331.700,75.500,17.530,1532.000,337.500,78.690,17.350,413.000,117.200,29.800,8.494,574.700,156.000,41.480,12.360,hard
1368.000,333.800,75.530,17.660,1535.000,338.400,78.640,17.460,400.800,117.300,29.770,8.511,578.300,156.100,41.780,12.390,hard
1370.000,333.100,75.960,17.660,1539.000,337.800,78.780,17.440,414.700,116.700,30.050,8.471,579.000,156.000,41.920,12.420,hard
1372.000,333.800,76.120,17.830,1539.000,338.700,78.980,17.460,415.400,117.100,29.970,8.507,580.100,156.700,41.930,12.550,hard
1375.000,334.500,76.500,17.890,1540.000,339.400,78.840,17.530,401.300,118.100,29.880,8.521,579.600,157.500,42.170,12.570,hard
1377.000,335.600,76.690,17.850,1538.000,337.500,78.720,17.380,414.200,117.000,30.020,8.495,581.600,156.200,41.940,12.380,hard
1371.000,333.000,75.750,17.590,1536.000,337.300,78.550,17.320,418.600,117.100,29.970,8.460,579.900,156.500,41.520,12.360,hard
1368.000,333.100,75.110,17.480,1531.000,338.000,78.570,17.320,403.900,117.600,29.770,8.482,578.300,156.600,41.510,12.310,hard
1366.000,332.100,75.600,17.480,1534.000,337.500,78.510,17.290,410.800,117.000,29.900,8.440,579.700,155.700,41.850,12.290,hard
1367.000,332.400,75.600,17.550,1536.000,337.700,78.470,17.310,420.800,116.300,29.960,8.467,579.300,156.000,41.650,12.380,hard
1367.000,333.200,75.370,17.610,1533.000,337.500,78.590,17.370,408.900,117.800,29.870,8.499,578.600,156.400,41.630,12.400,hard
1369.000,333.100,75.740,17.620,1539.000,337.900,78.720,17.370,409.600,117.300,29.860,8.474,579.300,156.500,41.960,12.400,hard
1371.000,333.500,75.860,17.700,1535.000,337.900,78.720,17.420,420.700,116.700,30.000,8.491,581.400,156.800,42.040,12.470,hard
1373.000,334.600,76.430,17.840,1536.000,338.600,78.660,17.440,412.300,118.100,29.900,8.524,579.300,157.500,41.980,12.560,hard
1375.000,335.400,76.370,17.890,1537.000,338.300,78.710,17.420,407.800,118.000,29.960,8.520,582.100,157.300,42.200,12.500,hard
1374.000,333.700,76.200,17.650,1537.000,337.800,78.550,17.300,420.400,116.700,30.050,8.462,582.500,156.400,41.900,12.370,hard
1368.000,332.000,75.500,17.550,1529.000,337.400,78.300,17.300,414.600,117.400,29.860,8.495,579.900,156.900,41.610,12.410,hard
1367.000,332.800,75.800,17.520,1534.000,337.800,78.330,17.290,406.300,117.500,29.740,8.479,580.500,156.400,41.820,12.360,hard
1369.000,331.800,75.570,17.500,1529.000,336.600,78.340,17.280,417.500,116.900,29.950,8.439,580.500,155.900,41.760,12.340,hard
1368.000,333.800,75.210,17.580,1532.000,337.000,78.230,17.310,416.400,117.200,29.850,8.472,579.500,156.700,41.600,12.400,hard
1368.000,333.300,75.410,17.630,1531.000,338.000,78.430,17.360,401.800,117.800,29.750,8.479,579.500,156.700,41.790,12.450,hard
1372.000,334.000,76.140,17.680,1537.000,336.400,78.650,17.380,412.700,117.000,29.970,8.456,581.000,156.400,42.110,12.440,hard
1374.000,335.200,76.330,17.830,1538.000,337.700,78.760,17.410,418.100,116.900,29.950,8.505,581.700,157.200,42.180,12.570,hard
1375.000,335.500,76.220,17.920,1536.000,338.000,78.850,17.450,403.800,117.300,29.870,8.529,581.000,157.800,42.100,12.580,hard
1378.000,336.200,76.590,17.930,1537.000,337.400,78.420,17.310,410.400,117.400,30.030,8.491,583.300,156.600,42.180,12.390,hard
1372.000,332.200,75.800,17.560,1533.000,336.700,78.090,17.260,421.300,116.800,29.940,8.448,581.200,156.300,41.660,12.350,hard
1368.000,333.300,75.240,17.520,1529.000,335.800,78.080,17.270,409.900,117.800,29.680,8.472,579.000,156.300,41.570,12.340,hard
1366.000,333.700,75.880,17.460,1530.000,336.800,78.270,17.270,411.100,117.600,29.740,8.451,579.200,155.800,41.640,12.280,hard
1366.000,331.800,75.570,17.470,1532.000,337.000,78.240,17.260,421.500,116.100,29.770,8.442,580.200,155.600,41.510,12.300,hard
1365.000,332.600,75.190,17.510,1530.000,337.200,78.500,17.300,409.200,117.400,29.660,8.466,577.500,156.500,41.310,12.410,hard
1368.000,333.400,75.660,17.650,1532.000,337.600,78.740,17.520,406.300,117.100,29.760,8.450,578.600,155.300,41.960,12.440,hard
1404.000,351.200,79.800,18.640,1751.000,385.000,84.590,18.680,453.200,117.700,30.190,8.453,617.700,163.600,43.490,12.660,hard
1720.000,407.500,86.600,19.730,1859.000,404.200,87.280,18.890,485.500,127.100,30.690,8.573,642.500,171.500,44.350,12.870,hard
1748.000,410.200,86.970,19.680,1845.000,401.900,86.950,18.760,467.200,128.400,30.950,8.603,634.100,170.000,44.720,12.860,hard
1740.000,410.400,86.860,19.480,1840.000,399.200,86.390,18.570,476.300,126.400,31.120,8.537,632.700,168.100,44.420,12.660,hard
1723.000,404.600,85.290,19.150,1832.000,396.900,85.850,18.530,471.200,126.200,30.890,8.530,627.800,167.600,43.740,12.640,hard
1716.000,402.800,85.150,19.040,1824.000,396.800,85.830,18.510,447.500,126.400,30.720,8.535,625.000,166.600,43.550,12.490,hard
1711.000,399.700,85.000,18.970,1827.000,395.900,85.860,18.450,455.000,124.600,30.800,8.477,622.800,165.100,43.590,12.480,hard
1707.000,398.700,84.480,18.950,1816.000,394.700,85.630,18.470,453.300,123.700,30.690,8.499,621.100,165.200,43.240,12.510,hard
1700.000,397.100,84.510,18.990,1812.000,393.800,85.640,18.470,433.200,123.900,30.500,8.520,617.800,164.400,43.150,12.530,hard
1698.000,397.200,84.480,19.060,1807.000,393.300,85.770,18.450,440.400,122.600,30.610,8.501,617.700,163.600,43.380,12.470,hard
1693.000,397.000,84.800,19.090,1810.000,393.300,85.730,18.510,444.500,121.700,30.610,8.490,616.900,163.700,43.170,12.580,hard
1690.000,397.200,84.710,19.200,1800.000,392.200,85.500,18.540,429.600,122.300,30.470,8.505,614.800,163.600,43.100,12.630,hard
1688.000,395.800,84.340,19.260,1797.000,391.800,85.500,18.530,430.600,121.600,30.530,8.493,616.100,163.000,43.300,12.560,hard
1683.000,395.900,84.500,19.020,1790.000,390.400,84.920,18.380,441.100,120.400,30.580,8.480,615.200,162.600,42.910,12.480,hard
1669.000,392.900,83.420,18.810,1788.000,388.800,84.900,18.360,430.600,121.600,30.250,8.471,612.000,161.900,42.450,12.430,hard
1661.000,389.700,83.120,18.700,1781.000,387.900,84.930,18.350,425.500,121.200,30.240,8.454,610.400,160.900,42.490,12.360,hard
1659.000,389.600,83.180,18.670,1780.000,387.900,84.780,18.360,437.600,120.200,30.280,8.432,611.000,160.800,42.540,12.340,hard
1653.000,389.000,82.790,18.660,1772.000,387.600,84.360,18.310,432.700,120.600,30.220,8.465,607.900,160.900,42.170,12.420,hard
1650.000,387.300,82.610,18.730,1768.000,387.000,84.730,18.330,419.400,121.000,30.150,8.469,607.500,160.700,42.370,12.390,hard
1647.000,386.200,82.960,18.800,1771.000,386.600,84.600,18.370,434.300,119.600,30.300,8.442,608.500,160.500,42.570,12.420,hard
1645.000,387.200,83.240,18.910,1765.000,386.400,84.540,18.430,432.600,119.800,30.270,8.469,606.500,161.200,42.370,12.540,hard
1644.000,388.100,83.230,19.020,1760.000,386.200,84.430,18.360,417.300,120.800,30.140,8.503,607.000,161.200,42.570,12.530,hard
1644.000,387.900,83.180,18.880,1763.000,384.800,84.130,18.250,431.100,119.900,30.260,8.456,606.400,159.700,42.400,12.320,hard
1632.000,384.500,81.930,18.610,1757.000,384.200,83.890,18.200,435.400,119.300,30.080,8.430,603.800,159.500,41.940,12.310,hard
1626.000,383.800,81.660,18.490,1747.000,383.800,83.740,18.200,421.300,120.300,29.920,8.439,602.100,159.000,41.790,12.280,hard
1621.000,383.300,81.380,18.450,1753.000,383.600,83.680,18.160,425.000,119.700,30.080,8.403,601.700,158.300,42.030,12.210,hard
1618.000,380.700,81.620,18.420,1751.000,382.800,83.570,18.200,433.200,119.000,30.020,8.400,601.500,158.600,41.710,12.280,hard
1616.000,382.300,81.580,18.570,1747.000,382.300,83.510,18.210,421.600,119.700,29.870,8.431,599.000,159.100,41.770,12.330,hard
1617.000,383.000,81.740,18.600,1746.000,384.000,83.840,18.250,420.100,119.400,29.960,8.432,599.900,158.600,42.090,12.300,hard
1616.000,381.900,82.040,18.680,1747.000,382.600,83.670,18.270,430.900,118.600,30.110,8.416,601.300,158.900,42.080,12.430,hard
1616.000,383.500,82.060,18.770,1749.000,383.300,83.590,18.330,423.300,119.800,29.920,8.469,599.500,159.500,42.050,12.480,hard
1617.000,383.700,82.310,18.940,1749.000,382.800,83.840,18.290,415.200,119.400,30.050,8.464,600.900,159.200,42.390,12.440,hard
1617.000,381.600,81.910,18.630,1742.000,381.400,83.460,18.100,429.100,118.500,30.110,8.400,600.400,158.300,41.950,12.280,hard
1607.000,379.300,80.780,18.450,1739.000,381.800,83.360,18.140,427.200,119.400,29.880,8.400,597.700,158.100,41.440,12.250,hard
1603.000,378.700,80.750,18.320,1736.000,380.600,83.080,18.070,412.300,119.400,29.810,8.405,597.100,157.300,41.510,12.160,hard
1600.000,377.300,80.750,18.370,1739.000,380.500,83.310,18.060,427.500,118.500,29.910,8.365,596.700,156.700,41.600,12.140,hard
1598.000,377.100,80.790,18.360,1734.000,381.100,82.980,18.090,426.900,118.500,29.810,8.378,594.300,157.200,41.340,12.230,hard
1598.000,377.000,80.730,18.450,1737.000,380.400,83.230,18.140,413.500,118.900,29.690,8.411,594.100,157.100,41.610,12.250,hard
1598.000,376.300,81.340,18.480,1735.000,380.500,83.010,18.150,424.000,118.100,29.860,8.366,596.500,157.000,41.730,12.250,hard
1599.000,379.400,81.270,18.590,1734.000,380.100,83.290,18.190,427.400,118.600,29.860,8.398,595.600,157.900,41.710,12.360,hard
1601.000,379.900,81.480,18.720,1729.000,381.500,83.220,18.270,412.400,118.800,29.760,8.433,593.800,158.100,41.840,12.400,hard
1602.000,379.400,81.800,18.780,1738.000,381.300,83.450,18.210,421.600,118.400,29.890,8.401,597.800,157.900,42.200,12.410,hard
1605.000,379.900,81.720,18.740,1730.000,380.200,83.080,18.120,429.600,118.000,29.920,8.389,597.300,157.900,41.710,12.300,hard
1595.000,377.700,80.520,18.500,1731.000,380.100,83.110,18.050,416.800,118.900,29.620,8.376,594.100,157.800,41.360,12.260,hard
1591.000,377.000,80.820,18.380,1731.000,379.200,82.920,18.040,419.100,118.500,29.780,8.344,595.200,156.600,41.630,12.160,hard
1589.000,374.500,80.470,18.390,1728.000,379.600,82.920,18.070,428.200,117.700,29.820,8.360,594.900,157.000,41.500,12.210,hard
1589.000,374.500,80.340,18.320,1729.000,379.200,82.850,18.080,418.700,119.000,29.740,8.382,592.400,157.100,41.310,12.260,hard
1588.000,375.000,80.240,18.400,1728.000,378.600,83.050,18.110,416.800,118.600,29.720,8.382,594.000,156.600,41.660,12.230,hard
1589.000,374.700,80.770,18.480,1729.000,378.600,82.950,18.130,427.000,117.500,29.880,8.361,594.700,156.800,41.790,12.290,hard
1590.000,376.300,81.180,18.610,1727.000,379.100,82.970,18.160,419.900,118.900,29.790,8.408,595.100,157.800,41.700,12.380,hard
1591.000,377.200,80.830,18.690,1731.000,379.300,83.210,18.140,412.600,118.900,29.780,8.406,596.700,157.900,42.000,12.430,hard
1592.000,377.700,81.570,18.740,1729.000,379.200,82.890,18.100,425.100,118.000,29.880,8.378,597.500,157.300,42.080,12.340,hard
1587.000,375.400,80.520,18.360,1723.000,378.200,82.650,18.030,426.000,118.500,29.740,8.380,594.500,157.400,41.420,12.270,hard
1582.000,373.800,80.060,18.330,1724.000,378.000,82.630,18.020,411.600,118.600,29.630,8.384,593.300,156.800,41.500,12.230,hard
1579.000,373.400,80.040,18.270,1723.000,378.100,82.850,18.040,424.400,118.000,29.810,8.327,594.500,156.600,41.650,12.230,hard
1580.000,373.000,80.150,18.290,1723.000,377.600,82.700,18.040,427.300,118.100,29.790,8.343,593.200,156.800,41.450,12.250,hard
1578.000,374.000,80.170,18.330,1722.000,377.400,82.800,18.040,411.100,118.800,29.600,8.380,592.700,157.000,41.470,12.290,hard
1580.000,374.600,80.420,18.470,1721.000,377.800,82.770,18.070,418.300,118.200,29.760,8.351,594.400,157.000,41.830,12.260,hard
1581.000,374.600,80.560,18.510,1725.000,378.000,82.780,18.080,429.300,118.200,29.830,8.377,595.200,157.700,41.850,12.400,hard
1582.000,376.100,80.580,18.640,1727.000,377.100,83.010,18.170,415.500,118.900,29.660,8.397,595.100,158.200,41.900,12.440,hard
1583.000,376.000,81.160,18.720,1727.000,377.400,83.190,18.200,417.300,118.800,29.830,8.381,598.000,158.200,42.260,12.440,hard
1585.000,375.500,81.470,18.730,1724.000,377.800,82.920,18.090,427.100,117.500,29.870,8.359,599.200,157.800,41.980,12.340,hard
1579.000,373.800,80.150,18.380,1718.000,377.300,82.460,18.010,421.300,118.600,29.620,8.374,595.200,157.800,41.590,12.300,hard
1574.000,372.200,79.970,18.240,1721.000,377.100,82.420,17.950,415.100,118.700,29.640,8.340,595.800,156.800,41.530,12.170,hard
1571.000,370.900,79.950,18.210,1717.000,376.700,82.440,17.950,428.000,117.300,29.660,8.310,597.100,157.000,41.520,12.200,hard
1571.000,372.900,79.910,18.300,1714.000,377.300,82.460,17.950,423.200,118.100,29.670,8.354,593.900,157.000,41.480,12.280,hard
1569.000,373.200,79.730,18.330,1717.000,376.100,82.660,18.010,411.000,118.700,29.600,8.353,595.100,157.100,41.680,12.270,hard
1571.000,372.500,80.180,18.400,1717.000,376.200,82.710,18.020,425.600,117.500,29.780,8.335,596.600,157.000,41.920,12.300,hard
1572.000,372.100,80.420,18.510,1714.000,376.600,82.530,18.070,425.300,118.100,29.710,8.384,596.400,158.000,41.720,12.430,hard
1575.000,373.500,80.260,18.610,1718.000,376.900,82.710,18.130,412.000,118.900,29.690,8.392,596.900,158.400,42.050,12.430,hard
1576.000,374.300,80.670,18.660,1716.000,376.500,82.580,18.140,422.100,118.100,29.840,8.364,598.600,158.100,42.290,12.460,hard
1578.000,375.200,81.100,18.660,1719.000,376.500,82.400,18.000,428.400,117.900,29.830,8.368,599.500,158.700,42.010,12.410,hard
1570.000,373.500,79.930,18.390,1712.000,376.000,82.330,17.960,413.400,118.900,29.620,8.361,597.000,158.100,41.650,12.300,hard
1567.000,371.100,79.780,18.200,1715.000,376.200,82.310,17.930,419.900,117.900,29.700,8.308,598.100,157.300,41.690,12.230,hard
1564.000,370.400,79.470,18.210,1707.000,375.100,82.170,17.960,432.200,117.800,29.740,8.320,597.400,158.000,41.660,12.280,hard
1564.000,371.600,79.580,18.270,1707.000,375.100,82.130,17.930,416.600,118.700,29.610,8.346,596.300,157.900,41.510,12.280,hard
1564.000,371.700,79.750,18.300,1712.000,375.000,82.260,17.940,418.200,118.400,29.710,8.334,598.200,157.300,41.890,12.270,hard
1564.000,371.700,80.090,18.330,1712.000,375.200,82.260,17.990,428.900,117.800,29.820,8.349,599.300,158.100,41.870,12.380,hard
1565.000,372.400,79.970,18.500,1707.000,376.100,82.400,18.020,417.900,118.700,29.710,8.372,597.500,158.900,41.820,12.430,hard
1567.000,373.400,80.210,18.530,1711.000,375.900,82.590,18.050,416.200,118.900,29.710,8.377,600.400,158.800,42.160,12.450,hard
1569.000,373.300,80.650,18.610,1712.000,375.300,82.670,18.080,429.500,118.300,29.880,8.358,601.900,159.000,42.410,12.490,hard
1570.000,373.400,80.230,18.470,1706.000,374.900,82.300,17.960,423.600,118.700,29.810,8.383,600.300,158.800,41.750,12.380,hard
1561.000,370.500,79.460,18.260,1711.000,374.700,82.220,17.900,414.500,119.200,29.660,8.358,599.700,158.100,41.860,12.300,hard
1560.000,371.300,79.870,18.160,1708.000,374.700,82.010,17.950,425.600,118.100,29.770,8.327,601.200,157.800,41.850,12.300,hard
1559.000,369.300,79.910,18.270,1704.000,374.600,82.090,17.930,427.100,118.500,29.690,8.356,600.000,158.300,41.680,12.320,hard
1558.000,371.100,79.660,18.200,1707.000,375.500,82.320,17.950,415.000,119.200,29.660,8.360,599.400,158.600,41.800,12.320,hard
1559.000,369.900,79.960,18.280,1707.000,374.400,82.250,17.960,425.400,118.300,29.820,8.343,601.400,158.300,42.100,12.350,hard
1561.000,371.200,79.830,18.400,1705.000,374.300,82.090,18.030,432.200,118.400,29.830,8.373,600.900,159.100,42.040,12.480,hard
1564.000,371.400,80.180,18.540,1703.000,375.400,82.380,18.040,414.800,119.200,29.790,8.410,601.200,159.600,42.170,12.520,hard
1566.000,372.000,80.550,18.590,1707.000,375.500,82.390,18.050,421.800,118.600,29.930,8.375,605.000,159.400,42.390,12.480,hard
1568.000,373.900,80.980,18.660,1710.000,376.000,82.430,18.040,431.000,118.300,29.930,8.400,604.800,159.900,42.290,12.500,hard
1565.000,372.900,79.950,18.330,1706.000,374.300,82.170,17.890,417.600,119.300,29.730,8.404,601.700,159.300,41.830,12.390,hard
1558.000,370.800,79.580,18.160,1705.000,374.300,82.050,17.870,421.400,118.900,29.790,8.354,603.300,158.500,41.960,12.260,hard
1555.000,369.200,79.520,18.110,1705.000,373.600,82.140,17.870,433.300,118.200,29.830,8.333,602.300,158.600,41.830,12.310,hard
1555.000,369.800,79.350,18.170,1700.000,374.400,82.050,17.910,422.800,119.000,29.700,8.380,600.800,158.800,41.670,12.350,hard
1553.000,370.000,79.460,18.120,1702.000,374.900,82.060,17.970,419.200,119.400,29.740,8.384,602.100,158.400,42.070,12.320,hard
1555.000,368.700,79.600,18.220,1704.000,374.200,82.150,18.010,431.600,118.100,29.880,8.359,602.600,158.500,42.170,12.390,hard
1555.000,369.200,79.750,18.380,1700.000,375.200,82.290,18.040,425.500,119.100,29.750,8.402,601.700,159.500,41.850,12.500,hard
1557.000,371.000,79.770,18.420,1705.000,374.300,82.500,18.030,415.400,119.100,29.800,8.414,603.200,159.200,42.300,12.480,hard
1560.000,371.400,80.210,18.470,1707.000,375.700,82.490,18.090,427.500,118.200,29.970,8.386,605.400,159.400,42.420,12.500,hard
1562.000,372.400,80.230,18.630,1705.000,375.800,82.640,18.130,425.800,119.000,29.900,8.438,603.900,160.100,42.280,12.590,hard
1561.000,371.600,79.610,18.380,1701.000,375.100,82.180,17.900,413.600,119.500,29.740,8.418,603.200,159.300,42.020,12.370,hard
1554.000,369.400,79.290,18.130,1700.000,374.000,82.320,17.930,426.000,118.500,29.830,8.352,604.500,158.600,41.960,12.280,hard
1551.000,368.100,78.780,18.100,1697.000,374.300,82.230,17.940,430.100,118.300,29.810,8.369,602.000,158.700,41.740,12.320,hard
1548.000,368.600,78.860,18.100,1703.000,374.800,82.060,17.950,415.300,119.400,29.640,8.375,600.800,158.400,41.730,12.270,hard
1548.000,370.000,79.120,18.070,1702.000,374.300,82.330,17.940,424.300,118.700,29.730,8.370,603.200,157.900,41.950,12.260,hard
1548.000,369.200,79.210,18.220,1701.000,374.400,82.240,18.050,432.000,118.000,29.810,8.360,602.800,158.500,41.960,12.380,hard
1550.000,369.900,79.380,18.270,1698.000,375.100,82.260,18.080,417.200,118.900,29.680,8.401,601.400,159.000,41.860,12.460,hard
1552.000,371.000,79.740,18.370,1703.000,375.100,82.790,18.100,418.600,118.800,29.810,8.385,602.000,158.900,42.230,12.420,hard
1554.000,370.500,80.100,18.510,1701.000,374.600,82.570,18.100,431.200,117.700,29.950,8.389,603.500,158.900,42.260,12.520,hard
1556.000,370.700,80.170,18.590,1698.000,375.700,82.710,18.150,421.300,118.800,29.820,8.429,603.100,160.000,42.260,12.580,hard
1557.000,371.400,79.910,18.460,1701.000,374.800,82.320,18.030,417.300,119.200,29.880,8.420,603.900,159.000,42.120,12.360,hard
1548.000,369.500,79.450,18.120,1701.000,374.700,82.210,17.950,432.700,117.800,29.940,8.347,604.500,158.700,41.960,12.320,hard
1547.000,369.100,78.920,18.110,1694.000,374.800,82.160,18.010,424.100,118.700,29.660,8.386,602.200,158.700,41.700,12.360,hard
1546.000,369.500,78.940,18.190,1694.000,374.100,82.310,17.990,415.300,119.400,29.730,8.399,601.900,158.900,41.900,12.330,hard
1546.000,367.600,79.130,18.150,1698.000,374.000,82.520,17.990,428.500,118.200,29.850,8.332,602.400,157.900,41.970,12.300,hard
1546.000,369.100,79.490,18.170,1690.000,374.700,82.330,18.080,428.300,118.500,29.780,8.385,600.100,158.900,41.860,12.420,hard
1548.000,369.600,79.690,18.340,1700.000,374.700,82.460,18.100,412.400,119.000,29.670,8.393,601.000,158.800,42.150,12.430,hard
1549.000,370.600,80.160,18.360,1695.000,374.600,82.610,18.100,424.800,118.300,29.910,8.383,603.000,158.700,42.280,12.460,hard
1552.000,369.600,80.130,18.500,1700.000,375.100,82.660,18.130,428.500,118.100,29.890,8.389,603.400,159.700,42.280,12.550,hard
1554.000,371.000,80.250,18.510,1698.000,375.100,82.340,18.020,412.200,118.700,29.690,8.421,602.300,159.500,42.010,12.420,hard
1548.000,367.800,79.290,18.120,1697.000,373.800,82.230,17.940,420.300,118.300,29.730,8.355,602.600,157.700,41.860,12.280,hard
1544.000,368.000,79.070,18.080,1693.000,373.500,82.130,17.900,428.200,117.700,29.820,8.334,600.900,157.800,41.620,12.300,hard
1542.000,367.600,78.930,18.120,1690.000,373.900,82.020,17.970,416.900,118.300,29.490,8.364,599.100,158.300,41.560,12.290,hard
1541.000,367.900,78.670,18.100,1695.000,373.100,82.280,17.950,418.500,118.100,29.640,8.341,600.700,157.800,41.780,12.220,hard
1540.000,367.200,79.390,18.140,1694.000,373.200,82.230,18.000,429.400,117.400,29.760,8.329,600.600,157.600,41.790,12.300,hard
1542.000,368.300,79.170,18.280,1694.000,373.500,82.170,18.040,417.700,118.500,29.630,8.379,597.800,158.300,41.670,12.420,hard
1544.000,369.300,80.070,18.350,1693.000,373.800,82.470,18.040,413.600,118.700,29.680,8.372,600.000,158.200,42.070,12.390,hard
1548.000,367.900,79.610,18.410,1693.000,373.500,82.450,18.090,425.200,117.500,29.820,8.361,601.300,158.400,42.170,12.480,hard
1549.000,369.800,80.180,18.540,1695.000,375.100,82.490,18.110,419.700,118.200,29.740,8.391,600.300,159.200,42.050,12.560,hard
1551.000,371.500,80.500,18.660,1694.000,373.800,82.270,18.020,411.900,118.700,29.790,8.420,601.700,159.300,42.170,12.440,hard
1547.000,368.800,79.680,18.190,1690.000,372.700,82.120,17.920,428.900,117.800,29.750,8.322,602.100,157.800,41.880,12.280,hard
1542.000,366.300,79.290,18.140,1689.000,373.100,81.940,17.940,428.500,118.100,29.630,8.350,599.400,158.100,41.530,12.290,hard
1540.000,367.700,78.720,18.120,1689.000,373.400,81.950,17.950,409.600,118.600,29.550,8.340,597.800,157.800,41.670,12.290,hard
1539.000,367.300,79.020,18.090,1691.000,371.900,82.160,17.900,424.200,117.800,29.680,8.316,599.100,157.300,41.770,12.230,hard
1539.000,367.300,78.890,18.220,1688.000,372.100,82.050,17.950,428.100,117.800,29.640,8.348,598.600,157.600,41.540,12.330,hard
1540.000,370.100,79.150,18.240,1690.000,372.800,82.170,18.020,412.100,118.600,29.490,8.382,597.600,158.400,41.730,12.360,hard
1542.000,369.000,79.690,18.330,1691.000,373.000,82.400,18.030,419.100,118.000,29.700,8.353,600.100,157.900,42.020,12.360,hard
1544.000,368.200,79.710,18.350,1693.000,373.200,82.370,18.090,430.200,117.300,29.720,8.375,600.700,158.500,42.090,12.490,hard
1547.000,369.000,79.770,18.500,1690.000,373.100,82.370,18.130,414.400,118.600,29.600,8.409,599.900,159.200,42.080,12.510,hard
1548.000,370.100,80.260,18.590,1694.000,373.700,82.670,18.120,418.100,118.200,29.830,8.384,602.600,159.200,42.490,12.520,hard
1551.000,369.700,80.550,18.530,1692.000,373.300,82.230,17.970,428.600,117.500,29.780,8.376,602.900,158.900,42.150,12.450,hard
1542.000,368.600,79.400,18.200,1684.000,372.500,81.840,17.920,419.000,118.500,29.680,8.375,599.900,158.900,41.740,12.380,hard
1540.000,367.400,79.180,18.120,1684.000,372.400,81.600,17.910,414.400,118.300,29.620,8.356,600.400,158.200,41.840,12.300,hard
1538.000,365.900,79.220,18.110,1685.000,372.100,82.130,17.930,429.200,117.100,29.700,8.343,601.400,158.300,41.830,12.320,hard
1539.000,365.800,79.380,18.190,1686.000,372.900,81.970,17.910,423.300,118.000,29.610,8.374,599.000,158.400,41.610,12.370,hard
1539.000,367.700,79.260,18.160,1686.000,372.200,82.200,17.950,412.700,118.500,29.620,8.367,599.500,158.400,41.870,12.340,hard
1540.000,368.200,79.260,18.280,1685.000,372.100,82.010,17.970,427.800,117.500,29.710,8.333,601.100,158.000,42.080,12.390,hard
1540.000,369.200,79.570,18.340,1684.000,372.900,82.070,17.970,424.700,117.900,29.720,8.360,600.600,159.000,41.950,12.490,hard
1542.000,371.100,79.600,18.420,1684.000,372.800,82.130,18.020,409.400,118.700,29.590,8.373,600.000,159.100,42.170,12.490,hard
1544.000,370.200,80.120,18.450,1688.000,372.600,82.010,17.960,419.900,117.500,29.730,8.345,601.600,158.600,42.160,12.420,hard
1539.000,367.400,79.420,18.110,1683.000,371.300,81.550,17.810,427.600,117.500,29.630,8.341,600.500,158.800,41.840,12.410,hard
1535.000,366.400,78.420,17.950,1677.000,370.800,81.270,17.650,425.700,120.400,29.870,8.484,616.800,161.800,42.670,12.590,hard
1536.000,365.100,77.990,17.740,1677.000,369.700,80.930,17.610,462.400,122.200,30.490,8.527,628.700,162.400,43.140,12.610,hard
1533.000,362.700,77.930,17.720,1676.000,369.900,80.890,17.570,486.600,122.700,30.660,8.559,631.300,163.500,43.040,12.690,hard
1530.000,363.200,77.720,17.780,1673.000,369.200,80.920,17.640,477.700,124.300,30.490,8.596,630.300,164.200,42.960,12.700,hard
1528.000,364.000,78.090,17.890,1675.000,369.600,81.090,17.650,478.000,124.000,30.650,8.602,631.100,163.400,43.410,12.710,hard
1529.000,364.300,78.440,18.000,1673.000,370.300,81.330,17.770,496.700,123.100,30.880,8.625,631.800,164.000,43.590,12.830,hard
1529.000,366.200,78.390,18.100,1674.000,370.900,81.300,17.800,488.900,124.800,30.750,8.681,633.900,165.200,43.460,12.950,hard
1533.000,367.200,78.580,18.100,1674.000,370.100,81.300,17.750,491.600,126.000,30.910,8.694,637.800,165.200,44.000,12.920,hard
1534.000,364.900,78.360,18.080,1673.000,368.000,80.620,17.540,510.100,123.900,31.140,8.662,637.500,164.200,43.660,12.810,hard
1522.000,360.600,76.810,17.540,1661.000,365.600,79.640,17.350,501.100,125.000,30.790,8.669,629.900,163.900,42.930,12.760,hard
1500.000,357.700,76.980,17.630,1646.000,362.800,79.600,17.350,467.200,120.900,30.140,8.449,611.800,158.400,42.080,12.290,bogus
1491.000,355.300,76.270,17.340,1642.000,363.000,79.840,17.430,476.000,119.300,29.970,8.399,606.300,157.900,41.620,12.260,bogus
1487.000,354.700,75.750,17.310,1642.000,361.800,79.670,17.450,453.100,120.000,29.710,8.393,601.300,157.300,41.180,12.210,bogus
1482.000,353.300,76.140,17.350,1640.000,363.100,79.670,17.480,448.000,119.200,29.700,8.356,599.700,156.100,41.320,12.090,bogus
1481.000,353.800,76.090,17.410,1639.000,361.400,79.770,17.510,451.800,117.800,29.740,8.341,596.200,155.900,41.160,12.130,bogus
1477.000,356.700,78.160,18.160,1628.000,358.200,80.570,17.750,424.700,116.300,29.280,8.231,599.800,159.800,42.170,12.620,hard
1479.000,358.000,78.400,18.270,1625.000,358.900,80.640,17.740,409.700,117.000,29.190,8.276,598.800,159.800,42.300,12.630,hard
1479.000,356.900,78.400,18.280,1630.000,357.700,80.330,17.800,419.700,116.400,29.230,8.188,598.600,158.700,42.300,12.560,hard
1480.000,355.400,78.700,18.330,1632.000,356.900,80.170,17.710,419.700,115.800,29.100,8.154,597.100,158.600,41.890,12.480,hard
1475.000,353.700,77.290,17.980,1626.000,354.700,79.810,17.540,406.600,116.100,28.770,8.104,591.200,157.400,41.260,12.250,hard
1468.000,351.900,77.070,17.820,1623.000,354.200,79.730,17.540,405.500,115.100,28.630,8.015,591.300,156.600,41.260,12.160,hard
1466.000,350.100,77.400,17.770,1622.000,354.000,80.020,17.580,413.600,114.200,28.720,8.044,591.100,156.800,41.190,12.200,hard
1465.000,351.800,76.880,17.830,1618.000,354.300,79.800,17.600,406.000,115.100,28.640,8.063,589.000,156.900,41.040,12.200,hard
1465.000,349.400,77.100,17.780,1620.000,353.300,79.930,17.580,401.700,115.100,28.600,8.037,590.100,156.500,41.260,12.160,hard
1464.000,350.800,77.540,17.870,1623.000,353.300,80.080,17.600,412.200,114.200,28.780,8.013,590.600,156.700,41.380,12.250,hard
1465.000,350.400,77.400,18.050,1621.000,353.600,80.160,17.630,405.500,114.900,28.680,8.080,589.400,157.700,41.310,12.350,hard
1466.000,353.200,77.330,18.120,1622.000,353.300,80.090,17.690,397.200,115.100,28.750,8.094,590.900,157.500,41.560,12.350,hard
1467.000,351.600,78.310,18.180,1629.000,353.800,80.460,17.730,411.800,114.500,28.930,8.074,593.700,157.600,41.860,12.410,hard
1471.000,354.100,78.330,18.360,1625.000,353.800,80.370,17.830,410.800,115.400,28.980,8.153,594.800,158.900,41.900,12.570,hard
1473.000,354.700,78.860,18.410,1625.000,354.400,80.450,17.730,399.100,116.300,29.010,8.185,596.700,159.200,42.130,12.540,hard
1470.000,351.900,78.200,18.080,1622.000,353.600,80.040,17.600,415.200,115.900,29.180,8.149,597.900,157.800,41.920,12.350,hard
1464.000,351.600,77.760,17.900,1619.000,353.000,79.910,17.570,418.700,115.600,29.060,8.140,595.100,158.000,41.640,12.360,hard
1461.000,351.000,77.270,17.890,1615.000,353.700,80.050,17.580,404.400,116.300,28.910,8.152,592.700,158.200,41.520,12.330,hard
1461.000,350.700,77.820,17.910,1621.000,352.000,79.910,17.560,413.900,115.500,29.080,8.121,593.800,157.000,41.610,12.250,hard
1459.000,350.400,77.450,17.890,1616.000,353.100,79.950,17.590,419.800,115.200,29.090,8.143,592.000,157.400,41.480,12.330,hard
1459.000,350.400,77.190,17.970,1614.000,352.600,80.060,17.620,404.000,116.100,28.880,8.169,591.600,157.900,41.430,12.390,hard
1460.000,350.300,77.690,18.060,1617.000,352.700,80.290,17.640,406.600,115.200,29.000,8.151,593.600,157.000,41.740,12.380,hard
1463.000,350.300,77.790,18.180,1614.000,352.600,79.910,17.670,418.600,114.700,29.140,8.147,592.900,157.500,41.800,12.450,hard
1464.000,352.100,78.010,18.230,1615.000,352.700,80.060,17.700,408.600,116.000,28.940,8.184,593.000,158.100,41.790,12.540,hard
1466.000,352.500,78.020,18.310,1617.000,352.900,80.250,17.720,403.000,115.500,29.020,8.188,592.800,158.100,42.080,12.500,hard
1467.000,354.600,78.500,18.370,1618.000,353.000,80.480,17.730,416.000,114.600,29.130,8.159,595.800,158.000,42.180,12.540,hard
1467.000,353.100,78.200,18.230,1614.000,352.900,79.700,17.590,410.200,115.700,28.980,8.186,592.800,157.600,41.490,12.430,hard
1459.000,350.300,77.300,17.950,1615.000,351.600,79.860,17.500,404.600,115.800,28.870,8.141,591.300,156.900,41.570,12.280,hard
1456.000,348.200,77.130,17.890,1615.000,351.000,79.720,17.540,417.200,114.600,28.990,8.085,590.200,156.400,41.350,12.240,hard
1454.000,347.900,77.040,17.930,1611.000,351.700,79.650,17.530,412.800,114.600,28.870,8.113,588.500,156.300,41.100,12.270,hard
1453.000,350.200,77.120,17.900,1611.000,350.700,79.540,17.520,399.200,115.300,28.750,8.125,587.400,156.000,41.200,12.260,hard
1452.000,348.600,77.170,17.900,1607.000,351.300,79.730,17.520,410.800,114.500,28.910,8.097,588.900,155.400,41.450,12.260,hard
1453.000,348.500,77.370,18.010,1609.000,350.300,80.060,17.640,415.300,114.400,28.880,8.137,587.900,156.000,41.270,12.340,hard
1454.000,351.000,77.470,18.120,1614.000,350.900,79.900,17.600,397.900,114.900,28.750,8.157,587.100,156.500,41.400,12.380,hard
1456.000,350.300,77.920,18.240,1613.000,351.000,80.050,17.640,408.400,114.700,28.950,8.134,589.500,155.800,41.800,12.360,hard
1458.000,351.500,78.000,18.300,1609.000,351.200,79.890,17.680,414.300,114.200,29.020,8.139,589.100,156.700,41.640,12.470,hard
1459.000,352.800,78.190,18.400,1613.000,352.200,80.000,17.670,403.000,115.300,28.840,8.179,587.900,157.400,41.710,12.520,hard
1462.000,352.100,78.580,18.370,1608.000,350.600,79.830,17.610,405.200,115.300,29.020,8.165,590.300,156.600,41.640,12.320,hard
1456.000,348.700,77.550,17.980,1606.000,350.500,79.580,17.490,420.500,114.100,28.960,8.115,587.500,155.800,41.300,12.260,hard
1452.000,348.100,77.140,17.890,1606.000,350.300,79.530,17.470,408.300,114.900,28.810,8.138,584.700,156.000,41.140,12.280,hard
1448.000,347.400,77.060,17.880,1606.000,350.600,79.550,17.480,407.300,115.000,28.760,8.128,585.800,155.300,41.250,12.220,hard
1449.000,346.900,76.920,17.840,1605.000,350.100,79.680,17.450,416.900,113.600,28.950,8.102,586.800,155.000,41.040,12.220,hard
1447.000,347.400,76.780,17.890,1602.000,350.100,79.380,17.510,410.900,114.900,28.790,8.119,583.300,155.500,40.960,12.270,hard
1446.000,347.800,77.170,17.980,1605.000,348.900,79.650,17.510,401.400,115.100,28.740,8.142,583.200,155.200,41.190,12.270,hard
1448.000,348.100,77.370,18.030,1606.000,349.700,79.650,17.530,416.500,114.100,28.940,8.098,586.000,155.100,41.330,12.310,hard
1450.000,347.700,77.760,18.180,1606.000,349.700,79.680,17.560,414.200,114.500,28.890,8.146,584.900,155.800,41.210,12.390,hard
1451.000,349.500,77.900,18.190,1608.000,349.700,79.510,17.590,401.600,115.300,28.830,8.171,585.400,155.900,41.490,12.410,hard
1453.000,349.500,77.820,18.160,1605.000,349.100,79.560,17.510,413.700,114.400,28.970,8.144,586.800,155.400,41.440,12.290,hard
1448.000,347.500,76.940,17.840,1604.000,349.300,79.230,17.430,415.500,114.500,28.900,8.113,584.400,154.800,40.870,12.230,hard
1443.000,347.300,76.420,17.780,1602.000,349.000,79.080,17.440,402.100,114.700,28.720,8.134,581.700,154.900,40.820,12.190,hard
1441.000,345.300,76.410,17.800,1601.000,348.400,79.420,17.430,410.700,114.300,28.820,8.108,582.300,154.100,41.040,12.130,hard
1440.000,344.100,76.470,17.790,1603.000,348.600,79.250,17.420,417.300,113.800,28.780,8.116,581.800,154.300,40.750,12.160,hard
1440.000,345.800,76.240,17.780,1599.000,349.100,79.250,17.470,402.300,114.700,28.620,8.152,581.100,154.600,40.720,12.220,hard
1441.000,345.500,76.480,17.850,1599.000,349.500,79.430,17.450,404.200,114.300,28.810,8.121,581.400,154.200,41.150,12.200,hard
1441.000,345.600,76.890,17.970,1605.000,349.200,79.480,17.520,418.900,114.200,28.880,8.140,582.800,154.400,41.070,12.280,hard
1444.000,347.400,77.010,18.060,1597.000,349.600,79.500,17.510,405.600,115.100,28.880,8.168,581.200,155.600,41.090,12.350,hard
1445.000,350.000,77.600,18.110,1604.000,349.200,79.550,17.560,405.600,114.600,28.890,8.160,584.600,155.300,41.430,12.330,hard
1449.000,347.000,77.700,18.170,1602.000,348.700,79.620,17.550,417.800,114.200,29.050,8.159,585.300,155.500,41.370,12.290,hard
1443.000,346.000,76.610,17.800,1600.000,349.300,79.040,17.380,412.200,114.700,28.890,8.155,582.500,155.300,40.680,12.190,hard
1438.000,344.700,76.260,17.640,1597.000,348.900,79.190,17.390,404.300,115.200,28.770,8.141,582.400,154.300,40.800,12.110,hard
1435.000,342.800,76.400,17.630,1599.000,348.400,79.150,17.410,417.300,113.900,28.970,8.103,582.000,154.000,40.790,12.090,hard
1434.000,343.400,76.320,17.640,1598.000,348.900,79.040,17.430,415.000,114.300,28.900,8.160,580.600,154.200,40.580,12.140,hard
1433.000,344.800,75.920,17.620,1595.000,347.800,79.270,17.460,401.800,115.200,28.760,8.166,580.700,153.900,40.700,12.120,hard
1433.000,343.100,76.420,17.750,1594.000,348.700,79.450,17.470,413.900,114.100,28.960,8.134,582.000,154.000,40.990,12.150,hard
1436.000,344.200,76.410,17.780,1595.000,348.200,79.300,17.510,416.100,114.400,28.920,8.174,582.300,154.800,40.830,12.250,hard
1435.000,345.500,76.590,17.870,1600.000,348.800,79.530,17.520,400.900,115.500,28.890,8.214,582.300,155.000,41.010,12.270,hard
1438.000,346.000,76.920,17.860,1603.000,349.200,79.580,17.530,410.000,115.000,29.030,8.185,585.400,154.900,41.300,12.270,hard
1440.000,345.900,76.900,17.970,1602.000,349.100,79.570,17.600,421.500,114.500,29.130,8.205,584.200,155.400,41.300,12.370,hard
1443.000,347.300,76.520,17.880,1600.000,349.000,79.130,17.480,405.500,115.900,28.960,8.241,583.100,155.200,40.920,12.240,hard
1434.000,343.000,76.220,17.530,1596.000,347.700,79.150,17.400,410.200,115.200,29.010,8.176,584.300,154.200,40.890,12.070,hard
1432.000,342.600,75.950,17.480,1593.000,348.400,78.960,17.410,419.000,114.400,29.040,8.166,583.700,154.400,40.700,12.050,hard
1428.000,341.800,75.530,17.470,1593.000,348.200,79.000,17.480,412.100,115.400,28.920,8.186,581.500,154.600,40.530,12.110,hard
1427.000,342.100,75.880,17.450,1599.000,347.900,79.110,17.400,407.700,115.500,28.930,8.180,582.700,154.200,40.800,12.040,hard
1428.000,340.300,75.800,17.450,1597.000,348.300,79.250,17.450,421.600,114.500,29.070,8.187,583.600,154.300,40.830,12.120,hard
1429.000,343.600,76.100,17.560,1595.000,347.900,79.420,17.520,413.400,115.200,29.000,8.226,580.900,155.000,40.720,12.210,hard
1431.000,343.800,76.070,17.710,1595.000,348.100,79.280,17.540,406.100,115.500,29.040,8.229,583.200,154.900,41.010,12.180,hard
1432.000,344.100,76.280,17.700,1597.000,348.400,79.370,17.550,421.300,114.900,29.230,8.202,586.100,155.100,41.190,12.250,hard
1435.000,345.400,76.400,17.740,1598.000,348.400,79.470,17.580,417.300,115.800,29.130,8.254,585.700,155.900,41.020,12.350,hard
1437.000,347.400,76.650,17.880,1599.000,349.000,79.590,17.560,403.800,116.100,29.080,8.268,586.000,156.100,41.350,12.280,hard
1435.000,344.700,76.380,17.620,1598.000,347.900,79.500,17.450,419.100,115.400,29.230,8.214,587.100,154.800,41.130,12.130,hard
1430.000,344.000,75.940,17.460,1596.000,347.400,79.230,17.480,422.700,115.500,29.160,8.226,585.200,155.300,40.850,12.160,hard
1428.000,343.600,75.730,17.440,1596.000,347.700,79.240,17.440,407.100,116.500,28.950,8.251,584.600,155.400,40.870,12.160,hard
1428.000,341.400,76.000,17.430,1599.000,347.500,79.190,17.490,415.600,115.800,29.190,8.226,586.300,154.800,41.020,12.100,hard
1426.000,341.200,75.780,17.430,1597.000,348.000,79.220,17.460,423.400,115.100,29.210,8.222,587.600,155.300,40.880,12.160,hard
1428.000,342.800,75.620,17.540,1594.000,348.600,79.330,17.530,411.400,116.000,29.030,8.258,585.300,155.900,40.990,12.240,hard
1430.000,343.800,76.120,17.630,1599.000,348.100,79.400,17.500,413.800,115.900,29.180,8.258,588.400,155.700,41.350,12.210,hard
1432.000,343.800,76.290,17.660,1599.000,348.700,79.510,17.580,425.300,115.300,29.280,8.263,588.900,156.000,41.250,12.320,hard
1433.000,344.200,76.210,17.730,1599.000,348.700,79.570,17.600,414.600,116.300,29.180,8.287,587.700,156.900,41.270,12.370,hard
1435.000,344.300,76.470,17.800,1602.000,348.900,79.600,17.600,409.600,116.300,29.260,8.290,589.100,156.500,41.620,12.340,hard
1438.000,344.600,76.980,17.910,1600.000,349.200,79.490,17.590,425.700,115.500,29.380,8.289,591.300,156.700,41.550,12.330,hard
1434.000,344.300,76.110,17.580,1599.000,347.900,79.310,17.490,418.400,116.200,29.180,8.277,587.300,156.500,40.960,12.270,hard
1429.000,343.400,75.720,17.450,1597.000,347.600,79.160,17.480,411.000,116.500,29.140,8.258,588.800,156.000,41.080,12.150,hard
1427.000,340.600,75.620,17.360,1596.000,347.100,79.170,17.500,422.100,115.100,29.170,8.207,589.100,155.600,41.110,12.150,hard
1425.000,342.500,75.710,17.390,1593.000,347.800,79.220,17.440,421.200,116.000,29.140,8.233,587.500,156.000,40.850,12.210,hard
1425.000,342.000,75.280,17.430,1598.000,347.800,79.200,17.510,407.200,116.000,29.060,8.254,586.500,155.800,41.100,12.180,hard
1426.000,341.800,75.700,17.440,1593.000,347.800,79.120,17.520,418.600,115.400,29.210,8.201,588.000,155.400,41.270,12.190,hard
1427.000,341.800,75.960,17.500,1595.000,347.600,79.480,17.540,423.400,115.500,29.130,8.230,588.300,156.300,41.070,12.300,hard
1429.000,343.700,75.610,17.670,1596.000,348.400,79.400,17.550,405.600,116.100,29.050,8.275,587.300,156.300,41.210,12.320,hard
1431.000,344.000,76.180,17.670,1598.000,348.300,79.620,17.600,415.400,115.700,29.200,8.246,589.900,156.000,41.620,12.330,hard
1433.000,344.100,76.460,17.790,1599.000,348.200,79.580,17.630,424.000,115.300,29.180,8.245,590.200,156.900,41.540,12.420,hard
1436.000,346.500,76.210,17.910,1598.000,348.200,79.650,17.650,410.400,116.000,29.060,8.277,588.500,157.500,41.650,12.470,hard
1438.000,346.400,76.720,17.780,1599.000,348.100,79.550,17.500,412.600,115.700,29.210,8.236,591.100,156.500,41.500,12.240,hard
1430.000,343.000,76.080,17.440,1594.000,347.600,79.310,17.510,427.900,115.000,29.180,8.187,590.500,156.100,41.200,12.240,hard
1427.000,343.600,75.520,17.420,1593.000,347.200,79.050,17.450,416.100,115.800,28.970,8.216,587.400,156.300,40.920,12.210,hard
1425.000,341.700,75.480,17.400,1592.000,347.100,78.980,17.480,409.600,115.600,28.980,8.180,587.400,155.600,41.190,12.160,hard
1425.000,341.700,75.550,17.370,1595.000,347.700,79.070,17.450,423.000,114.800,29.040,8.167,588.100,155.500,41.100,12.140,hard
1426.000,342.200,75.600,17.450,1594.000,348.200,79.190,17.470,415.300,115.000,28.960,8.187,583.700,155.900,40.890,12.250,hard
1426.000,342.900,75.560,17.500,1596.000,347.600,79.260,17.500,406.200,115.700,28.920,8.190,585.900,155.900,41.160,12.250,hard
1428.000,342.000,76.350,17.650,1593.000,347.800,79.310,17.510,420.600,114.600,29.060,8.156,586.900,155.300,41.370,12.270,hard
1429.000,343.900,76.120,17.700,1593.000,347.600,79.470,17.560,418.800,114.900,28.990,8.200,585.700,156.200,41.210,12.380,hard
1432.000,344.400,76.250,17.750,1597.000,348.200,79.530,17.600,404.600,115.500,28.850,8.210,586.000,156.400,41.480,12.370,hard
1433.000,344.600,76.530,17.850,1598.000,347.900,79.450,17.590,418.900,114.800,29.140,8.182,588.500,156.200,41.620,12.350,hard
1432.000,343.200,76.360,17.660,1595.000,346.800,79.180,17.460,419.600,114.800,28.960,8.185,586.400,156.100,41.000,12.230,hard
1425.000,341.700,75.500,17.360,1592.000,346.300,79.120,17.410,405.600,115.600,28.790,8.175,584.200,155.300,40.920,12.160,hard
1420.000,341.100,75.810,17.290,1592.000,347.000,79.060,17.380,417.500,114.900,28.960,8.124,584.500,154.100,40.950,12.070,hard
1420.000,340.100,75.300,17.370,1591.000,346.600,79.010,17.440,423.800,114.300,28.880,8.125,582.900,154.800,40.690,12.140,hard
1420.000,340.700,75.210,17.310,1586.000,347.300,79.070,17.440,408.600,115.200,28.680,8.149,580.200,154.600,40.630,12.160,hard
1420.000,340.500,75.200,17.390,1587.000,347.000,79.180,17.470,412.000,114.500,28.820,8.141,581.600,154.200,40.920,12.100,hard
1422.000,341.400,75.660,17.460,1591.000,346.800,79.180,17.530,422.000,113.900,28.900,8.138,582.000,154.500,40.980,12.230,hard
1423.000,341.800,75.640,17.580,1592.000,346.900,79.340,17.520,409.700,115.300,28.820,8.172,580.700,155.100,40.910,12.260,hard
1424.000,342.200,75.750,17.630,1592.000,347.400,79.520,17.520,406.700,115.100,28.910,8.168,582.100,154.800,41.180,12.240,hard
1426.000,342.000,76.240,17.700,1591.000,348.100,79.600,17.600,420.000,114.000,28.940,8.153,583.900,154.600,41.300,12.280,hard
1429.000,343.400,76.170,17.840,1590.000,347.500,79.550,17.640,412.800,114.900,28.890,8.201,581.500,155.500,41.090,12.400,hard
1431.000,345.200,76.030,17.650,1593.000,347.500,79.250,17.510,404.200,115.200,28.830,8.170,582.500,155.000,41.030,12.160,hard
1422.000,339.600,75.320,17.390,1591.000,347.000,79.210,17.440,422.000,113.800,28.830,8.096,582.400,153.700,40.800,12.100,hard
1419.000,340.300,75.530,17.310,1588.000,347.400,78.960,17.430,418.100,114.400,28.810,8.119,579.200,153.800,40.610,12.110,hard
1417.000,341.900,74.900,17.330,1589.000,346.500,79.200,17.420,404.700,114.800,28.680,8.122,579.100,153.400,40.570,12.070,hard
1417.000,339.800,75.270,17.330,1591.000,346.100,79.290,17.440,416.700,114.100,28.850,8.088,578.900,153.300,40.730,12.070,hard
1417.000,341.100,75.230,17.370,1588.000,346.900,79.070,17.470,417.200,113.800,28.760,8.125,578.200,153.900,40.590,12.120,hard
1419.000,340.000,75.190,17.450,1586.000,346.900,79.250,17.540,402.700,114.900,28.680,8.157,578.100,154.100,40.700,12.180,hard
1421.000,342.000,75.760,17.500,1593.000,347.200,79.430,17.550,412.100,114.400,28.850,8.108,580.000,153.700,41.030,12.150,hard
1423.000,341.700,75.920,17.600,1594.000,348.100,79.630,17.570,420.700,114.000,28.880,8.131,579.900,154.300,41.010,12.290,hard
1425.000,343.700,76.040,17.750,1591.000,348.000,79.680,17.650,406.100,114.900,28.690,8.179,579.900,155.000,41.000,12.320,hard
1428.000,343.700,76.910,17.820,1595.000,347.500,79.670,17.610,410.500,114.700,28.860,8.150,582.100,155.100,41.380,12.280,hard
1431.000,343.400,76.390,17.760,1594.000,347.100,79.500,17.510,421.600,114.100,28.930,8.151,583.500,154.700,41.070,12.220,hard
1422.000,341.100,75.630,17.440,1594.000,347.200,79.170,17.490,410.700,115.300,28.710,8.154,579.100,154.700,40.690,12.170,hard
1421.000,340.800,75.590,17.390,1593.000,346.900,79.340,17.470,408.900,114.800,28.860,8.111,580.700,153.800,40.910,12.090,hard
1420.000,340.700,75.630,17.410,1594.000,346.200,79.270,17.470,420.700,114.100,28.870,8.100,580.700,153.900,40.770,12.090,hard
1420.000,339.800,75.500,17.410,1587.000,347.500,78.960,17.500,411.500,114.700,28.760,8.139,578.000,153.900,40.520,12.170,hard
1419.000,341.700,75.700,17.470,1591.000,347.000,79.460,17.510,403.500,114.900,28.710,8.122,578.700,153.900,40.780,12.100,hard
1421.000,339.400,75.840,17.540,1592.000,347.600,79.320,17.530,419.900,113.800,28.870,8.100,580.900,153.800,40.920,12.160,hard
1423.000,341.500,75.790,17.640,1590.000,347.400,79.530,17.550,415.600,114.300,28.830,8.170,579.300,154.700,40.840,12.280,hard
1425.000,343.100,76.060,17.760,1594.000,347.600,79.450,17.580,404.600,115.300,28.840,8.159,580.400,155.000,41.150,12.280,hard
1428.000,343.300,76.180,17.810,1596.000,347.400,79.700,17.620,418.800,114.000,28.970,8.133,582.800,154.300,41.380,12.310,hard
1431.000,343.600,76.570,17.900,1597.000,347.400,79.780,17.570,421.400,114.400,28.940,8.159,582.500,155.300,41.080,12.350,hard
1428.000,342.800,75.610,17.550,1594.000,347.400,79.230,17.460,405.200,115.100,28.740,8.155,580.800,154.600,40.800,12.130,hard
1421.000,340.500,75.830,17.410,1597.000,346.500,79.250,17.430,414.000,114.500,28.920,8.114,581.700,153.500,40.870,12.070,hard
1419.000,339.000,75.160,17.400,1589.000,347.100,79.080,17.440,423.200,114.100,28.800,8.107,580.800,153.800,40.600,12.130,hard
1419.000,340.200,75.250,17.430,1590.000,347.300,79.000,17.420,410.800,115.200,28.660,8.144,579.300,153.900,40.560,12.120,hard
1418.000,340.100,75.390,17.390,1590.000,346.400,79.200,17.470,413.400,114.600,28.750,8.105,579.700,153.400,40.740,12.060,hard
1419.000,341.100,75.630,17.520,1593.000,347.100,79.300,17.460,420.600,113.900,28.940,8.112,581.100,154.000,40.870,12.160,hard
1422.000,342.200,75.620,17.640,1595.000,347.900,79.510,17.540,411.200,114.800,28.810,8.154,578.100,154.500,40.680,12.250,hard
1424.000,341.700,76.110,17.640,1590.000,347.600,79.610,17.550,407.600,115.200,28.850,8.155,581.900,154.500,41.170,12.230,hard
1426.000,341.800,76.280,17.770,1594.000,347.000,79.530,17.570,421.900,114.300,28.990,8.153,582.700,154.900,41.330,12.310,hard
1428.000,344.800,76.260,17.860,1591.000,347.700,79.550,17.620,416.000,115.200,28.860,8.183,581.600,155.700,41.140,12.390,hard
1432.000,346.000,76.710,17.980,1594.000,348.800,79.710,17.560,408.900,115.800,29.000,8.190,583.800,155.400,41.330,12.300,hard
1429.000,342.500,76.090,17.660,1595.000,346.700,79.410,17.480,421.400,114.600,29.040,8.149,583.400,154.400,41.020,12.160,hard
1421.000,342.400,75.760,17.470,1590.000,347.100,79.080,17.480,421.100,114.800,28.910,8.151,581.400,154.700,40.550,12.170,hard
1420.000,341.600,75.160,17.380,1593.000,347.000,79.280,17.450,405.000,115.700,28.790,8.160,580.800,154.200,40.760,12.120,hard
1418.000,339.200,75.450,17.440,1593.000,346.200,79.130,17.440,419.400,114.800,28.910,8.134,581.900,153.700,40.910,12.090,hard
1418.000,338.800,75.230,17.390,1587.000,346.700,79.200,17.520,421.300,114.800,28.970,8.153,580.100,154.300,40.700,12.180,hard
1418.000,342.300,75.540,17.470,1587.000,347.000,79.370,17.480,406.900,115.200,28.770,8.189,578.400,154.900,40.790,12.210,hard
1420.000,340.700,75.820,17.630,1591.000,347.300,79.440,17.510,417.400,114.800,28.960,8.145,581.800,154.100,41.110,12.180,hard
1423.000,342.200,75.910,17.700,1591.000,346.300,79.470,17.590,424.000,114.500,29.010,8.189,581.600,154.800,41.080,12.300,hard
1424.000,343.800,75.900,17.780,1591.000,346.200,79.580,17.610,408.700,115.400,28.920,8.213,581.100,155.300,41.150,12.320,hard
1427.000,344.000,76.390,17.830,1591.000,348.200,79.610,17.570,414.500,115.300,29.070,8.194,584.000,155.200,41.500,12.330,hard
1429.000,343.600,76.720,17.920,1592.000,346.900,79.560,17.600,423.700,114.400,29.150,8.215,585.300,155.400,41.420,12.370,hard
1426.000,343.100,75.960,17.570,1589.000,346.500,79.250,17.470,413.800,115.700,28.970,8.210,582.500,155.300,40.890,12.240,hard
1421.000,342.900,75.610,17.470,1587.000,346.800,79.280,17.440,412.100,115.600,28.900,8.181,582.700,154.600,40.920,12.120,hard
1418.000,340.500,75.480,17.420,1591.000,346.100,79.280,17.500,423.800,114.300,29.090,8.150,581.800,153.700,40.900,12.160,hard
1418.000,340.100,75.460,17.440,1589.000,347.000,79.180,17.490,416.100,115.400,28.910,8.186,580.100,154.500,40.590,12.170,hard
1416.000,340.200,75.360,17.400,1587.000,346.300,79.320,17.500,408.600,115.600,28.870,8.185,581.500,154.100,40.780,12.140,hard
1417.000,339.400,75.650,17.490,1592.000,347.000,79.350,17.540,421.000,114.500,29.020,8.164,582.300,154.000,41.110,12.180,hard
1418.000,341.500,75.740,17.590,1591.000,347.100,79.430,17.570,419.000,115.000,29.000,8.188,580.800,155.000,40.930,12.290,hard
1420.000,341.200,75.500,17.700,1594.000,347.300,79.400,17.610,407.900,115.500,28.970,8.218,582.100,154.900,41.150,12.290,hard
1422.000,341.300,76.210,17.750,1592.000,347.300,79.700,17.620,420.500,115.100,29.140,8.189,584.900,154.600,41.450,12.280,hard
1424.000,342.400,76.470,17.750,1589.000,347.600,79.430,17.560,422.000,115.100,29.090,8.214,583.200,155.700,41.050,12.280,hard
1419.000,340.900,75.600,17.470,1592.000,346.800,79.060,17.450,408.300,115.600,28.900,8.210,581.500,155.000,40.730,12.130,hard
1414.000,338.300,75.160,17.320,1589.000,345.600,79.080,17.430,416.500,115.000,28.990,8.158,581.800,153.700,40.740,12.060,hard
1412.000,337.400,74.840,17.280,1588.000,346.500,79.100,17.500,425.500,114.700,29.030,8.169,580.600,153.900,40.660,12.090,hard
1411.000,338.700,74.740,17.360,1588.000,346.000,79.240,17.490,409.900,115.700,28.820,8.195,579.100,154.200,40.500,12.100,hard
1409.000,337.200,74.930,17.280,1586.000,346.000,79.200,17.470,411.900,115.100,29.010,8.175,580.200,153.700,40.830,12.040,hard
1410.000,337.400,75.050,17.370,1588.000,346.900,79.360,17.570,423.900,114.400,29.060,8.176,581.700,153.900,40.710,12.160,hard
1412.000,339.700,75.000,17.460,1585.000,346.600,79.260,17.570,411.200,115.500,28.990,8.240,579.100,154.800,40.760,12.240,hard
1413.000,339.700,75.440,17.490,1583.000,347.800,79.520,17.630,409.200,115.600,29.000,8.214,581.000,154.500,41.100,12.210,hard
1415.000,339.200,75.700,17.590,1589.000,346.900,79.520,17.610,421.300,114.700,29.140,8.207,582.500,154.800,41.150,12.280,hard
1418.000,341.600,75.680,17.680,1587.000,347.400,79.660,17.670,415.600,115.700,29.090,8.250,581.300,155.700,41.010,12.330,hard
1417.000,341.300,75.460,17.380,1587.000,345.800,79.390,17.530,409.800,115.800,29.080,8.236,582.200,154.200,40.880,12.060,hard
1410.000,338.900,74.640,17.220,1588.000,345.300,79.260,17.480,423.600,114.500,29.110,8.178,581.600,154.000,40.710,12.030,hard
1407.000,338.100,74.490,17.160,1587.000,345.900,79.240,17.510,417.800,115.100,29.000,8.193,579.400,154.300,40.280,12.060,hard
1405.000,337.500,74.260,17.150,1587.000,345.500,79.400,17.510,406.000,115.700,28.890,8.206,579.900,153.700,40.490,12.000,hard
1404.000,337.100,74.530,17.160,1586.000,345.300,79.210,17.520,419.200,114.400,29.080,8.175,580.100,153.200,40.610,12.020,hard
1405.000,337.500,74.840,17.230,1585.000,345.500,79.360,17.590,420.400,115.000,29.050,8.201,579.700,153.800,40.530,12.130,hard
1406.000,337.400,74.760,17.310,1586.000,347.100,79.470,17.650,406.200,115.500,29.030,8.243,580.100,154.700,40.630,12.180,hard
1409.000,339.200,74.980,17.390,1589.000,346.200,79.540,17.660,415.000,115.300,29.120,8.229,582.500,153.900,40.930,12.130,hard
1411.000,339.200,75.050,17.430,1588.000,345.800,79.620,17.710,424.100,114.800,29.220,8.242,582.000,154.800,40.990,12.270,hard
1414.000,339.900,75.580,17.580,1588.000,347.900,79.730,17.720,411.900,116.100,29.120,8.280,580.800,155.500,41.020,12.300,hard
1417.000,340.600,75.510,17.650,1589.000,347.300,79.850,17.650,412.600,115.700,29.270,8.273,584.400,155.400,41.280,12.210,hard
1415.000,339.200,75.410,17.290,1589.000,346.400,79.550,17.540,423.500,115.100,29.320,8.239,584.300,154.800,40.860,12.140,hard
1409.000,337.900,74.400,17.180,1582.000,346.000,79.360,17.570,414.400,115.900,29.100,8.253,581.900,155.100,40.570,12.110,hard
1406.000,337.900,74.120,17.120,1588.000,346.000,79.490,17.590,413.300,116.100,29.150,8.237,583.000,154.300,40.730,12.030,hard
1406.000,336.600,74.640,17.140,1589.000,345.800,79.590,17.610,427.100,114.900,29.250,8.220,585.100,154.300,40.800,12.070,hard
1405.000,338.300,74.390,17.120,1586.000,346.300,79.360,17.580,418.200,116.300,29.130,8.266,582.400,154.800,40.590,12.130,hard
1407.000,336.900,74.720,17.190,1586.000,346.100,79.870,17.610,410.800,116.600,29.230,8.260,582.800,154.800,40.990,12.120,hard
1408.000,337.600,74.840,17.280,1593.000,347.000,79.710,17.660,422.700,115.100,29.270,8.238,585.700,154.600,41.150,12.160,hard
1409.000,337.500,75.110,17.400,1585.000,347.000,79.780,17.690,418.500,115.600,29.280,8.289,584.800,155.400,40.840,12.280,hard
1412.000,338.600,75.140,17.390,1588.000,346.600,79.880,17.720,409.200,116.400,29.190,8.295,585.000,155.700,41.200,12.280,hard
1414.000,339.900,75.560,17.460,1590.000,347.700,79.940,17.630,421.100,115.700,29.390,8.272,588.200,155.500,41.340,12.220,hard
1411.000,337.900,74.610,17.200,1590.000,347.700,79.670,17.580,424.400,115.600,29.330,8.275,586.600,155.600,40.830,12.170,hard
1407.000,337.800,74.350,17.110,1587.000,346.100,79.520,17.550,410.800,116.600,29.160,8.283,584.500,155.300,40.750,12.100,hard
1405.000,336.800,74.160,17.060,1585.000,346.000,79.780,17.570,421.600,115.800,29.270,8.249,585.800,154.800,40.980,12.070,hard
1405.000,335.700,74.460,17.100,1588.000,347.200,79.520,17.580,426.300,115.700,29.290,8.252,584.800,154.900,40.880,12.120,hard
1404.000,336.600,74.150,17.170,1591.000,346.900,79.670,17.640,412.600,116.700,29.150,8.288,585.000,155.600,40.830,12.140,hard
1406.000,338.400,74.540,17.110,1590.000,347.400,79.860,17.670,413.500,116.000,29.320,8.283,586.600,155.100,41.120,12.150,hard
1407.000,337.200,74.850,17.230,1590.000,346.800,79.760,17.700,424.100,115.400,29.380,8.287,587.700,155.700,41.110,12.250,hard
1409.000,338.600,75.120,17.320,1587.000,348.100,79.930,17.740,416.500,116.700,29.260,8.320,586.200,156.500,41.090,12.290,hard
1412.000,339.000,75.400,17.400,1591.000,348.200,80.170,17.760,413.100,116.600,29.380,8.313,588.300,156.200,41.390,12.300,hard
1415.000,339.600,75.870,17.470,1591.000,348.100,80.110,17.810,426.800,115.900,29.450,8.300,589.100,156.400,41.590,12.360,hard
1417.000,341.200,75.740,17.590,1591.000,349.100,80.150,17.820,419.100,116.300,29.400,8.353,588.200,157.400,41.320,12.380,hard
1416.000,340.000,75.180,17.270,1590.000,347.200,79.880,17.620,412.500,116.800,29.370,8.317,589.100,156.300,41.220,12.170,hard
1409.000,338.600,74.600,17.110,1586.000,347.300,79.840,17.620,426.500,115.400,29.390,8.244,590.100,155.400,41.200,12.140,hard
1407.000,337.100,74.520,17.060,1588.000,348.000,79.640,17.640,424.600,116.100,29.290,8.276,587.500,155.800,40.840,12.190,hard
1407.000,338.500,74.420,17.080,1585.000,347.600,79.770,17.660,408.800,116.800,29.190,8.295,587.500,155.800,41.030,12.130,hard
1406.000,337.200,74.730,17.030,1591.000,347.100,79.780,17.650,422.800,115.900,29.330,8.258,588.900,155.400,41.160,12.120,hard
1407.000,337.300,74.850,17.120,1590.000,347.200,80.060,17.690,425.500,115.800,29.310,8.276,587.700,156.100,41.020,12.230,hard
1410.000,339.100,74.850,17.230,1586.000,347.600,79.990,17.720,406.500,116.800,29.210,8.310,588.000,156.300,41.240,12.280,hard
1412.000,339.200,75.190,17.280,1589.000,347.500,80.020,17.720,420.400,116.000,29.420,8.295,590.700,156.200,41.510,12.240,hard
1415.000,340.500,75.610,17.370,1590.000,348.800,79.970,17.770,425.000,115.800,29.430,8.292,589.700,156.700,41.440,12.370,hard
1416.000,340.800,75.210,17.490,1591.000,348.800,80.220,17.780,411.600,116.600,29.260,8.334,588.900,157.300,41.480,12.420,hard
1418.000,341.300,75.930,17.590,1592.000,348.600,80.200,17.810,416.100,116.400,29.420,8.320,592.700,157.100,41.850,12.380,hard
1422.000,342.300,76.090,17.610,1589.000,348.500,80.000,17.700,426.600,115.600,29.540,8.296,592.000,157.200,41.590,12.330,hard
1416.000,340.000,75.110,17.280,1586.000,348.000,79.950,17.690,417.300,116.500,29.240,8.299,590.100,156.700,41.200,12.250,hard
1413.000,340.900,74.840,17.200,1590.000,347.500,80.030,17.630,417.700,116.400,29.320,8.289,590.800,155.900,41.340,12.160,hard
1411.000,338.800,74.910,17.130,1591.000,347.500,79.820,17.600,429.900,115.700,29.370,8.254,590.200,156.300,41.290,12.210,hard
1412.000,339.500,74.810,17.190,1593.000,347.900,79.620,17.690,420.500,116.500,29.250,8.282,587.600,156.400,41.060,12.250,hard
1411.000,339.100,74.670,17.200,1590.000,347.700,79.890,17.650,414.000,116.600,29.240,8.289,588.600,156.400,41.310,12.210,hard
1413.000,339.700,75.100,17.260,1590.000,347.300,79.910,17.740,425.700,115.600,29.470,8.246,590.400,156.200,41.480,12.270,hard
1414.000,341.000,75.060,17.380,1587.000,348.200,80.060,17.720,424.400,116.300,29.280,8.296,588.500,156.800,41.270,12.360,hard
1417.000,340.500,75.920,17.430,1588.000,348.100,80.250,17.760,409.400,116.900,29.280,8.310,590.400,156.800,41.560,12.370,hard
1418.000,342.400,75.980,17.520,1592.000,347.700,80.230,17.740,422.700,116.000,29.410,8.266,591.500,157.000,41.850,12.380,hard
1421.000,342.200,76.070,17.660,1592.000,349.400,80.350,17.830,428.200,115.800,29.380,8.306,590.800,157.600,41.710,12.450,hard
1421.000,343.100,75.590,17.490,1591.000,348.900,79.990,17.660,410.600,116.700,29.210,8.308,588.900,157.000,41.350,12.280,hard
1415.000,341.200,75.470,17.340,1600.000,355.200,80.780,17.830,433.000,116.100,29.390,8.241,595.200,156.200,41.890,12.280,hard
1529.000,362.300,77.170,17.600,1697.000,369.300,81.310,17.920,469.200,118.200,29.630,8.285,602.600,159.000,42.060,12.340,hard
1531.000,363.000,76.990,17.560,1674.000,368.700,81.130,17.840,444.100,120.000,29.490,8.314,596.600,159.100,41.670,12.280,hard
1512.000,359.900,77.050,17.520,1658.000,365.800,81.420,17.860,434.900,118.400,29.500,8.264,597.800,158.000,41.750,12.230,hard
