A-DC1,A-DC2,A-DC3,A-DC4,A-DC5,A-DC6,A-DC7,A-DC8,B-DC1,B-DC2,B-DC3,B-DC4,B-DC5,B-DC6,B-DC7,B-DC8,condition
1403.000,339.300,76.010,15.510,1240.000,275.300,58.820,11.520,227.800,62.970,14.700,4.448,505.300,106.400,24.170,7.593,baseline
1403.000,338.900,76.350,15.560,1241.000,275.300,58.950,11.560,229.400,62.510,14.780,4.459,506.900,106.500,24.240,7.661,baseline
1404.000,340.100,76.430,15.570,1245.000,275.300,58.900,11.540,228.600,63.060,14.790,4.477,509.100,107.100,24.310,7.702,baseline
1405.000,340.100,76.780,15.610,1248.000,275.700,58.920,11.550,228.200,62.710,14.860,4.478,511.900,107.200,24.360,7.710,baseline
1407.000,340.900,76.390,15.670,1240.000,275.300,59.050,11.570,228.500,63.030,14.740,4.475,512.500,107.500,24.480,7.775,baseline
1409.000,340.800,77.020,15.720,1243.000,275.600,59.050,11.530,226.900,63.410,14.820,4.489,515.000,107.700,24.430,7.710,baseline
1405.000,339.200,76.170,15.520,1242.000,275.800,58.860,11.490,228.200,62.770,14.740,4.457,507.900,106.300,24.090,7.630,baseline
1401.000,337.800,76.190,15.530,1239.000,275.000,58.780,11.550,229.000,62.680,14.750,4.445,506.600,106.300,24.130,7.640,baseline
1400.000,339.100,76.060,15.540,1240.000,275.200,58.760,11.490,226.800,62.740,14.670,4.450,506.800,106.100,24.200,7.630,baseline
1399.000,337.200,75.820,15.560,1239.000,274.900,58.770,11.510,227.700,62.690,14.650,4.433,507.200,106.200,23.940,7.608,baseline
1398.000,339.000,75.900,15.480,1241.000,274.600,58.820,11.490,225.700,62.150,14.640,4.445,507.000,105.800,24.130,7.630,baseline
1400.000,339.500,75.820,15.550,1242.000,274.700,58.970,11.520,225.300,62.750,14.730,4.427,509.200,106.600,24.230,7.687,baseline
1400.000,339.500,76.110,15.620,1241.000,274.900,58.850,11.550,227.800,62.630,14.620,4.456,509.600,106.700,24.260,7.693,baseline
1401.000,340.200,76.310,15.630,1241.000,275.200,58.840,11.550,227.400,63.140,14.740,4.451,510.100,107.400,24.380,7.746,baseline
1403.000,340.400,76.580,15.690,1244.000,274.900,58.920,11.510,230.700,62.720,14.760,4.463,511.700,107.100,24.410,7.709,baseline
1400.000,338.500,75.840,15.510,1236.000,274.400,58.540,11.500,227.000,62.760,14.630,4.419,506.500,105.800,23.930,7.581,baseline
1395.000,337.400,75.670,15.490,1239.000,274.200,58.600,11.510,228.100,62.380,14.610,4.397,504.000,105.300,23.990,7.528,baseline
1394.000,336.400,75.760,15.460,1238.000,273.600,58.660,11.480,227.100,62.720,14.680,4.421,504.200,105.500,23.870,7.552,baseline
1393.000,337.400,75.530,15.410,1239.000,273.800,58.590,11.490,223.900,62.340,14.560,4.403,503.900,105.200,23.840,7.539,baseline
1393.000,336.700,75.540,15.430,1238.000,273.800,58.700,11.470,224.800,61.940,14.500,4.396,503.300,105.100,23.900,7.540,baseline
1393.000,335.900,75.710,15.450,1238.000,273.800,58.600,11.470,224.900,62.240,14.530,4.407,504.200,105.400,23.910,7.557,baseline
1394.000,337.500,75.830,15.510,1241.000,273.800,58.630,11.490,226.900,62.470,14.530,4.413,505.500,105.800,23.990,7.616,baseline
1396.000,339.600,75.560,15.500,1241.000,274.300,58.810,11.520,230.200,62.530,14.560,4.415,505.300,106.300,24.020,7.619,baseline
1398.000,338.500,75.870,15.540,1241.000,274.700,58.610,11.530,227.400,62.580,14.610,4.438,508.800,106.000,24.200,7.652,baseline
1397.000,338.300,75.530,15.440,1239.000,273.300,58.440,11.470,228.500,62.820,14.590,4.427,504.600,105.200,23.900,7.501,baseline
1389.000,336.800,75.140,15.360,1238.000,273.400,58.510,11.470,225.500,62.020,14.470,4.374,500.200,104.700,23.610,7.445,baseline
1389.000,336.400,75.170,15.320,1236.000,273.700,58.800,11.470,228.600,61.900,14.470,4.372,498.700,104.000,23.660,7.466,baseline
1389.000,334.800,75.060,15.350,1239.000,272.900,58.570,11.450,226.900,62.050,14.380,4.370,499.900,104.200,23.630,7.428,baseline
1388.000,335.000,75.270,15.310,1234.000,274.000,58.520,11.480,225.200,61.710,14.390,4.388,499.000,104.200,23.550,7.447,baseline
1390.000,335.000,75.150,15.330,1235.000,273.700,58.410,11.480,222.700,61.930,14.450,4.344,501.100,104.200,23.600,7.445,baseline
1389.000,335.300,75.190,15.370,1235.000,273.000,58.400,11.490,224.200,61.970,14.480,4.369,502.800,104.700,23.650,7.451,baseline
1391.000,335.800,75.550,15.430,1237.000,274.400,58.640,11.500,225.000,62.170,14.410,4.388,503.300,105.100,23.680,7.515,baseline
1393.000,336.900,75.640,15.470,1241.000,274.200,58.720,11.530,227.100,62.410,14.610,4.387,505.800,105.400,23.810,7.540,baseline
1394.000,338.600,75.620,15.500,1237.000,273.900,58.670,11.470,224.100,62.570,14.570,4.416,504.900,105.500,23.700,7.507,baseline
1389.000,333.600,75.130,15.360,1235.000,272.600,58.380,11.480,226.400,62.050,14.460,4.374,499.400,104.100,23.350,7.405,baseline
1388.000,335.200,74.950,15.310,1236.000,273.000,58.380,11.460,225.200,61.950,14.420,4.347,498.400,103.700,23.490,7.364,baseline
1386.000,334.900,74.900,15.230,1236.000,273.200,58.540,11.500,224.600,61.900,14.390,4.367,498.600,103.800,23.330,7.395,baseline
1388.000,334.600,74.980,15.290,1238.000,273.300,58.390,11.460,226.600,61.650,14.380,4.353,498.600,103.900,23.400,7.346,baseline
1388.000,335.500,74.920,15.340,1235.000,273.500,58.650,11.460,226.300,61.840,14.420,4.372,498.300,103.800,23.510,7.376,baseline
1390.000,335.100,75.340,15.350,1236.000,273.500,58.420,11.500,226.000,62.010,14.430,4.369,499.800,104.100,23.420,7.378,baseline
1390.000,336.700,75.720,15.430,1238.000,273.400,58.600,11.560,224.300,62.110,14.440,4.371,501.700,104.500,23.590,7.444,baseline
1393.000,336.700,76.030,15.460,1238.000,274.100,58.750,11.560,225.900,62.340,14.520,4.399,503.800,105.300,23.620,7.460,baseline
1396.000,337.800,76.130,15.480,1240.000,274.100,59.000,11.620,225.600,62.060,14.510,4.397,503.900,105.100,23.780,7.510,baseline
1398.000,338.400,75.760,15.450,1239.000,273.500,58.830,11.510,228.500,62.540,14.530,4.411,502.000,104.100,23.410,7.381,baseline
1392.000,336.000,75.390,15.420,1241.000,273.400,58.910,11.560,227.100,62.170,14.360,4.367,498.400,103.600,23.380,7.360,baseline
1393.000,336.600,75.520,15.380,1241.000,273.900,58.720,11.580,223.600,61.930,14.420,4.374,499.500,104.000,23.330,7.388,baseline
1395.000,336.500,75.320,15.400,1240.000,274.200,58.880,11.550,225.800,61.910,14.400,4.358,500.000,104.100,23.310,7.365,baseline
1393.000,335.900,75.410,15.410,1240.000,273.900,58.940,11.590,224.400,62.000,14.370,4.371,500.000,104.300,23.410,7.370,baseline
1394.000,336.500,75.980,15.460,1243.000,274.300,58.950,11.640,225.400,61.810,14.400,4.384,500.900,104.500,23.500,7.404,baseline
1398.000,337.700,75.950,15.500,1246.000,275.100,59.020,11.610,225.000,62.680,14.480,4.378,501.500,104.900,23.610,7.429,baseline
1400.000,337.200,76.200,15.520,1247.000,275.300,59.200,11.650,228.100,62.470,14.520,4.390,503.800,104.900,23.630,7.466,baseline
1403.000,340.300,76.640,15.610,1244.000,275.300,59.160,11.660,226.500,62.640,14.600,4.420,504.300,105.500,23.630,7.451,baseline
1404.000,339.600,76.120,15.480,1242.000,275.300,58.950,11.610,226.500,62.620,14.480,4.404,500.800,104.100,23.360,7.339,baseline
1397.000,336.300,75.770,15.390,1245.000,274.400,59.060,11.600,224.000,61.920,14.480,4.379,497.700,103.700,23.400,7.313,baseline
1397.000,337.100,75.780,15.400,1244.000,275.300,59.170,11.600,228.700,62.080,14.360,4.391,499.400,104.100,23.270,7.321,baseline
1399.000,337.800,75.920,15.450,1243.000,275.200,59.100,11.610,224.000,61.870,14.470,4.364,498.700,104.100,23.330,7.307,baseline
1399.000,336.900,75.740,15.450,1243.000,275.100,59.130,11.660,224.100,61.770,14.420,4.400,498.500,104.000,23.260,7.325,baseline
1402.000,338.200,76.240,15.480,1248.000,275.500,59.480,11.650,224.200,62.210,14.400,4.393,498.900,104.100,23.340,7.347,baseline
1404.000,339.400,76.600,15.530,1248.000,275.900,59.450,11.680,226.100,62.040,14.380,4.390,500.200,104.400,23.520,7.374,baseline
1407.000,339.600,76.460,15.540,1248.000,276.200,59.310,11.690,227.100,62.120,14.460,4.413,501.600,105.100,23.540,7.413,baseline
1410.000,341.400,76.800,15.590,1250.000,276.600,59.590,11.710,224.800,62.620,14.520,4.417,502.600,105.300,23.460,7.433,baseline
1412.000,340.900,76.790,15.680,1252.000,277.100,59.450,11.690,225.200,62.440,14.470,4.425,505.800,105.500,23.640,7.394,baseline
1408.000,339.600,76.520,15.550,1250.000,276.200,59.300,11.690,226.500,62.270,14.370,4.378,499.100,104.000,23.200,7.279,baseline
1406.000,338.100,76.310,15.500,1253.000,276.600,59.400,11.650,226.800,61.790,14.360,4.372,497.100,103.500,23.200,7.308,baseline
1406.000,336.800,76.170,15.500,1248.000,276.700,59.480,11.690,223.200,62.330,14.300,4.381,497.300,103.700,23.090,7.242,baseline
1407.000,339.000,76.200,15.490,1250.000,276.500,59.490,11.710,223.900,61.810,14.380,4.375,495.700,103.800,23.150,7.257,baseline
1407.000,340.000,76.330,15.470,1254.000,277.200,59.410,11.710,224.300,61.890,14.260,4.367,496.700,103.500,23.060,7.272,baseline
1409.000,340.000,76.280,15.560,1250.000,277.000,59.780,11.740,225.700,61.560,14.330,4.387,497.000,104.100,23.170,7.293,baseline
1411.000,340.300,76.760,15.610,1255.000,277.400,59.750,11.710,226.500,62.130,14.390,4.389,499.600,104.500,23.210,7.315,baseline
1415.000,341.600,77.010,15.640,1257.000,277.000,59.770,11.780,224.100,62.310,14.390,4.413,501.000,104.700,23.290,7.389,baseline
1416.000,342.700,77.080,15.650,1257.000,277.500,59.900,11.750,226.600,62.330,14.450,4.421,502.500,105.400,23.460,7.412,baseline
1418.000,343.700,77.320,15.790,1258.000,278.300,59.860,11.780,222.300,62.820,14.490,4.429,503.700,105.200,23.430,7.428,baseline
1416.000,341.900,76.620,15.510,1253.000,277.200,59.570,11.730,226.900,62.500,14.350,4.416,498.200,104.200,23.210,7.270,baseline
1411.000,340.500,76.460,15.530,1255.000,276.900,59.580,11.750,223.500,62.100,14.340,4.389,497.000,103.800,23.120,7.273,baseline
1409.000,339.800,76.130,15.490,1255.000,277.300,59.620,11.750,223.900,62.150,14.350,4.396,497.700,104.000,23.180,7.239,baseline
1411.000,340.000,76.510,15.530,1255.000,278.000,59.640,11.700,224.400,62.010,14.400,4.406,496.800,103.500,23.010,7.259,baseline
1410.000,340.100,76.250,15.500,1256.000,277.400,59.710,11.710,226.500,61.680,14.410,4.378,497.000,103.800,23.270,7.272,baseline
1411.000,340.000,76.230,15.530,1256.000,277.400,59.710,11.740,227.900,62.140,14.410,4.407,497.400,104.000,23.210,7.309,baseline
1414.000,340.600,76.480,15.590,1256.000,277.100,59.830,11.740,224.700,62.650,14.460,4.419,498.000,104.900,23.380,7.331,baseline
1415.000,341.800,77.000,15.620,1259.000,277.600,59.950,11.760,226.000,62.560,14.510,4.427,501.600,105.200,23.360,7.371,baseline
1417.000,342.000,76.800,15.660,1257.000,278.100,60.020,11.790,224.100,63.020,14.570,4.441,502.400,105.500,23.470,7.398,baseline
1419.000,343.100,77.140,15.650,1263.000,278.600,60.110,11.810,225.200,62.770,14.510,4.469,503.000,105.100,23.640,7.433,baseline
1422.000,344.400,77.480,15.760,1261.000,279.300,59.980,11.820,227.500,63.100,14.600,4.467,506.600,105.900,23.640,7.464,baseline
1420.000,342.800,76.840,15.580,1261.000,278.000,59.770,11.810,224.300,62.900,14.570,4.438,499.500,104.400,23.290,7.326,baseline
1414.000,340.800,76.780,15.540,1256.000,278.300,59.840,11.780,225.500,62.210,14.570,4.403,498.000,104.500,23.190,7.333,baseline
1414.000,340.900,76.680,15.550,1260.000,279.100,59.870,11.790,224.100,62.520,14.450,4.422,498.700,104.000,23.250,7.303,baseline
1416.000,341.300,76.810,15.600,1258.000,279.000,59.890,11.770,223.300,62.010,14.540,4.440,498.400,104.000,23.170,7.306,baseline
1415.000,341.700,76.980,15.580,1260.000,278.300,59.860,11.800,227.600,62.280,14.550,4.411,498.200,104.600,23.160,7.300,baseline
1417.000,342.600,76.880,15.600,1257.000,278.600,60.080,11.770,226.500,62.410,14.540,4.449,500.400,104.700,23.310,7.385,baseline
1417.000,342.000,77.040,15.660,1260.000,278.600,60.090,11.780,225.800,62.330,14.560,4.423,500.900,105.200,23.400,7.401,baseline
1418.000,341.400,76.960,15.690,1263.000,278.800,60.040,11.760,226.900,62.530,14.570,4.441,501.900,105.100,23.670,7.413,baseline
1420.000,343.200,77.220,15.730,1260.000,278.300,59.980,11.810,229.600,62.690,14.600,4.461,502.900,105.500,23.650,7.431,baseline
1421.000,344.600,77.310,15.720,1262.000,279.200,60.060,11.830,225.200,62.710,14.610,4.463,504.100,106.200,23.640,7.464,baseline
1421.000,344.400,76.840,15.690,1262.000,278.300,59.850,11.730,226.500,62.660,14.530,4.457,500.300,104.200,23.250,7.341,baseline
1414.000,341.800,76.910,15.600,1260.000,277.700,59.910,11.770,224.300,62.390,14.460,4.428,497.200,104.300,23.050,7.323,baseline
1413.000,340.300,76.940,15.560,1260.000,277.900,59.920,11.780,225.600,62.340,14.410,4.427,497.000,104.300,23.220,7.308,baseline
1414.000,341.700,76.810,15.630,1257.000,278.700,59.950,11.760,226.000,62.080,14.490,4.433,496.400,104.100,23.240,7.301,baseline
1412.000,340.900,76.690,15.570,1257.000,277.900,59.820,11.770,224.200,62.160,14.450,4.414,496.200,104.200,23.130,7.319,baseline
1414.000,340.700,76.600,15.620,1260.000,279.100,60.170,11.790,224.800,62.410,14.400,4.420,497.600,103.700,23.180,7.368,baseline
1416.000,342.700,77.030,15.650,1260.000,278.800,60.000,11.800,224.000,62.680,14.450,4.418,499.200,104.900,23.330,7.402,baseline
1417.000,342.500,77.190,15.730,1259.000,279.000,60.090,11.840,226.000,62.250,14.460,4.442,501.600,105.000,23.490,7.442,baseline
1419.000,343.000,77.230,15.770,1259.000,278.600,60.230,11.810,226.000,62.760,14.590,4.461,503.800,105.000,23.510,7.494,baseline
1419.000,342.700,77.090,15.760,1260.000,278.600,60.140,11.830,227.300,62.830,14.540,4.476,504.300,105.900,23.740,7.494,baseline
1417.000,341.600,76.900,15.630,1254.000,277.500,59.810,11.740,223.900,62.680,14.580,4.431,502.000,104.500,23.240,7.376,baseline
1409.000,340.500,76.320,15.580,1254.000,277.600,59.530,11.730,224.800,62.010,14.480,4.421,498.100,104.100,23.300,7.326,baseline
1407.000,339.200,76.450,15.490,1255.000,277.300,59.560,11.700,227.800,62.350,14.440,4.429,498.200,103.800,23.300,7.350,baseline
1403.000,338.100,76.120,15.470,1247.000,276.500,59.410,11.660,225.800,62.490,14.410,4.432,498.100,103.800,23.190,7.310,baseline
1399.000,337.700,75.860,15.390,1247.000,275.500,59.110,11.660,228.400,62.690,14.480,4.415,499.200,103.900,23.220,7.335,baseline
1395.000,337.000,75.930,15.340,1242.000,274.200,58.970,11.620,224.900,62.830,14.510,4.424,499.500,104.600,23.460,7.380,baseline
1392.000,335.800,75.390,15.370,1242.000,273.800,58.840,11.560,226.900,62.430,14.520,4.431,500.400,104.500,23.480,7.419,baseline
1389.000,335.200,75.500,15.320,1235.000,273.400,58.700,11.550,226.400,62.660,14.540,4.446,502.600,104.800,23.530,7.458,baseline
1386.000,335.900,75.240,15.310,1232.000,273.100,58.620,11.540,226.600,62.860,14.540,4.443,502.700,105.300,23.620,7.517,baseline
1387.000,335.600,75.880,15.410,1233.000,272.000,58.680,11.490,226.700,62.980,14.530,4.456,504.300,105.400,23.700,7.511,baseline
1386.000,335.000,75.010,15.210,1229.000,271.300,58.350,11.410,228.400,62.650,14.550,4.438,499.900,104.300,23.370,7.328,baseline
1377.000,331.800,74.430,15.100,1229.000,271.000,58.190,11.400,224.700,62.550,14.520,4.401,497.500,104.000,23.240,7.375,baseline
1376.000,333.000,74.580,15.140,1229.000,270.900,58.150,11.420,226.500,62.430,14.410,4.407,497.600,103.700,23.310,7.316,baseline
1377.000,333.200,74.340,15.150,1226.000,271.000,58.080,11.410,226.300,61.970,14.370,4.399,497.700,104.200,23.240,7.321,baseline
1376.000,332.200,74.210,15.050,1227.000,270.500,57.960,11.380,226.100,62.360,14.520,4.405,497.500,103.800,23.290,7.356,baseline
1374.000,332.600,74.600,15.090,1227.000,271.100,57.880,11.380,225.800,62.460,14.410,4.413,499.600,103.800,23.310,7.410,baseline
1375.000,332.300,74.810,15.120,1223.000,270.800,57.990,11.370,226.200,62.220,14.530,4.415,501.000,104.300,23.360,7.454,baseline
1375.000,331.900,74.580,15.100,1222.000,270.700,57.920,11.350,228.200,62.540,14.550,4.403,502.800,104.800,23.540,7.435,baseline
1376.000,332.600,74.440,15.200,1222.000,271.400,57.980,11.390,227.500,62.880,14.500,4.414,502.300,105.100,23.490,7.498,baseline
1377.000,332.000,75.070,15.210,1224.000,270.700,58.010,11.370,228.000,62.750,14.550,4.426,503.500,105.600,23.610,7.532,baseline
1379.000,333.300,74.690,15.140,1222.000,270.000,57.860,11.310,229.000,62.630,14.500,4.415,503.700,104.500,23.310,7.392,baseline
1371.000,331.600,74.050,15.050,1221.000,270.000,57.920,11.340,225.900,62.620,14.350,4.403,499.100,104.100,23.320,7.384,baseline
1371.000,330.300,74.070,15.100,1219.000,270.200,57.820,11.340,223.700,62.280,14.480,4.392,498.400,104.300,23.370,7.391,baseline
1370.000,332.600,74.130,15.120,1219.000,268.900,57.840,11.340,228.000,62.230,14.510,4.410,501.200,104.100,23.190,7.378,baseline
1369.000,331.400,74.280,15.070,1216.000,269.300,57.730,11.300,224.400,62.140,14.400,4.384,500.900,104.400,23.340,7.390,baseline
1368.000,330.800,74.460,15.110,1219.000,269.500,57.900,11.330,225.500,62.340,14.390,4.390,502.000,104.500,23.480,7.431,baseline
1370.000,331.500,74.860,15.190,1219.000,269.800,57.790,11.350,226.100,62.400,14.430,4.394,503.100,105.200,23.610,7.480,baseline
1373.000,332.500,74.900,15.190,1219.000,269.600,57.790,11.370,229.100,62.450,14.490,4.418,505.300,105.400,23.540,7.465,baseline
1374.000,332.400,74.860,15.270,1220.000,269.300,57.800,11.340,228.000,62.690,14.490,4.424,507.300,105.700,23.630,7.483,baseline
1374.000,332.400,74.500,15.160,1213.000,268.100,57.370,11.220,232.200,62.690,14.490,4.423,507.600,105.300,23.580,7.455,baseline
1364.000,328.500,74.050,14.950,1214.000,267.000,57.200,11.220,227.400,62.240,14.330,4.372,500.000,104.400,23.320,7.383,baseline
1368.000,329.600,74.240,15.050,1214.000,267.900,57.320,11.240,229.200,62.540,14.340,4.388,499.500,104.500,23.330,7.434,baseline
1369.000,330.100,74.100,15.010,1212.000,268.200,57.150,11.190,227.500,62.610,14.440,4.388,500.400,104.000,23.420,7.437,baseline
1366.000,329.600,73.950,15.020,1209.000,267.500,57.140,11.190,228.500,62.100,14.490,4.377,500.000,104.400,23.330,7.388,baseline
1364.000,328.400,74.000,14.970,1206.000,265.800,57.190,11.190,227.600,62.580,14.370,4.396,502.100,104.600,23.340,7.433,baseline
1364.000,330.000,73.630,15.010,1213.000,267.400,56.980,11.230,228.300,62.540,14.390,4.397,504.100,105.100,23.740,7.466,baseline
1367.000,330.600,74.460,15.100,1212.000,267.400,57.220,11.180,226.000,62.370,14.420,4.413,503.900,105.500,23.740,7.516,baseline
1367.000,332.000,74.400,15.150,1210.000,267.200,57.240,11.210,227.300,62.540,14.540,4.400,506.800,105.800,23.840,7.573,baseline
1368.000,331.000,74.560,15.090,1208.000,266.300,57.110,11.190,227.800,62.840,14.630,4.422,508.900,106.100,23.790,7.538,baseline
1364.000,330.000,73.830,14.940,1206.000,265.300,56.940,11.150,231.200,62.710,14.480,4.364,503.500,104.700,23.440,7.400,baseline
1358.000,327.500,73.350,14.940,1205.000,265.600,56.890,11.160,227.800,62.380,14.480,4.380,503.300,104.700,23.390,7.403,baseline
1360.000,327.400,73.730,14.980,1208.000,265.600,56.860,11.160,226.700,62.660,14.410,4.366,501.000,104.900,23.500,7.409,baseline
1361.000,328.300,74.110,14.990,1210.000,266.700,57.020,11.190,226.600,62.220,14.440,4.383,502.900,104.600,23.420,7.405,baseline
1361.000,328.800,73.430,14.950,1205.000,266.400,56.890,11.160,227.100,62.140,14.430,4.371,503.400,104.600,23.580,7.440,baseline
1358.000,329.000,73.930,14.950,1203.000,265.800,56.930,11.130,230.700,62.740,14.490,4.372,503.700,105.100,23.620,7.471,baseline
1359.000,330.600,73.700,15.040,1202.000,265.500,57.000,11.190,226.800,62.360,14.520,4.393,505.300,105.200,23.790,7.510,baseline
1361.000,328.700,73.910,15.140,1208.000,266.000,57.370,11.260,227.100,62.610,14.570,4.391,506.700,105.900,23.850,7.528,baseline
1365.000,331.600,74.910,15.180,1213.000,267.000,57.470,11.300,226.800,62.800,14.560,4.392,507.500,106.400,23.870,7.541,baseline
1371.000,332.500,74.610,15.170,1215.000,266.700,57.340,11.280,228.600,62.810,14.560,4.403,508.600,105.500,23.740,7.474,baseline
1365.000,328.600,73.960,15.030,1216.000,267.500,57.470,11.290,228.800,62.310,14.510,4.378,502.200,104.600,23.580,7.408,baseline
1364.000,330.100,74.160,15.110,1214.000,268.200,57.440,11.330,227.700,62.440,14.470,4.344,502.600,105.000,23.460,7.437,baseline
1366.000,328.800,74.390,15.080,1218.000,269.500,57.710,11.350,225.900,62.460,14.490,4.390,502.400,104.900,23.690,7.467,baseline
1367.000,329.300,74.130,15.150,1219.000,269.100,57.750,11.310,227.600,62.500,14.550,4.383,503.000,104.800,23.710,7.457,baseline
1366.000,330.400,74.540,15.130,1208.000,267.600,57.400,11.260,230.000,62.720,14.560,4.388,504.100,105.000,23.790,7.477,baseline
1357.000,327.500,74.060,15.010,1202.000,265.800,56.960,11.170,227.200,63.140,14.550,4.389,503.600,105.300,23.650,7.495,baseline
1354.000,327.100,73.560,15.000,1205.000,266.400,57.110,11.190,229.400,63.070,14.590,4.409,503.700,105.600,23.840,7.499,baseline
1361.000,329.700,74.150,15.130,1210.000,266.900,57.300,11.230,231.000,62.830,14.500,4.415,507.400,106.000,23.980,7.548,baseline
1365.000,331.000,74.450,15.170,1213.000,268.000,57.400,11.270,227.400,63.080,14.600,4.430,507.500,106.600,23.930,7.553,baseline
1366.000,330.800,74.090,15.060,1213.000,267.100,57.310,11.220,225.200,63.110,14.550,4.388,503.700,105.000,23.650,7.425,baseline
1362.000,329.100,74.070,14.980,1217.000,268.300,57.410,11.230,229.300,62.600,14.520,4.375,501.700,104.900,23.570,7.408,baseline
1364.000,330.000,74.050,15.000,1212.000,268.100,57.260,11.260,228.300,62.610,14.480,4.381,501.600,104.700,23.470,7.400,baseline
1364.000,329.400,74.150,15.070,1213.000,268.200,57.330,11.260,229.600,62.730,14.440,4.377,501.100,104.900,23.560,7.390,baseline
1364.000,328.400,74.120,15.060,1215.000,268.500,57.500,11.250,228.400,62.670,14.490,4.377,501.500,104.700,23.620,7.408,baseline
1365.000,329.400,74.140,15.120,1216.000,268.700,57.450,11.240,229.000,62.440,14.480,4.397,501.100,104.500,23.530,7.442,baseline
1369.000,329.800,74.360,15.140,1213.000,268.400,57.490,11.300,229.600,62.640,14.500,4.391,503.300,105.600,23.770,7.482,baseline
1370.000,330.900,74.570,15.190,1217.000,269.200,57.610,11.270,228.900,62.660,14.610,4.423,505.400,106.000,23.710,7.496,baseline
1371.000,331.000,74.600,15.260,1214.000,269.600,57.660,11.320,228.700,62.650,14.640,4.411,506.300,105.500,23.940,7.505,baseline
1369.000,330.000,74.270,15.060,1214.000,268.000,57.550,11.250,227.500,62.990,14.490,4.386,501.900,104.400,23.560,7.397,baseline
1366.000,330.000,73.900,15.080,1219.000,268.600,57.560,11.280,228.900,62.470,14.520,4.383,499.800,104.900,23.590,7.385,baseline
1367.000,330.300,74.350,15.140,1220.000,268.600,57.710,11.280,226.900,62.590,14.620,4.385,500.600,104.400,23.610,7.413,baseline
1368.000,331.300,74.340,15.080,1220.000,269.600,57.630,11.320,227.100,62.450,14.410,4.408,499.800,104.500,23.650,7.405,baseline
1369.000,330.000,74.650,15.180,1222.000,269.700,57.840,11.360,226.700,62.260,14.530,4.380,501.100,104.800,23.670,7.413,baseline
1373.000,332.300,74.740,15.190,1225.000,270.700,57.720,11.370,229.600,63.000,14.490,4.394,501.800,105.100,23.750,7.452,baseline
1375.000,332.400,74.890,15.240,1230.000,271.200,58.040,11.400,227.400,62.760,14.560,4.405,503.100,105.500,23.800,7.490,baseline
1378.000,332.600,74.820,15.340,1228.000,271.000,58.070,11.380,228.000,62.810,14.550,4.406,503.100,106.000,23.860,7.522,baseline
1380.000,334.800,75.230,15.380,1228.000,271.200,58.270,11.330,229.100,63.210,14.670,4.430,506.100,105.800,23.760,7.469,baseline
1376.000,331.900,74.820,15.180,1229.000,270.400,57.940,11.360,226.900,62.410,14.540,4.382,501.000,104.800,23.530,7.435,baseline
1374.000,332.700,74.660,15.210,1229.000,270.800,58.050,11.380,227.800,62.400,14.510,4.397,498.400,104.600,23.550,7.403,baseline
1375.000,332.500,74.660,15.250,1230.000,270.900,57.870,11.390,227.100,62.640,14.540,4.379,499.600,104.200,23.540,7.421,baseline
1375.000,332.300,74.680,15.180,1232.000,271.100,57.950,11.360,228.500,62.470,14.520,4.364,499.500,104.300,23.430,7.413,baseline
1375.000,332.200,74.510,15.180,1229.000,270.900,57.950,11.420,228.700,62.470,14.530,4.382,499.600,104.400,23.650,7.451,baseline
1376.000,333.700,74.770,15.240,1226.000,271.500,58.200,11.410,227.400,62.510,14.510,4.371,501.900,105.100,23.690,7.469,baseline
1377.000,333.800,74.980,15.260,1229.000,271.000,58.120,11.410,230.700,62.660,14.560,4.378,501.900,105.400,23.760,7.502,baseline
1380.000,335.000,75.230,15.350,1227.000,271.200,58.210,11.420,227.600,62.730,14.590,4.412,504.000,105.600,23.960,7.558,baseline
1380.000,334.900,75.120,15.350,1230.000,270.800,58.280,11.390,227.700,63.070,14.580,4.411,505.400,106.000,23.790,7.530,baseline
1379.000,331.900,74.940,15.270,1231.000,270.600,57.870,11.330,228.000,62.320,14.530,4.395,500.700,104.400,23.530,7.432,baseline
1373.000,330.300,74.540,15.250,1224.000,271.500,58.000,11.380,227.900,62.430,14.460,4.386,499.200,104.500,23.620,7.410,baseline
1373.000,331.600,74.790,15.230,1226.000,271.000,58.160,11.360,225.000,62.510,14.560,4.369,498.800,104.800,23.490,7.419,baseline
1375.000,333.100,74.620,15.260,1227.000,271.200,58.110,11.370,226.300,62.450,14.540,4.376,499.100,104.500,23.520,7.411,baseline
1374.000,332.500,74.660,15.290,1227.000,271.600,58.100,11.380,226.400,62.540,14.500,4.392,500.000,104.500,23.700,7.430,baseline
1375.000,334.100,75.000,15.320,1227.000,271.400,58.140,11.370,227.400,62.620,14.480,4.397,501.600,104.700,23.670,7.512,baseline
1376.000,333.600,75.050,15.310,1230.000,271.500,58.120,11.390,228.400,62.670,14.480,4.384,502.000,105.300,23.680,7.519,baseline
1377.000,333.400,75.250,15.350,1231.000,271.400,58.310,11.420,227.200,62.900,14.550,4.399,503.400,105.200,23.710,7.552,baseline
1379.000,335.000,75.270,15.400,1232.000,272.100,58.080,11.430,224.700,62.480,14.650,4.416,505.400,106.000,23.840,7.557,baseline
1381.000,335.300,75.500,15.400,1229.000,272.000,58.290,11.440,231.200,62.880,14.600,4.409,505.000,105.900,23.840,7.554,baseline
1378.000,333.300,74.820,15.220,1228.000,272.000,58.090,11.340,228.500,62.840,14.500,4.385,499.900,104.000,23.460,7.430,baseline
1373.000,331.600,74.730,15.180,1228.000,271.400,57.900,11.360,225.200,62.600,14.460,4.377,498.300,103.800,23.390,7.397,baseline
1371.000,331.200,74.610,15.170,1228.000,271.000,57.930,11.360,225.900,62.060,14.420,4.377,496.500,103.700,23.430,7.421,baseline
1371.000,331.200,74.480,15.150,1226.000,271.000,57.960,11.360,229.100,62.070,14.440,4.381,496.800,103.700,23.340,7.390,baseline
1371.000,332.100,74.180,15.150,1228.000,270.900,58.030,11.330,225.200,62.450,14.450,4.373,495.800,103.800,23.330,7.406,baseline
1371.000,332.400,74.470,15.240,1229.000,271.700,58.170,11.360,227.500,62.300,14.540,4.384,499.000,104.000,23.470,7.410,baseline
1372.000,333.900,74.330,15.200,1231.000,270.900,58.040,11.380,228.300,62.660,14.520,4.372,499.300,104.400,23.490,7.472,baseline
1373.000,332.500,74.830,15.300,1228.000,271.600,58.140,11.360,230.000,62.510,14.530,4.419,501.300,104.800,23.570,7.500,baseline
1376.000,333.500,75.000,15.280,1231.000,271.900,58.050,11.420,228.600,62.570,14.500,4.400,501.800,104.800,23.590,7.490,baseline
1376.000,334.400,75.280,15.360,1234.000,271.500,58.190,11.420,226.600,62.300,14.590,4.418,504.000,105.400,23.880,7.513,baseline
1380.000,335.000,75.240,15.370,1231.000,271.900,58.370,11.420,228.200,62.530,14.570,4.426,504.000,105.700,23.750,7.487,baseline
1375.000,333.200,74.540,15.220,1229.000,271.600,58.050,11.410,225.400,62.270,14.490,4.386,498.200,104.000,23.250,7.388,baseline
1372.000,332.300,74.550,15.170,1227.000,271.200,58.090,11.350,227.800,62.160,14.420,4.385,497.400,103.800,23.270,7.376,baseline
1369.000,330.500,74.310,15.160,1229.000,271.100,58.160,11.420,228.200,62.280,14.460,4.387,496.500,103.400,23.300,7.355,baseline
1369.000,330.900,74.100,15.150,1228.000,270.800,58.090,11.360,225.100,62.610,14.440,4.392,495.800,103.500,23.100,7.333,baseline
1368.000,331.000,74.240,15.150,1225.000,271.100,57.860,11.340,226.000,62.030,14.420,4.376,495.400,103.500,23.200,7.386,baseline
1368.000,331.400,74.360,15.170,1228.000,271.600,58.050,11.370,229.600,62.410,14.480,4.390,496.000,103.700,23.360,7.394,baseline
1370.000,331.300,74.290,15.180,1227.000,271.300,58.250,11.420,226.300,62.470,14.490,4.399,499.300,104.500,23.490,7.433,baseline
1370.000,331.400,74.620,15.230,1228.000,270.900,58.050,11.370,229.100,62.670,14.570,4.401,499.900,104.400,23.520,7.454,baseline
1371.000,333.200,74.550,15.260,1228.000,272.100,58.370,11.430,227.000,62.690,14.470,4.445,502.000,104.800,23.510,7.484,baseline
1374.000,333.000,74.540,15.300,1232.000,271.900,58.350,11.450,229.800,63.420,14.540,4.434,502.300,105.300,23.690,7.523,baseline
1376.000,334.600,75.040,15.300,1229.000,271.400,58.180,11.420,229.000,63.000,14.670,4.440,504.300,104.900,23.550,7.449,baseline
1369.000,331.100,74.240,15.130,1228.000,270.800,58.090,11.380,229.900,62.770,14.580,4.393,498.500,103.500,23.200,7.382,baseline
1367.000,330.500,74.220,15.080,1228.000,270.700,58.000,11.360,227.800,62.320,14.410,4.406,496.600,103.800,23.330,7.384,baseline
1365.000,329.100,74.290,15.120,1225.000,270.900,58.150,11.370,227.700,62.730,14.550,4.409,496.000,103.400,23.260,7.389,baseline
1364.000,330.900,73.770,15.100,1225.000,270.300,57.940,11.330,228.400,62.400,14.530,4.417,497.600,103.500,23.240,7.392,baseline
1364.000,329.600,74.070,15.150,1225.000,270.500,57.880,11.370,227.900,62.280,14.500,4.394,496.600,103.900,23.250,7.390,baseline
1365.000,329.700,73.960,15.150,1226.000,270.900,58.150,11.350,227.400,62.490,14.600,4.419,497.900,104.000,23.330,7.374,baseline
1366.000,331.500,74.100,15.140,1226.000,270.400,58.070,11.390,228.700,62.710,14.580,4.429,499.000,104.100,23.450,7.390,baseline
1366.000,330.500,74.420,15.120,1226.000,270.500,58.090,11.420,227.900,62.610,14.540,4.446,501.500,104.600,23.470,7.466,baseline
1367.000,331.800,74.360,15.220,1228.000,270.400,58.190,11.420,227.600,63.120,14.600,4.450,501.700,104.800,23.450,7.509,baseline
1368.000,332.100,73.990,15.140,1225.000,269.600,57.980,11.370,229.200,63.180,14.600,4.434,500.000,104.000,23.200,7.375,baseline
1361.000,329.800,73.670,15.060,1226.000,269.600,57.940,11.340,226.800,62.620,14.500,4.403,495.800,103.100,23.140,7.389,baseline
1360.000,330.200,73.580,15.030,1221.000,270.100,57.890,11.380,225.000,63.090,14.490,4.405,496.600,103.300,23.290,7.375,baseline
1360.000,330.000,73.630,15.080,1223.000,269.200,57.860,11.390,228.200,62.340,14.530,4.427,496.300,103.300,23.280,7.338,baseline
1359.000,328.600,73.930,14.990,1223.000,269.700,57.930,11.360,228.000,62.870,14.520,4.412,495.600,103.300,23.150,7.356,baseline
1360.000,329.100,73.910,15.080,1226.000,269.500,57.920,11.400,229.100,62.350,14.520,4.440,496.100,103.500,23.260,7.414,baseline
1362.000,329.600,73.920,15.080,1225.000,270.300,58.110,11.390,228.000,62.710,14.560,4.412,498.500,104.100,23.370,7.402,baseline
1363.000,329.800,73.960,15.160,1226.000,270.100,58.100,11.400,227.100,63.170,14.600,4.446,499.800,104.300,23.550,7.459,baseline
1366.000,331.300,74.420,15.210,1228.000,270.700,58.160,11.430,228.500,63.080,14.550,4.438,502.600,104.600,23.630,7.451,baseline
1369.000,331.800,74.490,15.220,1224.000,270.900,58.400,11.440,231.400,63.040,14.690,4.455,502.700,105.100,23.730,7.517,baseline
1370.000,331.300,74.310,15.200,1227.000,270.300,58.100,11.370,227.500,63.130,14.670,4.429,499.800,104.000,23.380,7.308,baseline
1361.000,329.800,74.040,15.060,1228.000,270.500,58.090,11.400,228.300,62.820,14.470,4.410,495.900,103.300,23.050,7.342,baseline
1361.000,328.800,73.770,15.050,1226.000,270.100,58.200,11.400,230.800,63.050,14.440,4.409,493.900,103.000,23.210,7.316,baseline
1362.000,329.900,73.650,15.010,1226.000,270.500,58.210,11.410,229.000,62.950,14.560,4.406,495.600,102.900,23.070,7.344,baseline
1362.000,328.300,73.760,15.060,1225.000,270.300,58.120,11.390,231.800,63.010,14.540,4.401,493.800,103.000,23.140,7.301,baseline
1363.000,331.100,74.090,15.030,1230.000,270.700,58.060,11.430,229.000,62.760,14.560,4.407,495.500,103.100,23.090,7.334,baseline
1365.000,329.900,74.000,15.080,1232.000,271.300,58.160,11.420,226.300,62.610,14.620,4.424,496.400,103.700,23.280,7.361,baseline
1367.000,329.600,74.190,15.120,1227.000,270.900,58.100,11.410,228.100,62.520,14.610,4.464,497.800,103.900,23.280,7.414,baseline
1367.000,329.900,74.120,15.120,1227.000,270.900,58.080,11.400,229.000,62.890,14.580,4.458,498.600,104.300,23.490,7.406,baseline
1368.000,330.700,74.340,15.180,1224.000,270.300,58.190,11.450,229.000,63.020,14.650,4.477,500.000,105.000,23.450,7.467,baseline
1369.000,331.300,74.640,15.240,1227.000,270.900,58.160,11.400,228.600,63.410,14.610,4.463,501.500,104.500,23.620,7.433,baseline
1366.000,331.500,74.220,15.030,1229.000,270.200,57.950,11.390,229.600,62.900,14.740,4.422,494.900,103.400,23.070,7.302,baseline
1362.000,330.000,73.620,15.020,1224.000,270.200,57.970,11.370,225.900,62.740,14.430,4.407,495.300,102.800,23.050,7.297,baseline
1362.000,329.400,73.720,15.030,1227.000,269.500,57.970,11.370,228.200,62.530,14.500,4.433,492.900,103.100,23.010,7.277,baseline
1364.000,330.300,73.950,14.950,1226.000,269.300,57.930,11.380,225.400,62.410,14.490,4.414,493.800,103.000,23.000,7.294,baseline
1363.000,328.500,73.710,15.020,1226.000,270.400,57.970,11.410,227.700,62.710,14.460,4.427,492.600,102.800,23.040,7.278,baseline
1364.000,330.900,74.160,15.020,1228.000,270.700,58.020,11.380,228.500,62.750,14.540,4.441,493.700,103.400,23.070,7.329,baseline
1367.000,331.900,74.220,15.050,1229.000,270.600,58.090,11.420,228.100,62.690,14.590,4.442,495.600,103.500,23.120,7.333,baseline
1368.000,331.700,74.730,15.140,1228.000,270.700,58.220,11.390,228.400,62.670,14.550,4.464,497.900,103.800,23.280,7.377,baseline
1369.000,330.900,74.450,15.160,1228.000,271.200,58.280,11.450,229.700,62.890,14.640,4.469,499.400,104.000,23.370,7.382,baseline
1372.000,332.000,74.760,15.170,1229.000,271.500,58.320,11.430,230.100,63.000,14.640,4.468,499.300,104.300,23.380,7.403,baseline
1374.000,334.500,74.840,15.270,1233.000,271.700,58.320,11.470,229.900,63.200,14.610,4.472,501.200,105.100,23.410,7.444,baseline
1378.000,334.000,74.740,15.220,1230.000,271.300,58.380,11.460,227.000,63.360,14.670,4.448,499.200,103.900,22.990,7.296,baseline
1372.000,331.900,74.270,15.150,1232.000,271.100,58.350,11.430,228.700,63.110,14.500,4.412,495.200,103.300,23.010,7.290,baseline
1372.000,333.900,74.290,15.160,1235.000,271.500,58.400,11.460,226.800,62.810,14.500,4.442,495.300,102.700,23.060,7.267,baseline
1373.000,332.500,74.640,15.160,1232.000,272.400,58.290,11.480,228.700,62.580,14.540,4.439,496.500,103.500,22.940,7.296,baseline
1374.000,331.200,74.530,15.120,1234.000,271.400,58.390,11.470,229.200,62.770,14.490,4.433,495.400,103.100,23.030,7.263,baseline
1375.000,331.900,74.850,15.150,1233.000,272.500,58.450,11.490,229.500,62.990,14.560,4.432,496.400,103.500,23.090,7.291,baseline
1376.000,333.600,74.950,15.240,1236.000,272.900,58.630,11.480,227.100,62.850,14.550,4.442,496.900,103.600,23.170,7.314,baseline
1378.000,333.700,74.890,15.230,1233.000,272.500,58.630,11.510,229.000,62.870,14.590,4.453,498.000,104.000,23.220,7.369,baseline
1380.000,334.000,75.100,15.260,1234.000,273.100,58.490,11.520,228.900,63.210,14.610,4.473,499.600,104.300,23.090,7.372,baseline
1382.000,335.400,75.190,15.330,1236.000,272.800,58.740,11.520,231.000,63.270,14.700,4.477,499.800,104.600,23.400,7.416,baseline
1383.000,334.700,75.430,15.370,1236.000,273.300,58.810,11.490,232.100,63.690,14.760,4.494,500.900,104.600,23.430,7.404,baseline
1381.000,335.200,74.930,15.250,1235.000,273.000,58.530,11.500,231.500,63.350,14.700,4.496,497.600,103.700,23.180,7.347,baseline
1379.000,333.900,75.000,15.270,1236.000,272.400,58.460,11.510,230.000,63.070,14.650,4.444,496.500,103.600,23.160,7.321,baseline
1380.000,335.500,75.060,15.260,1234.000,272.800,58.740,11.540,229.700,62.840,14.670,4.478,497.600,103.700,23.150,7.344,baseline
1382.000,333.500,74.940,15.240,1236.000,272.500,58.650,11.520,229.100,62.980,14.660,4.471,497.400,103.700,23.240,7.311,baseline
1381.000,335.200,75.160,15.210,1240.000,273.300,58.720,11.530,229.900,63.120,14.660,4.460,499.600,103.900,23.270,7.323,baseline
1384.000,335.600,75.050,15.270,1239.000,273.900,58.750,11.570,227.400,62.890,14.630,4.490,498.500,104.000,23.300,7.345,baseline
1385.000,334.900,75.620,15.350,1240.000,273.200,59.010,11.530,226.900,63.430,14.730,4.488,500.000,104.400,23.360,7.368,baseline
1387.000,335.200,75.490,15.370,1241.000,273.200,58.760,11.590,230.900,63.350,14.730,4.503,502.300,105.200,23.410,7.447,baseline
1389.000,336.700,75.970,15.420,1241.000,274.300,58.880,11.610,232.400,63.320,14.750,4.523,503.400,105.300,23.480,7.469,baseline
1390.000,337.900,76.000,15.420,1242.000,273.800,58.990,11.550,230.600,63.250,14.790,4.529,502.800,104.600,23.450,7.373,baseline
1387.000,335.300,75.160,15.260,1237.000,273.000,58.820,11.530,227.200,63.510,14.710,4.484,497.600,103.300,23.160,7.276,baseline
1382.000,335.200,74.980,15.240,1240.000,273.600,58.740,11.520,227.400,62.910,14.660,4.467,495.700,103.100,23.060,7.259,baseline
1381.000,334.100,74.840,15.210,1238.000,272.500,58.830,11.510,230.400,63.210,14.630,4.464,494.900,103.200,23.020,7.257,baseline
1380.000,333.600,74.970,15.210,1240.000,272.600,58.610,11.540,228.700,62.780,14.630,4.473,494.100,102.900,23.010,7.246,baseline
1379.000,334.200,74.740,15.230,1237.000,273.200,58.710,11.510,228.600,62.820,14.670,4.444,495.600,103.400,23.150,7.270,baseline
1380.000,334.300,74.870,15.210,1236.000,272.900,58.750,11.530,227.500,63.200,14.650,4.469,493.400,103.300,23.110,7.239,baseline
1381.000,334.600,75.110,15.250,1236.000,273.400,58.520,11.540,229.400,62.810,14.640,4.485,496.300,103.500,23.130,7.306,baseline
1382.000,335.300,75.080,15.260,1237.000,273.000,58.660,11.540,230.700,62.750,14.710,4.493,498.800,104.000,23.210,7.349,baseline
1383.000,335.800,75.180,15.300,1242.000,273.600,58.870,11.570,228.000,62.960,14.770,4.487,499.400,103.600,23.220,7.346,baseline
1383.000,335.600,75.390,15.340,1239.000,273.300,58.730,11.540,228.800,62.950,14.670,4.496,500.000,104.200,23.260,7.379,baseline
1385.000,336.200,75.310,15.270,1237.000,273.100,58.620,11.490,228.700,63.430,14.650,4.477,497.700,103.500,23.020,7.282,baseline
1377.000,331.500,74.560,15.160,1236.000,272.000,58.570,11.490,225.400,63.010,14.570,4.474,492.100,102.400,22.800,7.165,baseline
1373.000,331.600,74.220,15.130,1234.000,271.900,58.390,11.470,227.000,62.410,14.530,4.430,490.800,102.200,22.800,7.184,baseline
1370.000,332.400,74.220,15.060,1232.000,271.800,58.480,11.450,225.000,62.880,14.480,4.441,490.100,102.000,22.630,7.127,baseline
1370.000,331.300,73.840,15.080,1232.000,271.500,58.240,11.450,229.500,62.250,14.440,4.434,489.300,102.100,22.620,7.142,baseline
1368.000,330.400,74.000,15.030,1226.000,271.200,58.230,11.460,224.900,62.600,14.480,4.441,489.900,101.900,22.610,7.131,baseline
1368.000,331.400,74.120,15.030,1227.000,271.000,58.460,11.460,228.000,62.310,14.450,4.454,490.800,101.900,22.570,7.153,baseline
1367.000,332.500,74.130,15.060,1233.000,271.400,58.340,11.480,224.200,62.660,14.490,4.444,492.000,102.000,22.720,7.171,baseline
1368.000,331.800,74.260,15.100,1226.000,271.000,58.300,11.450,227.500,62.890,14.430,4.449,493.000,102.600,22.740,7.203,baseline
1369.000,330.600,74.620,15.050,1229.000,270.600,58.190,11.450,225.600,62.670,14.520,4.462,493.900,102.800,22.760,7.233,baseline
1370.000,332.200,74.470,15.150,1233.000,271.800,58.330,11.480,225.700,62.850,14.530,4.493,495.200,103.200,22.960,7.270,baseline
1372.000,332.100,74.250,15.110,1229.000,271.000,58.280,11.410,229.600,62.960,14.520,4.491,493.200,102.500,22.640,7.117,baseline
1363.000,328.900,73.750,15.010,1226.000,270.000,58.060,11.370,226.700,62.400,14.480,4.436,487.500,101.100,22.440,7.076,baseline
1359.000,327.000,73.340,14.890,1226.000,269.600,57.960,11.360,226.600,62.090,14.450,4.444,486.800,100.800,22.330,7.069,baseline
1357.000,328.300,73.450,14.920,1226.000,269.500,57.900,11.350,225.200,62.420,14.400,4.436,485.800,101.000,22.270,7.062,baseline
1354.000,327.800,73.390,14.830,1220.000,269.300,57.900,11.380,223.800,62.050,14.340,4.428,485.000,100.500,22.160,7.049,baseline
1354.000,327.200,73.220,14.830,1224.000,269.600,57.740,11.360,223.800,62.440,14.340,4.431,485.100,100.400,22.330,7.053,baseline
1353.000,327.200,73.240,14.850,1223.000,269.000,57.750,11.340,225.900,62.130,14.390,4.438,484.800,100.900,22.390,7.083,baseline
1352.000,326.400,73.390,14.850,1223.000,268.500,57.850,11.370,225.900,62.120,14.380,4.437,487.200,101.300,22.460,7.132,baseline
1352.000,326.900,73.420,14.890,1222.000,268.600,57.840,11.360,226.300,62.200,14.360,4.447,488.000,101.100,22.380,7.127,baseline
1354.000,327.400,73.400,14.910,1219.000,268.800,57.780,11.390,226.400,62.430,14.440,4.453,488.400,101.500,22.470,7.151,baseline
1355.000,327.300,73.760,14.960,1220.000,268.800,57.870,11.350,228.000,62.370,14.400,4.479,490.200,101.800,22.480,7.177,baseline
1354.000,326.000,73.380,14.840,1216.000,268.200,57.580,11.310,229.500,62.500,14.470,4.447,486.400,100.800,22.130,7.033,baseline
1346.000,325.500,72.780,14.760,1214.000,267.800,57.630,11.300,227.200,62.190,14.300,4.428,484.500,100.200,22.050,7.021,baseline
1345.000,325.200,72.670,14.740,1215.000,266.900,57.740,11.270,224.600,62.060,14.300,4.421,485.100,100.400,22.080,7.037,baseline
1345.000,324.700,72.810,14.820,1219.000,267.100,57.590,11.280,224.600,62.050,14.380,4.423,482.500,100.200,22.030,7.029,baseline
1343.000,323.800,72.560,14.690,1215.000,267.500,57.570,11.270,225.200,62.030,14.270,4.424,484.000,100.300,22.060,7.007,baseline
1343.000,324.300,72.360,14.750,1215.000,267.600,57.410,11.280,225.400,61.840,14.280,4.407,483.400,100.900,22.170,7.022,baseline
1343.000,324.500,72.740,14.750,1217.000,267.700,57.590,11.280,222.900,62.450,14.360,4.431,484.900,100.700,22.220,7.040,baseline
1345.000,326.300,72.880,14.800,1219.000,267.200,57.490,11.330,224.100,61.930,14.380,4.442,487.500,101.400,22.220,7.090,baseline
1346.000,326.200,72.820,14.850,1216.000,268.000,57.660,11.320,227.400,62.140,14.350,4.461,488.200,101.700,22.310,7.102,baseline
1348.000,327.000,73.170,14.880,1217.000,268.700,57.570,11.300,228.600,62.500,14.330,4.440,488.100,101.300,22.240,7.092,baseline
1344.000,325.100,72.690,14.750,1214.000,267.200,57.290,11.280,224.000,62.400,14.360,4.405,483.500,100.300,22.000,6.969,baseline
1341.000,322.400,72.610,14.740,1215.000,266.800,57.380,11.290,225.100,61.990,14.290,4.400,484.800,100.300,22.060,6.975,baseline
1339.000,323.600,72.180,14.720,1212.000,266.700,57.370,11.230,226.400,61.770,14.260,4.397,483.200,99.840,21.850,6.945,baseline
1337.000,322.700,72.330,14.660,1210.000,266.900,57.360,11.240,224.500,62.030,14.210,4.397,482.400,100.100,21.790,6.953,baseline
1336.000,321.700,71.970,14.720,1211.000,266.500,57.240,11.220,228.100,62.030,14.210,4.385,483.300,100.100,21.930,6.950,baseline
1336.000,322.800,72.250,14.630,1213.000,266.900,57.340,11.230,224.500,62.380,14.210,4.399,486.000,100.500,22.030,6.986,baseline
1338.000,323.900,72.380,14.720,1212.000,267.300,57.370,11.250,224.100,62.200,14.260,4.395,486.000,100.800,22.110,7.025,baseline
1341.000,325.100,72.710,14.790,1213.000,267.300,57.500,11.290,226.200,62.350,14.250,4.428,488.600,100.900,22.170,7.045,baseline
1343.000,325.200,73.180,14.830,1216.000,267.300,57.450,11.300,227.700,62.310,14.300,4.433,490.100,101.700,22.240,7.081,baseline
1345.000,326.300,72.970,14.870,1216.000,267.500,57.610,11.280,226.000,62.290,14.350,4.444,490.600,101.700,22.260,7.085,baseline
1344.000,323.900,72.520,14.720,1216.000,267.600,57.350,11.260,228.600,62.190,14.270,4.406,484.300,100.600,21.850,6.895,baseline
1340.000,323.300,72.290,14.700,1216.000,266.600,57.390,11.250,227.300,61.700,14.130,4.395,482.400,99.980,21.710,6.902,baseline
1338.000,322.000,72.550,14.670,1212.000,267.400,57.280,11.280,225.900,62.090,14.140,4.372,483.800,99.940,21.850,6.904,baseline
1340.000,322.600,72.430,14.720,1214.000,267.300,57.320,11.260,224.900,61.720,14.090,4.377,483.500,100.000,21.740,6.863,baseline
1340.000,322.900,72.440,14.700,1217.000,268.200,57.410,11.290,226.500,61.980,14.130,4.382,483.800,99.600,21.910,6.906,baseline
1342.000,324.900,72.680,14.740,1217.000,268.400,57.610,11.270,226.300,62.010,14.090,4.370,484.500,100.100,21.820,6.920,baseline
1345.000,326.200,73.000,14.810,1222.000,268.700,57.500,11.280,226.100,62.570,14.150,4.392,486.200,100.800,21.920,6.957,baseline
1346.000,324.700,73.050,14.820,1218.000,267.800,57.670,11.300,227.200,62.070,14.190,4.380,488.100,101.100,22.020,6.983,baseline
1348.000,326.100,72.950,14.860,1223.000,268.600,57.930,11.320,225.300,62.710,14.220,4.405,490.000,101.000,21.980,6.971,baseline
1350.000,326.600,73.510,14.900,1226.000,268.900,57.900,11.350,225.000,62.230,14.260,4.421,490.400,101.700,22.150,7.014,baseline
1353.000,326.800,73.860,14.970,1224.000,269.200,57.970,11.340,228.100,63.120,14.220,4.427,493.300,101.700,22.060,6.965,baseline
1349.000,326.200,72.970,14.820,1221.000,268.400,57.760,11.290,226.200,62.480,14.140,4.389,486.500,100.400,21.830,6.891,baseline
1347.000,324.900,73.020,14.800,1221.000,268.900,57.870,11.340,224.100,61.910,14.140,4.380,484.100,100.300,21.750,6.866,baseline
1346.000,324.000,73.210,14.830,1221.000,269.300,58.010,11.330,224.900,61.910,14.140,4.385,486.600,100.400,21.750,6.854,baseline
1347.000,325.200,72.790,14.830,1221.000,269.200,57.910,11.330,225.800,62.220,14.080,4.384,483.800,100.000,21.740,6.843,baseline
1349.000,325.400,73.180,14.870,1222.000,269.600,57.890,11.330,227.300,62.180,14.160,4.388,485.100,100.700,21.810,6.878,baseline
1350.000,326.000,73.100,14.900,1225.000,269.500,58.070,11.350,226.400,62.300,14.160,4.401,486.500,101.100,21.840,6.926,baseline
1353.000,326.700,73.110,14.910,1226.000,269.700,58.100,11.380,225.800,62.230,14.190,4.410,487.900,101.100,21.930,6.951,baseline
1354.000,326.900,73.340,14.960,1227.000,269.900,58.070,11.370,227.300,62.410,14.180,4.403,489.200,101.200,21.990,6.948,baseline
1357.000,328.500,73.950,15.030,1227.000,271.400,58.180,11.430,225.600,62.170,14.150,4.424,490.000,101.700,22.010,6.996,baseline
1354.000,326.300,73.400,14.860,1229.000,270.000,57.940,11.370,230.000,62.390,14.130,4.397,488.100,100.900,21.700,6.895,easy
1356.000,326.700,73.580,14.930,1232.000,270.600,58.120,11.400,224.500,62.170,14.200,4.417,485.800,100.700,21.850,6.884,easy
1355.000,328.900,73.530,14.960,1228.000,270.400,58.070,11.380,226.300,62.590,14.190,4.409,487.700,100.900,21.870,6.918,easy
1356.000,328.400,73.630,15.010,1231.000,270.900,58.310,11.400,226.800,62.690,14.160,4.433,489.700,101.100,21.880,6.935,easy
1358.000,328.600,73.750,15.000,1229.000,270.600,58.280,11.410,227.400,62.830,14.230,4.430,490.200,101.400,21.990,6.960,easy
1360.000,329.600,73.900,15.080,1232.000,271.200,58.370,11.410,227.800,62.660,14.240,4.422,494.300,101.800,22.110,7.026,easy
1362.000,329.200,73.940,15.100,1231.000,272.000,58.130,11.440,227.000,62.640,14.260,4.435,492.300,102.100,22.300,7.054,easy
1364.000,330.400,74.150,15.140,1231.000,272.800,58.570,11.500,229.100,63.190,14.240,4.454,496.400,102.800,22.110,7.056,easy
1365.000,329.900,74.170,15.110,1234.000,271.500,58.360,11.430,230.500,62.630,14.280,4.441,491.900,101.400,21.970,6.944,easy
1359.000,328.700,73.870,15.020,1233.000,271.200,58.230,11.380,226.800,62.530,14.170,4.433,488.200,101.000,21.820,6.874,easy
1358.000,328.200,73.490,14.960,1228.000,271.400,58.330,11.420,227.200,62.440,14.180,4.415,488.400,100.800,21.700,6.905,easy
1357.000,327.200,73.510,15.000,1229.000,271.700,58.240,11.460,228.100,62.180,14.290,4.418,488.900,101.000,21.880,6.931,easy
1357.000,327.500,73.730,15.000,1231.000,271.200,58.240,11.460,227.500,62.340,14.170,4.404,488.000,100.900,21.850,6.926,easy
1357.000,327.800,73.740,15.000,1230.000,271.900,58.500,11.470,226.200,62.270,14.200,4.425,488.900,101.400,21.930,6.969,easy
1358.000,327.200,73.740,15.040,1232.000,271.400,58.440,11.470,225.200,62.250,14.320,4.471,488.900,101.400,22.130,7.033,easy
1360.000,328.700,73.650,15.070,1233.000,271.000,58.520,11.510,227.600,62.630,14.320,4.463,490.200,102.100,22.370,7.045,easy
1361.000,328.500,74.220,15.110,1233.000,271.600,58.480,11.490,228.100,63.250,14.430,4.503,492.000,102.100,22.490,7.103,easy
1364.000,329.100,74.280,15.160,1232.000,271.700,58.530,11.500,229.500,63.180,14.490,4.494,493.100,102.800,22.530,7.131,easy
1365.000,331.200,74.250,15.180,1235.000,272.100,58.760,11.540,228.300,62.830,14.660,4.523,495.200,102.900,22.750,7.211,easy
1368.000,332.600,74.670,15.260,1234.000,272.500,58.880,11.540,229.200,63.210,14.630,4.531,497.500,103.700,22.840,7.242,easy
1368.000,330.800,74.430,15.090,1234.000,271.900,58.520,11.540,232.200,63.200,14.650,4.527,492.100,102.600,22.550,7.108,easy
1361.000,328.200,73.720,15.050,1235.000,272.500,58.600,11.540,226.400,62.900,14.590,4.496,489.200,101.800,22.490,7.090,easy
1359.000,327.700,73.900,15.000,1234.000,271.400,58.560,11.530,228.500,62.780,14.500,4.505,488.800,101.400,22.380,7.091,easy
1360.000,327.600,74.110,15.040,1235.000,271.500,58.540,11.500,227.000,62.850,14.500,4.482,489.300,101.800,22.410,7.084,easy
1359.000,328.300,73.750,15.010,1233.000,271.900,58.620,11.500,228.600,62.470,14.550,4.507,489.200,101.600,22.460,7.067,easy
1360.000,327.700,73.750,15.040,1236.000,272.300,58.640,11.540,228.300,62.900,14.630,4.510,489.900,101.900,22.490,7.096,easy
1361.000,329.000,73.950,15.080,1232.000,271.800,58.660,11.530,230.600,63.360,14.580,4.512,489.400,102.000,22.560,7.138,easy
1363.000,329.700,73.930,15.090,1235.000,272.200,58.690,11.550,229.200,63.180,14.640,4.530,492.200,102.500,22.600,7.177,easy
1365.000,329.700,74.190,15.170,1239.000,272.600,58.820,11.550,230.800,63.190,14.660,4.532,492.300,103.400,22.800,7.199,easy
1366.000,329.900,74.210,15.150,1235.000,271.900,58.970,11.560,230.200,63.410,14.680,4.526,494.400,103.000,22.810,7.230,easy
1367.000,331.900,74.350,15.170,1232.000,272.600,58.910,11.590,228.800,63.110,14.740,4.533,497.500,103.400,22.920,7.286,easy
1370.000,332.900,75.000,15.250,1239.000,273.300,58.800,11.590,232.100,63.450,14.720,4.541,496.900,104.000,22.990,7.292,easy
1371.000,331.600,74.680,15.180,1236.000,272.200,58.740,11.530,231.100,63.320,14.660,4.529,494.500,102.700,22.740,7.147,easy
1363.000,328.800,74.090,15.120,1238.000,272.600,58.870,11.560,227.900,63.280,14.600,4.514,491.400,102.000,22.480,7.167,easy
1363.000,328.000,73.940,15.090,1236.000,272.500,58.720,11.570,229.200,62.940,14.670,4.512,488.800,102.200,22.610,7.146,easy
1363.000,328.400,74.100,15.080,1236.000,272.300,58.620,11.550,227.000,63.150,14.530,4.500,488.500,102.000,22.530,7.110,easy
1362.000,328.300,74.110,15.080,1235.000,271.300,58.630,11.560,232.500,62.630,14.530,4.518,488.400,101.900,22.530,7.126,easy
1363.000,328.000,74.260,15.140,1237.000,272.100,58.810,11.560,228.200,62.680,14.580,4.517,490.600,102.500,22.530,7.174,easy
1363.000,330.300,73.960,15.160,1234.000,272.500,58.870,11.570,227.500,62.810,14.550,4.502,488.900,102.600,22.660,7.191,easy
1365.000,331.300,74.500,15.200,1236.000,272.800,58.790,11.580,228.500,63.300,14.620,4.516,492.200,103.100,22.780,7.200,easy
1366.000,331.400,74.360,15.230,1236.000,272.800,58.930,11.580,227.400,63.260,14.640,4.516,493.900,103.000,22.770,7.238,easy
1368.000,333.400,74.710,15.240,1235.000,273.000,58.830,11.590,228.900,63.360,14.640,4.507,494.900,102.800,22.930,7.277,easy
1370.000,332.400,74.630,15.260,1236.000,273.500,58.910,11.600,230.300,63.450,14.690,4.523,497.000,103.800,23.100,7.325,easy
1371.000,332.700,74.740,15.180,1236.000,272.300,58.630,11.550,229.300,63.990,14.590,4.527,494.300,102.800,22.810,7.207,easy
1362.000,329.400,74.360,15.100,1234.000,271.600,58.650,11.520,226.600,63.010,14.510,4.489,489.100,101.700,22.610,7.129,easy
1360.000,328.000,73.900,15.090,1234.000,271.400,58.710,11.560,227.300,63.110,14.590,4.496,489.900,102.400,22.470,7.165,easy
1362.000,329.400,74.150,15.100,1231.000,271.900,58.720,11.550,231.300,63.340,14.530,4.472,490.700,102.000,22.600,7.179,easy
1361.000,328.800,74.230,15.100,1236.000,272.200,58.730,11.560,228.100,63.030,14.560,4.470,490.300,102.200,22.600,7.163,easy
1361.000,329.900,74.250,15.150,1234.000,272.500,58.860,11.560,227.700,62.870,14.470,4.494,492.100,101.900,22.620,7.214,easy
1362.000,329.100,74.500,15.180,1236.000,272.300,58.880,11.620,228.000,62.720,14.520,4.487,491.100,102.700,22.700,7.199,easy
1365.000,330.400,74.490,15.210,1235.000,272.900,58.810,11.640,228.100,62.950,14.550,4.495,493.000,103.100,22.850,7.253,easy
1367.000,331.500,74.450,15.250,1239.000,272.800,58.890,11.640,226.800,63.150,14.510,4.497,495.000,103.000,22.880,7.268,easy
1368.000,331.600,74.890,15.330,1239.000,272.900,59.000,11.620,228.200,63.190,14.520,4.513,497.200,103.400,22.900,7.300,easy
1370.000,332.500,74.810,15.340,1236.000,273.300,59.140,11.620,232.100,63.330,14.600,4.517,497.700,103.600,23.080,7.301,easy
1369.000,331.100,74.630,15.190,1236.000,272.700,58.810,11.580,229.100,63.310,14.560,4.502,492.100,102.400,22.720,7.146,easy
1364.000,328.700,74.490,15.120,1240.000,272.500,58.950,11.570,228.100,62.710,14.470,4.478,489.500,102.000,22.510,7.152,easy
1364.000,328.200,74.320,15.110,1238.000,272.500,58.750,11.590,228.700,62.810,14.510,4.453,490.700,102.000,22.540,7.164,easy
1364.000,329.600,74.410,15.210,1236.000,272.900,58.810,11.600,231.100,62.320,14.490,4.465,490.900,102.000,22.470,7.148,easy
1365.000,328.900,74.230,15.140,1236.000,272.600,58.670,11.600,226.400,62.460,14.410,4.470,490.600,101.800,22.570,7.151,easy
1366.000,328.800,74.380,15.180,1236.000,272.600,58.970,11.610,228.900,62.380,14.540,4.453,491.100,102.100,22.600,7.172,easy
1368.000,330.800,74.400,15.210,1236.000,272.900,58.950,11.620,227.900,62.570,14.430,4.468,493.100,102.500,22.730,7.232,easy
1370.000,332.800,74.730,15.220,1240.000,273.700,59.210,11.660,231.300,62.970,14.600,4.467,493.300,103.400,22.790,7.259,easy
1373.000,332.600,74.960,15.330,1243.000,274.000,59.400,11.660,227.200,63.230,14.630,4.493,495.300,103.000,22.860,7.295,easy
1376.000,333.600,75.580,15.380,1243.000,274.200,59.250,11.680,232.200,62.990,14.600,4.483,497.500,103.500,22.970,7.299,easy
1378.000,335.400,75.430,15.410,1243.000,273.800,59.190,11.660,227.700,63.370,14.610,4.508,497.300,103.500,22.990,7.249,easy
1373.000,331.800,74.670,15.260,1241.000,273.000,59.180,11.630,229.800,62.990,14.600,4.447,491.900,102.000,22.650,7.159,easy
1371.000,332.300,74.720,15.220,1242.000,273.300,59.030,11.620,228.000,62.910,14.570,4.459,491.100,102.000,22.660,7.162,easy
1371.000,331.500,74.690,15.240,1240.000,273.200,58.850,11.610,224.600,62.820,14.490,4.456,491.900,102.300,22.610,7.184,easy
1370.000,330.900,74.560,15.210,1238.000,273.000,58.860,11.610,226.200,62.430,14.400,4.454,490.400,102.100,22.740,7.178,easy
1370.000,331.900,74.860,15.240,1236.000,273.400,59.010,11.630,227.400,62.970,14.520,4.465,492.100,102.600,22.740,7.174,easy
1370.000,331.900,74.970,15.240,1236.000,273.300,59.040,11.670,229.400,62.900,14.500,4.480,491.800,102.900,22.830,7.221,easy
1372.000,333.600,74.900,15.300,1238.000,272.400,59.030,11.620,231.200,62.930,14.600,4.493,495.300,103.000,23.040,7.324,easy
1374.000,333.400,75.190,15.350,1236.000,273.500,58.930,11.620,231.400,62.650,14.580,4.480,496.100,103.400,23.000,7.321,easy
1374.000,334.000,74.990,15.370,1238.000,273.300,58.990,11.650,227.700,63.380,14.590,4.485,497.200,104.100,22.980,7.291,easy
1374.000,333.600,75.150,15.200,1235.000,272.400,59.040,11.590,229.200,63.370,14.660,4.454,493.700,102.700,22.770,7.215,easy
1369.000,332.700,74.750,15.240,1237.000,272.700,59.150,11.610,230.500,62.450,14.450,4.455,492.000,102.300,22.740,7.180,easy
1370.000,331.400,74.940,15.240,1240.000,273.800,58.790,11.620,228.800,63.000,14.430,4.461,492.300,102.300,22.710,7.193,easy
1372.000,331.100,74.860,15.260,1238.000,273.300,58.950,11.600,227.600,62.790,14.520,4.487,493.800,102.300,22.710,7.159,easy
1371.000,332.100,74.990,15.230,1240.000,273.200,59.000,11.640,229.300,62.980,14.590,4.467,493.300,102.600,22.730,7.171,easy
1374.000,332.900,75.140,15.290,1238.000,274.000,59.120,11.670,228.000,63.020,14.510,4.475,492.900,102.900,22.740,7.219,easy
1376.000,333.600,75.320,15.340,1237.000,274.300,59.180,11.650,231.700,62.930,14.540,4.483,494.700,103.100,23.020,7.284,easy
1377.000,333.000,75.380,15.390,1241.000,274.400,59.200,11.680,231.500,62.990,14.600,4.470,495.800,103.500,23.050,7.303,easy
1381.000,333.600,75.880,15.480,1244.000,275.200,59.380,11.700,227.300,63.380,14.630,4.492,498.600,104.100,23.040,7.310,easy
1385.000,336.000,75.810,15.510,1245.000,275.100,59.370,11.690,228.100,63.070,14.590,4.516,499.200,104.100,23.030,7.229,easy
1381.000,335.100,75.360,15.340,1240.000,274.300,59.290,11.670,227.100,62.670,14.540,4.443,493.200,102.500,22.690,7.184,easy
1378.000,332.800,74.900,15.320,1245.000,273.900,59.310,11.660,227.500,62.870,14.540,4.448,492.200,102.100,22.570,7.134,easy
1376.000,333.300,74.920,15.300,1242.000,274.700,59.150,11.680,227.000,62.700,14.440,4.452,490.100,102.000,22.560,7.133,easy
1377.000,332.800,75.140,15.260,1242.000,274.200,59.150,11.650,227.100,62.610,14.420,4.441,491.000,101.800,22.650,7.103,easy
1376.000,332.500,74.910,15.250,1241.000,274.100,59.150,11.620,229.400,62.400,14.510,4.438,492.200,102.300,22.530,7.138,easy
1377.000,334.400,74.790,15.300,1242.000,274.000,59.260,11.630,223.500,62.700,14.430,4.430,492.600,102.400,22.670,7.164,easy
1379.000,332.300,74.960,15.310,1241.000,273.900,59.150,11.670,231.600,62.490,14.500,4.449,494.700,102.500,22.880,7.207,easy
1381.000,334.800,75.150,15.370,1242.000,273.900,59.170,11.650,228.400,62.610,14.570,4.466,493.900,103.100,22.850,7.229,easy
1381.000,332.900,75.340,15.350,1240.000,274.300,59.160,11.660,227.700,62.970,14.580,4.470,494.400,103.500,23.030,7.251,easy
1383.000,334.800,75.420,15.400,1243.000,274.100,58.980,11.660,229.800,62.720,14.470,4.491,495.900,103.700,23.110,7.241,easy
1378.000,332.100,74.810,15.240,1238.000,273.600,59.110,11.570,229.200,63.210,14.470,4.440,491.200,102.400,22.450,7.119,easy
1376.000,332.000,74.910,15.210,1237.000,273.100,59.040,11.600,229.000,62.230,14.480,4.434,490.800,101.500,22.430,7.111,easy
1373.000,331.500,74.830,15.170,1238.000,272.600,58.860,11.600,225.300,62.620,14.370,4.438,491.000,101.800,22.590,7.110,easy
1374.000,331.000,74.710,15.150,1241.000,272.900,58.880,11.610,226.600,62.400,14.390,4.419,489.200,102.000,22.540,7.092,easy
1373.000,331.200,74.780,15.240,1236.000,272.800,58.940,11.590,227.800,62.460,14.430,4.413,489.600,101.800,22.570,7.090,easy
1374.000,331.300,74.810,15.200,1238.000,273.400,58.770,11.610,226.100,62.500,14.460,4.449,490.500,101.900,22.610,7.140,easy
1376.000,333.300,75.220,15.200,1240.000,273.100,58.800,11.620,227.700,62.410,14.420,4.449,494.000,102.800,22.600,7.207,easy
1377.000,333.100,75.160,15.240,1238.000,272.700,58.990,11.650,226.500,62.700,14.440,4.445,494.800,102.900,22.730,7.209,easy
1378.000,333.800,75.170,15.270,1244.000,273.600,58.970,11.630,227.700,62.490,14.530,4.479,494.700,103.100,22.850,7.267,easy
1380.000,333.500,75.360,15.310,1240.000,274.300,58.900,11.640,229.100,62.660,14.570,4.494,495.500,103.400,22.950,7.271,easy
1381.000,334.900,75.100,15.290,1239.000,273.200,59.070,11.600,228.800,63.020,14.610,4.468,493.800,102.600,22.660,7.166,easy
1374.000,331.500,74.770,15.240,1237.000,273.300,58.920,11.610,225.200,62.660,14.460,4.448,488.600,101.900,22.530,7.116,easy
1376.000,332.700,74.650,15.210,1242.000,273.900,59.050,11.610,226.300,62.150,14.440,4.434,490.100,102.200,22.640,7.130,easy
1377.000,332.300,74.780,15.220,1241.000,273.400,58.980,11.590,229.100,62.450,14.400,4.440,489.300,102.000,22.380,7.111,easy
1376.000,333.000,74.600,15.240,1238.000,273.400,58.900,11.620,226.500,62.320,14.420,4.445,489.400,101.900,22.540,7.081,easy
1376.000,334.200,75.110,15.230,1240.000,273.000,59.050,11.590,230.600,62.710,14.440,4.442,490.800,101.900,22.640,7.152,easy
1377.000,333.300,75.100,15.260,1242.000,273.400,58.920,11.600,228.000,62.210,14.440,4.460,492.800,102.400,22.700,7.201,easy
1378.000,333.000,74.900,15.210,1239.000,273.800,58.890,11.610,226.700,62.540,14.470,4.451,493.400,102.300,22.670,7.192,easy
1377.000,332.600,75.250,15.250,1236.000,273.300,58.960,11.580,229.000,62.620,14.540,4.472,494.000,102.800,22.910,7.271,easy
1379.000,333.600,75.240,15.360,1239.000,273.600,59.020,11.630,225.700,62.510,14.530,4.495,494.500,103.100,22.840,7.292,easy
1380.000,334.100,75.070,15.230,1237.000,272.800,58.770,11.540,227.100,62.830,14.480,4.457,492.000,102.200,22.470,7.134,easy
1371.000,331.700,74.650,15.130,1234.000,272.000,58.700,11.560,227.800,61.850,14.460,4.403,489.300,101.800,22.510,7.108,easy
1370.000,329.900,74.560,15.090,1237.000,271.700,58.760,11.490,226.700,62.140,14.330,4.419,487.900,101.300,22.310,7.060,easy
1370.000,331.600,74.320,15.140,1234.000,271.600,58.660,11.530,226.000,62.080,14.280,4.427,487.500,101.300,22.380,7.087,easy
1369.000,331.200,74.410,15.120,1232.000,271.900,58.560,11.510,223.800,62.020,14.320,4.421,486.200,101.100,22.330,7.065,easy
1369.000,331.200,74.610,15.060,1233.000,271.600,58.620,11.540,224.900,61.910,14.340,4.400,488.900,101.500,22.390,7.051,easy
1370.000,330.800,74.570,15.140,1232.000,271.800,58.640,11.530,226.800,62.010,14.270,4.445,488.900,101.800,22.450,7.145,easy
1372.000,331.600,74.620,15.180,1238.000,271.700,58.700,11.540,224.100,62.580,14.310,4.427,489.200,102.200,22.520,7.143,easy
1372.000,331.500,74.920,15.150,1233.000,272.700,58.620,11.550,224.600,62.330,14.410,4.438,491.500,102.500,22.690,7.201,easy
1373.000,333.900,74.970,15.240,1235.000,272.500,58.630,11.540,228.600,62.620,14.370,4.433,491.200,102.400,22.700,7.215,easy
1376.000,333.900,75.240,15.240,1236.000,272.800,58.870,11.530,228.300,62.520,14.380,4.456,492.700,102.700,22.760,7.241,easy
1373.000,333.000,74.750,15.180,1234.000,272.400,58.590,11.530,224.200,62.720,14.290,4.403,488.000,101.400,22.330,7.096,easy
1372.000,331.000,74.710,15.150,1236.000,272.500,58.860,11.540,224.800,62.270,14.340,4.407,486.400,101.200,22.300,7.077,easy
1373.000,332.400,74.760,15.140,1236.000,272.500,58.910,11.550,225.100,61.660,14.230,4.409,486.000,101.300,22.170,7.042,easy
1374.000,332.400,74.770,15.210,1237.000,272.400,58.920,11.570,223.900,61.880,14.250,4.382,486.200,101.300,22.330,7.068,easy
1373.000,332.200,74.680,15.250,1236.000,272.300,58.760,11.560,227.100,62.040,14.270,4.403,487.600,101.000,22.290,7.047,easy
1373.000,332.400,74.830,15.250,1235.000,272.600,59.060,11.560,224.400,62.080,14.230,4.404,486.900,101.400,22.260,7.079,easy
1373.000,333.800,74.780,15.280,1240.000,271.700,58.680,11.530,227.000,62.000,14.260,4.413,486.500,101.700,22.420,7.120,easy
1374.000,332.300,75.140,15.260,1235.000,272.900,58.780,11.590,224.900,61.710,14.310,4.413,488.000,101.800,22.380,7.151,easy
1376.000,333.800,75.160,15.310,1235.000,272.400,58.910,11.560,227.800,61.970,14.300,4.442,489.200,102.200,22.570,7.178,easy
1377.000,335.300,75.580,15.260,1236.000,272.200,58.980,11.580,227.100,62.040,14.310,4.438,492.700,103.000,22.530,7.210,easy
1376.000,334.500,75.250,15.290,1234.000,271.500,58.500,11.530,224.900,62.250,14.270,4.407,488.400,101.600,22.330,7.119,easy
1372.000,331.200,74.910,15.160,1234.000,271.800,58.460,11.520,224.700,61.880,14.180,4.396,485.100,100.900,22.310,7.097,easy
1371.000,331.700,74.770,15.210,1231.000,271.900,58.600,11.510,221.800,61.990,14.220,4.381,485.800,101.500,22.410,7.159,easy
1372.000,333.100,75.140,15.190,1234.000,270.900,58.680,11.490,225.600,61.930,14.210,4.389,488.000,101.400,22.270,7.119,easy
1372.000,331.700,74.850,15.210,1234.000,271.600,58.680,11.500,226.800,61.920,14.150,4.390,486.700,101.500,22.340,7.132,easy
1372.000,332.800,75.150,15.280,1236.000,271.700,58.600,11.510,226.200,61.700,14.240,4.393,489.300,101.500,22.410,7.154,easy
1374.000,333.300,75.530,15.280,1230.000,272.200,58.720,11.500,220.400,61.860,14.250,4.406,490.000,102.300,22.580,7.167,easy
1376.000,334.700,75.250,15.340,1232.000,272.100,58.750,11.550,224.800,62.100,14.320,4.421,489.800,102.300,22.580,7.222,easy
1377.000,334.600,75.300,15.370,1234.000,272.100,58.760,11.530,224.400,61.960,14.270,4.448,492.700,102.900,22.600,7.248,easy
1379.000,335.600,75.600,15.380,1235.000,272.200,58.750,11.540,227.300,62.200,14.270,4.437,494.200,102.400,22.730,7.249,easy
1380.000,334.900,75.530,15.310,1230.000,272.100,58.400,11.500,229.000,62.060,14.300,4.411,490.400,101.900,22.440,7.179,easy
1372.000,331.400,74.940,15.210,1234.000,271.100,58.430,11.500,226.200,61.590,14.170,4.390,486.600,101.400,22.250,7.097,easy
1372.000,332.200,74.950,15.210,1233.000,271.600,58.520,11.470,225.200,61.450,14.180,4.356,483.700,101.300,22.300,7.098,easy
1371.000,332.000,75.070,15.180,1233.000,272.100,58.500,11.470,224.500,61.570,14.100,4.376,484.800,101.000,22.300,7.118,easy
1371.000,333.000,74.650,15.160,1231.000,270.600,58.460,11.450,224.600,61.480,14.130,4.372,486.000,101.200,22.290,7.083,easy
1370.000,331.300,74.810,15.190,1231.000,271.500,58.630,11.440,224.200,61.550,14.270,4.376,486.100,101.100,22.290,7.138,easy
1372.000,332.700,74.910,15.250,1232.000,270.900,58.600,11.480,223.600,61.370,14.140,4.386,486.400,101.400,22.350,7.140,easy
1372.000,333.800,74.850,15.260,1233.000,271.700,58.590,11.490,226.100,61.610,14.180,4.402,488.400,101.700,22.440,7.198,easy
1374.000,333.000,75.180,15.290,1233.000,271.500,58.580,11.480,223.500,61.630,14.180,4.389,489.500,102.300,22.540,7.199,easy
1375.000,334.500,75.250,15.310,1233.000,271.700,58.590,11.480,228.600,61.970,14.190,4.397,490.500,102.200,22.660,7.240,easy
1376.000,333.700,75.370,15.310,1236.000,271.300,58.400,11.460,226.100,61.760,14.250,4.403,491.700,102.600,22.560,7.199,easy
1372.000,332.300,74.740,15.140,1230.000,270.400,58.340,11.440,224.300,61.490,14.100,4.361,488.600,100.900,22.210,7.084,easy
1369.000,331.900,74.800,15.110,1230.000,270.200,58.290,11.430,225.100,61.300,14.040,4.334,486.000,101.100,22.260,7.097,easy
1367.000,330.900,74.950,15.120,1229.000,271.200,58.350,11.420,221.900,61.590,14.090,4.355,484.200,101.300,22.200,7.083,easy
1368.000,330.300,74.600,15.140,1233.000,270.600,58.340,11.420,224.500,61.280,13.990,4.330,486.700,100.900,22.290,7.056,easy
1367.000,332.400,74.500,15.150,1228.000,270.700,58.260,11.450,223.300,61.290,14.040,4.330,485.100,101.100,22.290,7.081,easy
1368.000,332.000,74.760,15.150,1228.000,270.600,58.390,11.440,224.900,61.260,14.030,4.345,485.500,101.200,22.290,7.096,easy
1370.000,332.200,74.980,15.250,1229.000,271.600,58.320,11.470,223.300,61.390,14.070,4.363,487.700,101.400,22.340,7.156,easy
1372.000,333.500,74.740,15.270,1232.000,271.600,58.570,11.450,225.500,61.510,14.170,4.381,488.500,102.100,22.470,7.172,easy
1374.000,332.700,75.470,15.280,1233.000,271.800,58.650,11.480,223.600,62.000,14.060,4.352,490.400,102.300,22.590,7.237,easy
1376.000,333.400,75.240,15.320,1239.000,271.900,58.630,11.500,223.000,61.750,14.180,4.382,494.100,102.500,22.590,7.250,easy
1378.000,334.600,75.340,15.290,1234.000,270.800,58.370,11.470,222.500,61.820,14.170,4.362,491.300,102.000,22.230,7.158,easy
1372.000,332.500,74.980,15.200,1231.000,270.600,58.230,11.450,223.200,61.630,14.060,4.340,487.700,101.400,22.250,7.082,easy
1372.000,332.800,75.030,15.140,1228.000,270.400,58.530,11.470,223.800,61.320,14.080,4.350,486.800,101.300,22.170,7.113,easy
1374.000,332.000,75.310,15.240,1233.000,272.000,58.490,11.490,225.800,61.490,14.070,4.354,486.600,101.300,22.320,7.110,easy
1374.000,332.500,75.190,15.280,1232.000,271.800,58.480,11.500,224.200,61.130,14.060,4.337,487.500,101.400,22.300,7.108,easy
1375.000,332.900,74.810,15.230,1235.000,271.600,58.430,11.470,223.500,61.200,14.090,4.349,487.800,101.300,22.390,7.127,easy
1376.000,332.400,75.260,15.290,1233.000,271.700,58.610,11.440,224.500,61.090,14.010,4.357,490.000,102.000,22.370,7.177,easy
1378.000,334.900,75.400,15.350,1237.000,272.200,58.680,11.460,223.400,61.620,14.090,4.359,489.800,102.100,22.580,7.214,easy
1379.000,335.100,75.750,15.370,1235.000,271.300,58.560,11.490,225.900,61.690,14.090,4.359,492.000,102.200,22.600,7.250,easy
1381.000,334.500,75.710,15.450,1237.000,272.000,58.690,11.510,225.300,61.710,14.230,4.373,492.800,102.700,22.740,7.251,easy
1382.000,334.700,75.240,15.350,1233.000,271.000,58.470,11.450,225.800,61.690,14.150,4.376,488.500,101.800,22.500,7.147,easy
1375.000,332.200,74.930,15.240,1233.000,271.200,58.340,11.450,221.900,61.580,13.990,4.328,487.700,101.300,22.390,7.128,easy
1374.000,331.600,74.890,15.260,1230.000,270.900,58.420,11.450,225.400,61.060,14.060,4.323,487.500,101.200,22.310,7.141,easy
1374.000,332.000,75.060,15.230,1230.000,270.700,58.330,11.470,224.500,61.370,14.050,4.341,487.300,101.600,22.330,7.150,easy
1374.000,331.900,75.010,15.180,1234.000,270.800,58.360,11.460,223.300,61.270,14.090,4.340,488.300,101.800,22.380,7.149,easy
1375.000,333.800,75.050,15.240,1230.000,271.100,58.370,11.460,224.600,61.090,14.040,4.325,488.500,101.800,22.420,7.163,easy
1376.000,333.300,75.310,15.300,1231.000,271.000,58.330,11.450,226.600,61.640,14.070,4.343,490.800,102.100,22.540,7.174,easy
1377.000,333.500,75.360,15.330,1233.000,271.500,58.600,11.430,227.200,61.360,14.060,4.360,489.700,102.500,22.580,7.254,easy
1380.000,334.600,75.710,15.390,1234.000,272.300,58.480,11.470,223.500,61.700,14.120,4.355,493.500,102.700,22.680,7.223,easy
1382.000,335.200,75.530,15.400,1234.000,272.000,58.590,11.480,226.000,61.600,14.150,4.379,493.900,103.100,22.810,7.289,easy
1383.000,335.200,75.590,15.430,1235.000,271.500,58.400,11.450,222.500,61.920,14.170,4.354,492.700,102.900,22.610,7.171,easy
1376.000,334.700,75.000,15.240,1228.000,270.800,58.370,11.410,224.800,61.330,14.020,4.324,488.200,101.200,22.500,7.135,easy
1376.000,332.600,75.230,15.250,1230.000,270.800,58.320,11.430,224.500,61.330,13.970,4.347,488.200,101.600,22.430,7.167,easy
1376.000,334.000,75.160,15.290,1235.000,272.400,58.640,11.440,224.000,61.760,14.140,4.318,489.300,101.600,22.320,7.167,easy
1379.000,333.800,75.200,15.320,1234.000,272.500,58.580,11.460,223.700,61.340,14.020,4.335,488.000,101.800,22.400,7.135,easy
1378.000,334.300,75.320,15.320,1235.000,272.200,58.540,11.440,224.000,61.200,14.010,4.339,488.700,101.700,22.370,7.150,easy
1381.000,333.300,75.490,15.330,1234.000,272.500,58.520,11.420,224.400,61.370,14.070,4.334,490.900,102.100,22.620,7.204,easy
1382.000,335.500,75.360,15.340,1235.000,272.100,58.450,11.450,221.200,61.210,14.110,4.359,492.200,102.700,22.610,7.239,easy
1382.000,335.300,75.770,15.410,1237.000,271.900,58.510,11.470,224.000,61.410,14.140,4.340,492.400,102.200,22.770,7.267,easy
1383.000,336.500,75.670,15.410,1233.000,272.200,58.510,11.480,225.000,61.480,14.150,4.367,495.100,103.000,22.770,7.277,easy
1385.000,336.800,76.080,15.490,1238.000,272.900,58.520,11.460,224.000,61.640,14.160,4.383,496.300,103.400,22.900,7.259,easy
1386.000,336.000,75.750,15.430,1235.000,271.200,58.390,11.440,225.300,61.560,14.180,4.362,493.200,102.500,22.620,7.216,easy
1381.000,334.700,75.340,15.350,1234.000,271.500,58.340,11.410,221.500,61.440,14.020,4.345,492.100,102.100,22.590,7.199,easy
1381.000,335.700,75.320,15.320,1236.000,271.000,58.270,11.460,224.600,61.210,14.000,4.327,491.300,102.200,22.500,7.215,easy
1381.000,334.500,75.500,15.320,1235.000,270.900,58.380,11.440,224.100,61.280,14.090,4.340,490.500,102.400,22.630,7.198,easy
1381.000,334.800,75.670,15.320,1235.000,272.500,58.450,11.440,221.000,61.530,14.060,4.342,492.300,101.900,22.540,7.213,easy
1383.000,335.300,75.760,15.400,1237.000,272.000,58.600,11.420,226.500,61.400,14.070,4.336,493.300,102.600,22.740,7.222,easy
1385.000,336.000,75.760,15.420,1236.000,272.900,58.590,11.460,226.100,61.420,14.070,4.335,493.500,103.000,22.720,7.313,easy
1386.000,335.700,75.630,15.470,1238.000,272.700,58.730,11.470,223.600,61.580,14.150,4.360,496.200,103.200,22.750,7.271,easy
1389.000,337.100,76.080,15.450,1242.000,272.800,58.650,11.470,227.900,61.780,14.130,4.379,495.300,103.600,22.830,7.307,easy
1391.000,337.400,76.060,15.560,1238.000,272.800,58.700,11.480,228.200,61.970,14.080,4.383,498.000,103.600,22.830,7.363,easy
1390.000,337.000,75.750,15.480,1237.000,272.200,58.440,11.430,229.400,61.810,14.060,4.336,493.600,102.700,22.640,7.208,easy
1385.000,336.000,75.280,15.350,1236.000,272.100,58.430,11.430,224.200,61.140,13.980,4.324,491.200,102.000,22.510,7.188,easy
1384.000,335.500,75.270,15.320,1235.000,271.800,58.550,11.450,227.000,61.360,14.020,4.323,489.700,101.500,22.510,7.175,easy
1384.000,336.000,75.390,15.340,1239.000,272.100,58.380,11.440,224.700,61.290,13.960,4.319,489.900,102.000,22.540,7.154,easy
1382.000,335.300,75.220,15.360,1238.000,271.400,58.410,11.440,223.900,61.300,14.020,4.316,490.700,101.700,22.380,7.167,easy
1384.000,335.700,75.610,15.340,1245.000,271.800,58.540,11.500,225.700,61.150,14.020,4.324,490.600,102.000,22.510,7.192,easy
1387.000,336.400,75.860,15.400,1240.000,271.900,58.700,11.470,222.800,61.610,14.040,4.326,492.000,102.200,22.670,7.230,easy
1387.000,336.400,76.080,15.440,1241.000,272.200,58.460,11.470,221.400,61.700,14.030,4.363,493.400,102.500,22.720,7.221,easy
1389.000,336.900,75.860,15.530,1239.000,272.500,58.780,11.450,221.700,61.510,14.030,4.336,493.200,102.700,22.690,7.309,easy
1389.000,336.900,76.200,15.550,1236.000,272.700,58.640,11.510,227.300,61.490,14.060,4.373,494.800,103.400,22.810,7.316,easy
1391.000,336.700,76.040,15.510,1241.000,271.900,58.610,11.430,228.200,61.540,14.070,4.349,493.600,102.800,22.500,7.194,easy
1382.000,335.100,75.250,15.370,1240.000,271.800,58.520,11.420,223.000,61.550,13.920,4.314,489.500,101.700,22.360,7.168,easy
1383.000,333.600,75.390,15.310,1238.000,271.500,58.320,11.400,222.900,61.100,13.870,4.304,489.000,101.700,22.350,7.138,easy
1381.000,335.000,75.440,15.330,1237.000,270.800,58.540,11.420,222.800,60.990,13.900,4.313,489.200,101.400,22.250,7.151,easy
1382.000,335.200,75.390,15.310,1235.000,270.700,58.380,11.430,223.000,61.090,13.900,4.305,488.500,101.300,22.270,7.182,easy
1382.000,335.100,75.250,15.300,1234.000,271.600,58.340,11.420,224.200,61.340,13.920,4.304,489.600,102.000,22.340,7.165,easy
1383.000,334.200,75.650,15.380,1236.000,272.000,58.400,11.460,225.900,61.040,13.960,4.312,488.800,101.700,22.470,7.205,easy
1384.000,336.200,75.680,15.370,1237.000,271.800,58.450,11.460,227.000,61.160,13.990,4.329,492.500,102.200,22.410,7.202,easy
1385.000,335.400,75.860,15.440,1236.000,272.200,58.420,11.430,223.300,61.270,13.920,4.328,492.400,102.300,22.630,7.231,easy
1387.000,335.500,76.050,15.440,1235.000,271.700,58.500,11.450,227.800,61.580,13.930,4.349,494.300,102.900,22.610,7.255,easy
1388.000,337.200,76.180,15.490,1239.000,271.700,58.500,11.390,224.900,61.790,13.980,4.346,494.400,102.900,22.510,7.244,easy
1382.000,334.600,75.350,15.340,1233.000,271.200,58.260,11.400,225.100,61.370,13.930,4.300,488.000,101.500,22.180,7.149,easy
1380.000,334.200,75.400,15.320,1235.000,271.000,58.210,11.380,222.500,60.810,13.910,4.303,487.900,101.600,22.290,7.158,easy
1378.000,334.100,75.400,15.320,1231.000,270.900,58.350,11.390,223.300,60.920,13.910,4.312,489.300,101.800,22.310,7.138,easy
1379.000,334.300,75.150,15.350,1236.000,270.500,58.260,11.410,222.600,60.900,13.880,4.314,487.900,101.800,22.300,7.098,easy
1379.000,334.700,75.230,15.310,1235.000,270.800,58.240,11.370,225.000,61.370,13.970,4.316,488.700,101.700,22.300,7.187,easy
1379.000,334.200,75.320,15.330,1238.000,271.800,58.290,11.420,223.000,61.130,13.900,4.324,488.700,102.000,22.350,7.181,easy
1383.000,335.900,75.600,15.420,1239.000,271.900,58.550,11.420,221.700,61.370,14.090,4.335,490.400,102.400,22.430,7.226,easy
1384.000,337.100,75.910,15.460,1236.000,271.200,58.640,11.440,222.500,61.000,13.990,4.334,492.100,102.400,22.480,7.245,easy
1386.000,336.400,75.890,15.480,1236.000,272.100,58.610,11.440,227.200,61.610,13.970,4.345,492.900,102.500,22.620,7.302,easy
1387.000,336.700,75.970,15.460,1234.000,271.800,58.370,11.370,224.400,61.500,14.010,4.345,494.000,102.200,22.500,7.169,easy
1380.000,333.500,75.390,15.310,1235.000,270.700,58.060,11.380,225.000,61.100,13.950,4.318,489.500,101.500,22.270,7.150,easy
1378.000,333.200,75.140,15.340,1231.000,270.200,58.200,11.370,223.900,61.060,13.860,4.331,487.700,101.500,22.260,7.150,easy
1377.000,333.600,74.970,15.340,1234.000,270.500,58.220,11.360,219.800,60.750,13.950,4.311,488.000,101.700,22.350,7.155,easy
1378.000,333.200,75.100,15.280,1231.000,270.500,58.060,11.370,226.000,60.890,13.930,4.308,490.100,101.600,22.330,7.173,easy
1378.000,334.700,75.030,15.330,1230.000,270.700,58.130,11.380,223.100,61.350,13.920,4.310,489.900,101.300,22.340,7.163,easy
1379.000,334.400,75.290,15.370,1235.000,270.200,58.030,11.350,223.200,61.340,13.910,4.310,488.600,101.800,22.420,7.186,easy
1381.000,335.800,75.530,15.380,1235.000,270.700,58.400,11.350,224.900,61.100,14.020,4.328,491.500,102.100,22.560,7.268,easy
1383.000,335.100,75.420,15.440,1235.000,270.800,58.300,11.390,224.700,61.040,13.950,4.334,492.900,102.700,22.550,7.269,easy
1384.000,336.300,75.840,15.410,1235.000,271.400,58.420,11.410,223.900,61.470,13.990,4.344,496.100,103.000,22.650,7.278,easy
1386.000,336.900,75.800,15.500,1234.000,271.100,58.430,11.420,224.100,61.350,13.970,4.337,496.700,103.400,22.730,7.255,easy
1383.000,333.600,75.330,15.360,1232.000,270.200,58.240,11.390,223.100,61.030,13.900,4.308,491.200,101.800,22.360,7.186,easy
1379.000,333.300,75.350,15.390,1229.000,270.600,58.130,11.350,224.000,61.230,13.820,4.319,490.600,101.600,22.270,7.189,easy
1378.000,332.700,75.190,15.310,1232.000,270.400,58.210,11.340,225.300,60.960,13.850,4.302,489.500,101.700,22.380,7.169,easy
1379.000,335.000,75.080,15.340,1232.000,270.500,58.200,11.370,223.400,60.800,13.920,4.305,490.100,102.100,22.330,7.172,easy
1379.000,333.300,75.210,15.340,1233.000,270.300,58.130,11.380,224.800,61.370,13.900,4.317,491.500,102.200,22.410,7.216,easy
1380.000,333.700,75.290,15.400,1232.000,270.500,58.210,11.350,222.600,61.280,13.880,4.311,491.300,101.800,22.430,7.188,easy
1381.000,335.600,75.750,15.400,1233.000,270.900,58.340,11.390,224.300,61.230,13.950,4.331,494.800,102.600,22.570,7.253,easy
1382.000,337.000,75.620,15.460,1232.000,270.500,58.310,11.400,224.700,61.050,13.940,4.343,493.700,102.900,22.680,7.274,easy
1384.000,336.500,75.820,15.440,1237.000,272.000,58.450,11.410,225.400,61.280,14.000,4.339,495.500,103.300,22.630,7.298,easy
1387.000,336.500,75.980,15.540,1240.000,271.700,58.440,11.420,227.700,61.480,14.040,4.333,496.200,103.600,22.620,7.313,easy
1386.000,336.100,75.590,15.470,1233.000,271.400,58.260,11.380,225.100,61.760,14.000,4.312,493.100,102.000,22.430,7.199,easy
1382.000,335.100,75.630,15.440,1235.000,270.500,58.280,11.360,226.000,61.300,13.940,4.298,491.600,102.100,22.410,7.163,easy
1381.000,333.800,75.750,15.410,1232.000,271.300,58.370,11.360,222.500,61.190,13.940,4.310,490.700,102.000,22.420,7.206,easy
1382.000,334.800,75.390,15.410,1235.000,270.700,58.250,11.370,220.900,61.210,13.990,4.302,492.200,102.400,22.500,7.165,easy
1380.000,334.400,75.540,15.400,1232.000,270.600,58.220,11.360,221.300,61.170,13.910,4.324,492.100,102.100,22.400,7.244,easy
1382.000,335.700,75.670,15.450,1235.000,271.300,58.340,11.380,222.900,61.420,13.900,4.317,493.100,102.500,22.620,7.255,easy
1382.000,336.600,75.690,15.500,1230.000,270.900,58.230,11.360,223.600,61.530,14.030,4.325,494.100,103.000,22.750,7.253,easy
1385.000,336.300,75.420,15.510,1233.000,270.900,58.400,11.400,225.400,61.530,14.000,4.361,495.500,103.100,22.740,7.304,easy
1386.000,336.900,76.070,15.490,1234.000,271.200,58.330,11.390,225.100,61.660,13.980,4.349,496.900,103.600,22.810,7.363,easy
1387.000,336.600,76.190,15.560,1235.000,271.100,58.370,11.420,224.200,61.430,13.990,4.336,497.400,103.600,22.840,7.359,easy
1387.000,336.200,75.650,15.410,1234.000,270.700,58.280,11.380,224.200,61.500,14.050,4.321,494.000,102.500,22.600,7.232,easy
1382.000,334.400,75.470,15.380,1237.000,270.700,58.260,11.370,224.900,61.520,13.940,4.309,492.100,102.700,22.530,7.213,easy
1381.000,334.300,75.830,15.410,1234.000,270.400,58.110,11.360,223.400,61.570,13.880,4.303,491.900,102.300,22.570,7.189,easy
1382.000,334.800,75.430,15.450,1231.000,271.000,58.160,11.350,223.700,61.430,13.960,4.320,492.600,102.300,22.460,7.210,easy
1382.000,335.200,75.830,15.450,1232.000,270.600,58.340,11.380,225.300,60.990,13.980,4.305,491.700,102.400,22.560,7.237,easy
1383.000,334.500,75.920,15.440,1235.000,270.600,58.390,11.380,224.900,61.320,13.890,4.321,493.300,102.900,22.580,7.264,easy
1384.000,336.100,75.740,15.520,1233.000,271.100,58.230,11.380,223.000,61.230,13.980,4.308,494.600,103.000,22.660,7.270,easy
1386.000,336.100,76.370,15.530,1233.000,270.800,58.410,11.400,225.000,61.180,14.060,4.346,495.100,103.400,22.810,7.279,easy
1388.000,337.600,76.340,15.560,1237.000,270.800,58.490,11.390,224.400,61.530,13.990,4.333,496.900,103.500,22.860,7.341,easy
1388.000,337.600,76.500,15.600,1235.000,271.100,58.590,11.420,225.700,61.590,14.080,4.355,499.000,103.400,22.960,7.344,easy
1388.000,337.600,76.040,15.470,1233.000,270.600,58.420,11.340,226.400,61.630,14.020,4.336,494.400,102.600,22.570,7.226,easy
1383.000,336.000,75.770,15.440,1237.000,270.700,58.360,11.360,222.100,61.020,13.940,4.312,492.500,102.800,22.540,7.230,easy
1384.000,336.100,75.810,15.430,1237.000,271.200,58.250,11.330,223.600,61.720,13.930,4.315,492.300,102.400,22.620,7.212,easy
1385.000,336.700,75.920,15.440,1233.000,271.200,58.440,11.390,225.200,61.100,13.930,4.311,492.100,102.700,22.620,7.213,easy
1385.000,336.800,76.020,15.490,1239.000,271.600,58.500,11.380,223.700,61.280,13.930,4.316,492.700,102.700,22.580,7.251,easy
1388.000,337.000,76.170,15.550,1238.000,272.800,58.590,11.390,229.100,60.910,13.930,4.332,493.400,102.700,22.670,7.266,easy
1389.000,337.400,76.440,15.630,1240.000,272.400,58.560,11.410,223.100,61.540,14.000,4.340,495.300,103.200,22.710,7.328,easy
1390.000,337.600,76.400,15.600,1241.000,272.200,58.670,11.420,228.000,61.670,14.010,4.344,495.900,103.400,22.920,7.302,easy
1393.000,339.200,76.710,15.650,1239.000,272.000,58.650,11.420,226.800,61.610,14.080,4.361,495.800,103.900,22.840,7.338,easy
1394.000,339.700,76.380,15.650,1241.000,272.300,58.720,11.410,223.600,61.600,14.120,4.348,497.700,103.800,23.010,7.360,easy
1392.000,338.300,76.370,15.590,1236.000,271.200,58.340,11.370,223.500,61.820,13.980,4.322,493.300,103.000,22.600,7.223,easy
1386.000,336.700,76.060,15.520,1235.000,270.700,58.320,11.360,221.000,61.110,13.980,4.323,492.500,102.400,22.580,7.227,easy
1385.000,336.400,75.760,15.440,1236.000,271.200,58.350,11.330,225.300,61.270,13.930,4.311,491.800,102.400,22.510,7.266,easy
1383.000,335.500,75.820,15.410,1233.000,271.200,58.240,11.330,223.400,61.130,14.020,4.341,491.400,102.200,22.460,7.226,easy
1383.000,335.600,75.800,15.420,1232.000,270.700,58.150,11.290,223.200,61.120,14.030,4.311,491.500,102.200,22.630,7.228,easy
1384.000,336.300,75.800,15.460,1235.000,271.100,58.280,11.300,221.400,61.360,14.020,4.307,491.600,102.600,22.520,7.239,easy
1385.000,336.800,75.800,15.480,1233.000,270.800,58.350,11.320,224.000,61.200,13.900,4.321,492.900,103.100,22.780,7.284,easy
1387.000,336.100,76.240,15.560,1237.000,271.800,58.350,11.350,224.100,61.050,13.960,4.307,493.900,103.200,22.850,7.339,easy
1388.000,337.000,76.160,15.620,1235.000,271.200,58.460,11.340,224.000,61.410,14.000,4.321,496.100,103.400,22.810,7.356,easy
1391.000,337.700,76.400,15.660,1237.000,271.800,58.460,11.370,224.900,61.050,14.000,4.330,496.800,103.900,22.930,7.355,easy
1389.000,337.000,76.090,15.470,1237.000,270.500,58.270,11.300,226.400,61.380,13.940,4.313,492.400,103.100,22.500,7.234,easy
1384.000,336.200,75.770,15.430,1235.000,270.900,58.380,11.340,222.600,61.110,13.910,4.294,489.800,101.800,22.470,7.252,easy
1384.000,337.200,75.620,15.460,1238.000,271.200,58.290,11.320,222.200,61.110,13.880,4.300,490.200,102.400,22.470,7.248,easy
1384.000,336.800,75.870,15.470,1234.000,270.800,58.210,11.320,226.300,60.960,13.840,4.295,490.700,102.100,22.510,7.245,easy
1383.000,335.800,76.010,15.480,1232.000,270.800,58.180,11.330,223.700,60.260,13.860,4.286,489.500,102.100,22.530,7.236,easy
1384.000,335.400,75.980,15.480,1236.000,271.800,58.450,11.340,227.200,60.860,13.930,4.302,490.700,102.600,22.580,7.255,easy
1386.000,337.600,76.440,15.520,1234.000,271.300,58.230,11.320,224.200,61.130,13.890,4.306,491.600,102.400,22.520,7.281,easy
1388.000,337.100,76.380,15.560,1234.000,271.600,58.370,11.330,224.400,60.590,13.860,4.314,493.400,102.900,22.630,7.319,easy
1389.000,338.300,76.360,15.600,1236.000,271.200,58.390,11.330,225.500,61.050,13.910,4.296,493.700,103.000,22.750,7.341,easy
1390.000,337.800,76.420,15.610,1238.000,271.800,58.400,11.330,221.900,61.380,13.900,4.314,494.800,103.200,22.790,7.337,easy
1386.000,335.700,76.030,15.480,1236.000,270.300,58.160,11.280,225.600,61.130,13.890,4.263,488.900,101.900,22.380,7.227,easy
1381.000,335.800,75.670,15.410,1234.000,270.400,58.030,11.280,222.700,60.850,13.820,4.288,488.400,101.900,22.390,7.201,easy
1382.000,335.400,75.880,15.430,1233.000,270.900,58.170,11.260,220.500,60.890,13.840,4.266,489.100,102.000,22.420,7.234,easy
1382.000,336.100,75.750,15.440,1231.000,269.900,58.090,11.260,223.600,60.720,13.810,4.267,490.000,102.100,22.470,7.230,easy
1381.000,335.300,75.740,15.470,1229.000,270.100,58.070,11.230,222.900,60.870,13.750,4.270,489.200,102.400,22.410,7.228,easy
1380.000,337.300,75.840,15.410,1231.000,270.200,58.070,11.270,219.600,60.690,13.820,4.299,490.800,102.300,22.470,7.277,easy
1382.000,335.200,76.050,15.460,1230.000,270.100,57.950,11.230,221.900,60.620,13.850,4.281,490.500,102.600,22.620,7.327,easy
1383.000,335.600,76.100,15.490,1236.000,270.700,58.080,11.270,221.000,60.820,13.900,4.288,490.700,102.900,22.680,7.338,easy
1384.000,336.700,76.160,15.500,1228.000,270.200,58.050,11.270,221.900,61.250,13.830,4.294,494.500,103.000,22.750,7.339,easy
1386.000,337.500,76.520,15.620,1234.000,270.800,58.090,11.290,223.700,60.990,13.890,4.293,495.500,103.700,22.630,7.314,easy
1383.000,335.100,75.740,15.430,1230.000,269.900,57.940,11.250,223.900,60.770,13.770,4.261,489.600,101.900,22.340,7.226,easy
1381.000,334.900,75.720,15.440,1231.000,269.400,57.860,11.240,222.800,60.140,13.770,4.250,487.700,101.900,22.370,7.234,easy
1379.000,333.700,75.650,15.460,1226.000,270.000,57.880,11.240,223.800,60.620,13.810,4.272,487.500,102.000,22.420,7.259,easy
1381.000,335.100,75.680,15.450,1230.000,270.100,57.910,11.260,223.300,60.800,13.740,4.230,489.800,101.800,22.460,7.237,easy
1380.000,335.800,75.760,15.420,1233.000,269.700,58.120,11.280,220.300,60.960,13.730,4.268,490.500,101.700,22.500,7.190,easy
1382.000,335.900,75.640,15.530,1235.000,270.500,58.120,11.250,221.100,60.150,13.760,4.254,490.300,101.900,22.470,7.254,easy
1385.000,337.900,76.210,15.520,1236.000,271.200,58.190,11.300,223.600,60.790,13.720,4.267,492.900,102.600,22.680,7.281,easy
1386.000,337.300,76.230,15.540,1233.000,271.000,58.160,11.330,223.600,61.110,13.790,4.256,493.700,102.900,22.700,7.318,easy
1387.000,337.500,76.430,15.570,1236.000,271.000,58.130,11.290,223.000,60.990,13.750,4.285,494.700,103.000,22.740,7.365,easy
1390.000,338.800,76.590,15.680,1237.000,271.100,58.270,11.310,225.100,60.970,13.820,4.268,497.100,103.500,22.800,7.348,easy
1390.000,337.400,76.390,15.550,1232.000,270.600,58.150,11.250,226.100,60.960,13.850,4.268,493.300,102.300,22.610,7.249,easy
1385.000,336.600,76.250,15.480,1234.000,270.800,58.220,11.260,223.700,60.310,13.770,4.241,491.000,102.000,22.580,7.216,easy
1386.000,335.800,76.100,15.520,1233.000,270.100,58.110,11.270,222.600,60.460,13.770,4.254,490.500,102.600,22.550,7.306,easy
1387.000,337.100,76.230,15.500,1234.000,271.100,57.970,11.280,223.700,60.810,13.780,4.257,492.400,102.600,22.600,7.269,easy
1385.000,336.900,76.050,15.540,1231.000,270.200,58.160,11.280,220.100,60.570,13.780,4.244,492.600,102.700,22.670,7.270,easy
1387.000,336.300,76.200,15.580,1234.000,270.200,58.280,11.280,222.600,60.350,13.710,4.261,492.300,102.700,22.630,7.274,easy
1390.000,338.900,76.210,15.570,1235.000,270.500,58.250,11.290,224.700,60.590,13.780,4.265,494.300,103.000,22.650,7.308,easy
1390.000,336.700,76.300,15.580,1237.000,271.800,58.340,11.290,220.500,60.660,13.760,4.233,493.100,102.300,22.560,7.275,bogus
1389.000,338.400,76.380,15.610,1237.000,271.000,58.460,11.300,223.900,60.480,13.730,4.259,493.200,102.600,22.710,7.293,bogus
1391.000,338.900,76.390,15.620,1236.000,271.700,58.240,11.330,226.100,60.740,13.770,4.263,494.300,103.100,22.730,7.333,bogus
1393.000,338.000,76.510,15.690,1237.000,271.800,58.430,11.350,224.700,60.970,13.830,4.270,495.900,103.400,22.820,7.341,bogus
1394.000,339.700,76.840,15.710,1241.000,271.900,58.350,11.370,226.400,61.210,13.800,4.287,497.900,103.800,22.880,7.352,bogus
1366.000,332.600,75.020,15.410,1220.000,268.000,57.710,11.280,221.900,60.840,13.980,4.306,498.000,103.700,23.260,7.443,easy
1365.000,332.000,75.340,15.370,1221.000,267.400,57.760,11.280,221.900,61.100,14.070,4.295,498.600,103.900,23.370,7.483,easy
1364.000,331.700,74.920,15.360,1217.000,266.800,57.870,11.280,225.900,61.380,14.010,4.275,497.600,103.600,23.240,7.440,easy
1364.000,332.600,74.950,15.350,1220.000,267.100,57.740,11.300,222.600,60.940,14.060,4.323,497.200,103.800,23.270,7.455,easy
1364.000,332.000,74.930,15.380,1222.000,266.800,57.720,11.290,222.500,60.940,13.980,4.303,500.200,104.200,23.340,7.505,easy
1365.000,333.600,75.440,15.420,1219.000,267.300,57.830,11.310,224.600,61.140,14.010,4.308,499.300,104.100,23.480,7.542,easy
1367.000,333.300,75.700,15.490,1222.000,267.700,57.860,11.290,222.600,61.060,13.970,4.317,501.500,104.400,23.400,7.570,easy
1367.000,333.600,75.600,15.490,1221.000,268.400,57.980,11.330,226.900,61.170,14.040,4.303,503.400,105.400,23.530,7.584,easy
1370.000,334.800,75.440,15.500,1222.000,267.300,57.780,11.260,223.400,60.980,14.080,4.306,500.700,104.200,23.280,7.457,easy
1362.000,331.200,74.860,15.300,1216.000,267.200,57.730,11.250,224.400,61.450,13.990,4.264,495.200,103.400,23.090,7.381,easy
1360.000,330.500,74.720,15.290,1215.000,267.000,57.470,11.210,223.400,60.720,13.930,4.263,494.800,103.000,23.050,7.373,easy
1358.000,329.900,74.610,15.290,1218.000,266.300,57.600,11.260,218.800,60.630,13.920,4.278,493.900,103.000,23.000,7.364,easy
1357.000,329.100,74.380,15.250,1219.000,266.200,57.680,11.230,223.400,60.680,13.930,4.235,493.800,103.000,22.940,7.359,easy
1356.000,330.400,74.480,15.230,1217.000,266.200,57.630,11.230,222.400,60.870,13.930,4.261,491.200,102.900,22.950,7.388,easy
1355.000,330.700,74.490,15.250,1218.000,265.800,57.650,11.250,221.400,61.020,13.930,4.250,495.200,103.100,22.940,7.394,easy
1356.000,331.000,74.690,15.260,1215.000,266.500,57.660,11.270,223.600,60.710,13.960,4.280,495.900,103.200,23.140,7.444,easy
1359.000,330.300,75.120,15.320,1216.000,266.700,57.630,11.270,224.200,61.080,14.000,4.286,496.800,103.700,23.260,7.440,easy
1358.000,331.900,74.920,15.310,1218.000,266.500,57.660,11.260,223.500,61.010,14.000,4.293,496.600,104.100,23.210,7.481,easy
1360.000,332.500,75.310,15.360,1216.000,267.400,57.930,11.300,225.400,61.410,13.920,4.285,499.000,104.300,23.350,7.474,easy
1359.000,331.400,74.760,15.210,1218.000,266.100,57.630,11.250,223.000,60.500,14.010,4.256,494.900,102.800,22.950,7.330,easy
1351.000,329.500,74.120,15.140,1211.000,266.000,57.400,11.230,224.000,60.480,13.910,4.225,489.500,102.100,22.780,7.306,easy
1351.000,328.100,74.180,15.140,1211.000,266.000,57.470,11.220,221.700,60.490,13.910,4.240,489.600,102.400,22.730,7.289,easy
1348.000,327.900,73.830,15.090,1212.000,265.400,57.520,11.220,224.400,60.090,13.800,4.235,490.200,102.000,22.730,7.283,easy
1347.000,328.000,73.770,15.100,1210.000,265.600,57.470,11.210,222.900,60.350,13.820,4.238,489.100,102.000,22.650,7.233,easy
1347.000,328.100,73.920,15.100,1209.000,265.100,57.540,11.200,221.900,59.950,13.860,4.250,488.900,102.200,22.830,7.290,easy
1347.000,327.900,74.020,15.160,1216.000,265.800,57.560,11.220,221.500,60.560,13.830,4.229,489.900,102.200,22.920,7.286,easy
1348.000,329.100,74.170,15.130,1214.000,265.100,57.530,11.260,222.000,60.760,13.890,4.241,492.000,102.100,22.940,7.333,easy
1350.000,330.200,74.290,15.190,1216.000,266.400,57.600,11.250,223.400,60.430,13.830,4.259,493.000,103.000,22.940,7.362,easy
1351.000,331.000,74.130,15.240,1218.000,266.400,57.760,11.270,223.500,61.020,13.980,4.265,494.500,103.200,23.020,7.404,easy
1354.000,329.100,74.380,15.160,1212.000,265.500,57.380,11.230,223.200,61.020,13.880,4.263,491.000,102.500,22.660,7.233,easy
1344.000,327.900,73.580,15.010,1214.000,265.000,57.340,11.230,219.700,60.060,13.850,4.245,488.300,101.400,22.570,7.196,easy
1343.000,326.000,73.620,14.990,1206.000,265.200,57.430,11.220,222.900,60.060,13.830,4.242,486.300,101.400,22.630,7.229,easy
1341.000,325.600,73.480,15.010,1212.000,264.900,57.310,11.180,220.500,60.160,13.810,4.213,487.600,101.600,22.520,7.192,easy
1340.000,325.200,73.610,14.980,1208.000,265.200,57.340,11.200,220.700,60.310,13.810,4.227,484.800,101.100,22.360,7.203,easy
1339.000,326.500,73.210,15.000,1208.000,264.500,57.430,11.200,220.000,60.220,13.780,4.222,487.600,101.500,22.600,7.217,easy
1339.000,325.400,73.330,15.010,1211.000,264.800,57.380,11.180,218.400,60.490,13.810,4.236,488.300,101.400,22.600,7.235,easy
1341.000,326.600,73.600,15.050,1212.000,265.300,57.370,11.210,222.700,60.720,13.840,4.265,488.500,102.000,22.760,7.276,easy
1342.000,326.700,73.680,15.050,1208.000,264.900,57.360,11.210,221.100,60.460,13.860,4.254,489.500,102.100,22.800,7.242,easy
1342.000,326.700,73.870,15.130,1211.000,264.900,57.610,11.240,222.600,60.350,13.920,4.240,491.600,102.500,22.750,7.328,easy
1344.000,327.300,74.130,14.990,1215.000,264.900,57.380,11.180,222.200,60.620,13.890,4.232,489.400,102.100,22.670,7.179,easy
1336.000,325.200,73.230,14.910,1210.000,264.900,57.140,11.160,221.600,59.580,13.720,4.200,484.700,100.700,22.350,7.134,easy
1335.000,324.800,73.290,14.900,1211.000,264.600,57.260,11.150,223.500,60.020,13.710,4.205,484.200,100.500,22.210,7.108,easy
1336.000,323.700,73.000,14.920,1207.000,265.200,57.200,11.140,218.500,60.400,13.780,4.224,483.900,101.100,22.250,7.115,easy
1333.000,324.300,73.180,14.870,1205.000,264.600,57.220,11.160,220.700,60.260,13.780,4.204,485.300,101.200,22.340,7.102,easy
1333.000,324.200,73.130,14.890,1208.000,264.300,57.220,11.160,219.500,60.620,13.700,4.225,484.100,101.000,22.490,7.143,easy
1335.000,324.400,73.250,14.910,1207.000,264.100,57.450,11.170,221.300,60.140,13.750,4.212,485.200,101.300,22.560,7.175,easy
1335.000,324.800,73.190,14.980,1209.000,264.600,57.210,11.210,222.100,60.560,13.780,4.225,486.300,101.200,22.520,7.195,easy
1338.000,326.400,73.590,15.030,1206.000,265.200,57.420,11.200,221.700,60.560,13.820,4.230,487.900,101.700,22.610,7.227,easy
1339.000,325.900,73.640,14.960,1213.000,264.700,57.450,11.210,222.700,60.420,13.890,4.257,487.900,101.900,22.710,7.250,easy
1342.000,327.200,73.700,15.030,1208.000,264.800,57.250,11.210,222.800,60.420,13.870,4.265,489.500,101.700,22.510,7.152,easy
1334.000,323.900,72.700,14.860,1207.000,263.800,57.190,11.180,219.700,60.450,13.830,4.216,481.900,100.500,22.230,7.065,easy
1331.000,324.100,73.110,14.810,1210.000,264.000,56.990,11.170,220.300,59.770,13.700,4.213,480.600,100.100,22.120,7.019,easy
1331.000,323.600,72.840,14.850,1206.000,263.500,57.160,11.150,218.800,60.030,13.740,4.221,482.400,100.100,22.100,7.044,easy
1330.000,323.000,72.820,14.840,1207.000,263.700,57.090,11.160,219.600,60.060,13.700,4.212,480.900,100.100,22.200,7.033,easy
1330.000,324.100,73.040,14.840,1207.000,264.000,57.100,11.130,220.000,60.450,13.680,4.217,481.400,100.100,22.130,7.038,easy
1332.000,323.300,72.910,14.900,1207.000,264.100,57.110,11.170,223.500,60.340,13.730,4.198,482.600,100.600,22.360,7.075,easy
1334.000,325.500,73.330,14.920,1206.000,264.800,57.360,11.180,219.800,60.420,13.770,4.226,482.300,101.400,22.420,7.096,easy
1336.000,326.200,73.080,15.010,1212.000,264.600,57.390,11.180,220.000,60.530,13.750,4.237,484.500,101.000,22.310,7.134,easy
1337.000,325.900,73.640,15.030,1210.000,265.000,57.350,11.190,221.500,60.680,13.830,4.246,486.500,101.500,22.430,7.140,easy
1339.000,326.000,73.610,15.050,1214.000,265.100,57.450,11.230,223.600,60.270,13.830,4.249,488.900,102.000,22.560,7.193,easy
1341.000,326.200,73.590,14.980,1215.000,265.300,57.200,11.190,225.000,60.690,13.830,4.251,486.300,101.000,22.380,7.053,easy
1334.000,323.500,73.240,14.880,1213.000,264.800,57.270,11.190,218.200,60.110,13.780,4.202,479.600,100.200,22.190,7.016,easy
1334.000,323.500,73.220,14.870,1211.000,264.900,57.420,11.230,220.800,60.470,13.810,4.214,479.400,99.930,22.000,7.023,easy
1333.000,323.900,73.130,14.920,1209.000,264.900,57.330,11.200,219.000,60.170,13.750,4.211,480.600,100.100,22.020,7.015,easy
1333.000,323.900,73.030,14.850,1213.000,264.900,57.320,11.210,220.100,60.170,13.700,4.213,480.600,100.000,22.060,7.003,easy
1334.000,324.700,73.310,14.920,1207.000,266.200,57.360,11.210,219.600,60.360,13.810,4.238,481.200,100.200,22.340,7.042,easy
1337.000,324.900,73.370,14.960,1215.000,265.500,57.530,11.220,222.100,60.350,13.780,4.252,484.400,100.400,22.320,7.088,easy
1339.000,326.400,73.600,15.040,1215.000,266.300,57.650,11.240,218.900,60.380,13.850,4.260,484.800,100.900,22.390,7.080,easy
1342.000,326.500,73.660,15.050,1220.000,266.200,57.710,11.280,221.900,60.480,13.930,4.272,487.000,101.500,22.440,7.121,easy
1344.000,327.000,73.820,15.090,1219.000,266.300,57.830,11.280,220.800,60.700,13.900,4.278,487.900,101.700,22.500,7.149,easy
1346.000,329.100,74.310,15.150,1220.000,265.900,57.810,11.340,222.500,60.960,13.910,4.294,488.800,101.700,22.660,7.184,easy
1346.000,328.100,73.870,15.090,1215.000,266.100,57.530,11.250,222.300,60.950,13.930,4.283,483.900,101.200,22.320,7.064,easy
1340.000,326.900,73.440,14.970,1212.000,266.400,57.570,11.270,219.200,60.450,13.900,4.228,482.400,100.600,22.300,6.997,easy
1340.000,324.900,73.400,14.970,1217.000,265.800,57.580,11.280,221.500,60.110,13.800,4.279,483.000,100.500,22.240,7.008,easy
1341.000,326.300,73.610,15.030,1216.000,266.500,57.660,11.290,222.000,60.570,13.870,4.244,482.400,101.000,22.200,7.030,easy
1341.000,325.800,73.820,15.020,1217.000,265.800,57.690,11.320,222.600,60.330,13.940,4.242,481.300,101.000,22.340,7.033,easy
1342.000,325.100,73.870,15.060,1215.000,266.300,57.790,11.320,223.200,60.370,13.890,4.265,483.200,100.800,22.350,7.068,easy
1343.000,327.700,74.280,15.080,1219.000,267.000,57.960,11.340,222.300,60.490,13.980,4.279,485.200,101.100,22.510,7.118,easy
1346.000,327.200,74.200,15.160,1220.000,266.700,58.170,11.330,222.600,60.980,14.020,4.313,487.100,101.600,22.440,7.163,easy
1349.000,330.200,74.660,15.180,1222.000,268.100,58.210,11.390,223.600,61.110,13.980,4.305,489.200,101.800,22.620,7.169,easy
1353.000,329.200,74.560,15.250,1223.000,267.800,58.240,11.410,222.600,60.780,14.030,4.301,489.600,102.600,22.710,7.183,easy
1355.000,331.500,74.860,15.270,1228.000,268.500,58.100,11.400,223.400,60.900,14.070,4.310,490.500,102.000,22.630,7.134,easy
1349.000,329.100,74.210,15.130,1223.000,267.200,58.050,11.370,221.300,60.840,13.980,4.289,484.300,101.500,22.370,7.080,easy
1349.000,329.100,74.530,15.110,1225.000,267.400,58.170,11.360,220.800,60.760,14.010,4.309,485.500,101.100,22.400,7.083,easy
1350.000,327.900,74.330,15.180,1221.000,267.800,58.060,11.400,221.200,60.840,14.030,4.305,485.700,101.100,22.350,7.121,easy
1350.000,329.000,74.550,15.130,1225.000,267.700,58.250,11.400,222.700,61.130,13.940,4.294,484.300,101.100,22.420,7.073,easy
1351.000,330.200,74.390,15.170,1226.000,267.600,58.150,11.370,221.900,61.080,14.040,4.313,484.400,101.400,22.480,7.125,easy
1352.000,329.100,74.520,15.230,1224.000,268.100,58.190,11.410,222.100,60.920,14.010,4.314,487.400,102.000,22.670,7.159,easy
1354.000,330.600,75.010,15.320,1228.000,268.600,58.180,11.400,223.600,61.150,14.070,4.308,487.100,102.100,22.560,7.215,easy
1357.000,330.500,74.840,15.320,1223.000,268.600,58.400,11.420,223.400,61.080,14.100,4.325,489.800,102.700,22.710,7.210,easy
1357.000,331.600,75.070,15.360,1222.000,269.000,58.490,11.420,224.000,61.310,14.090,4.350,489.800,103.000,22.740,7.255,easy
1360.000,332.500,75.160,15.410,1231.000,268.500,58.520,11.440,225.200,61.520,14.160,4.352,493.000,102.900,22.800,7.269,easy
1359.000,330.700,74.620,15.280,1224.000,267.800,58.150,11.420,226.300,61.490,14.090,4.306,488.300,101.900,22.420,7.122,easy
1353.000,329.700,74.270,15.170,1222.000,268.800,58.160,11.400,221.600,61.110,14.020,4.292,485.200,101.400,22.380,7.100,easy
1352.000,328.500,74.260,15.150,1225.000,268.300,58.220,11.400,222.400,61.290,13.990,4.302,484.900,101.500,22.470,7.125,easy
1352.000,329.000,74.140,15.180,1228.000,268.200,58.030,11.370,222.600,60.670,13.970,4.291,487.100,101.400,22.320,7.108,easy
1351.000,328.800,74.530,15.180,1226.000,267.700,58.120,11.390,220.600,60.900,13.900,4.314,484.700,101.400,22.410,7.110,easy
1351.000,329.400,74.360,15.180,1223.000,268.400,58.210,11.400,221.500,60.930,13.940,4.306,485.600,101.300,22.380,7.130,easy
1352.000,329.300,74.740,15.210,1225.000,267.600,58.240,11.410,223.400,60.990,14.060,4.315,488.500,101.700,22.580,7.199,easy
1354.000,329.900,74.550,15.250,1227.000,268.500,58.180,11.380,224.900,61.380,14.070,4.328,487.900,101.900,22.530,7.243,easy
1354.000,331.000,74.750,15.300,1225.000,268.600,58.240,11.430,219.500,61.220,14.000,4.329,490.400,102.500,22.680,7.242,easy
1355.000,330.300,75.010,15.340,1229.000,268.600,58.230,11.420,223.800,60.970,14.070,4.336,491.200,102.400,22.750,7.271,easy
1357.000,331.100,75.100,15.330,1226.000,268.300,58.160,11.390,223.600,61.450,14.090,4.337,491.700,103.000,22.840,7.244,easy
1354.000,329.100,74.360,15.220,1226.000,267.300,58.080,11.350,223.400,61.230,14.040,4.317,485.700,101.400,22.360,7.168,easy
1349.000,327.000,74.200,15.110,1225.000,267.700,58.050,11.310,222.500,60.600,13.990,4.284,485.100,100.700,22.370,7.134,easy
1346.000,327.000,73.790,15.080,1221.000,267.500,57.910,11.340,222.300,61.000,13.980,4.305,483.500,101.300,22.320,7.133,easy
1346.000,328.700,74.110,15.120,1224.000,267.300,57.920,11.310,222.700,60.730,13.920,4.304,484.400,101.000,22.350,7.165,easy
1343.000,325.700,73.880,15.030,1221.000,266.800,57.990,11.320,221.900,60.580,13.950,4.286,484.800,100.800,22.340,7.140,easy
1344.000,326.900,73.820,15.130,1220.000,267.600,58.030,11.330,222.100,60.720,13.950,4.294,484.500,101.100,22.430,7.156,easy
1345.000,327.000,74.110,15.130,1224.000,267.100,57.890,11.320,220.900,60.700,13.970,4.319,487.200,101.500,22.440,7.177,easy
1346.000,329.000,74.380,15.090,1224.000,267.400,58.010,11.340,221.700,60.870,13.970,4.309,488.300,102.100,22.490,7.190,easy
1347.000,328.400,74.270,15.190,1223.000,267.200,58.000,11.350,224.100,61.120,14.010,4.334,488.600,102.300,22.560,7.199,easy
1347.000,329.200,74.330,15.210,1221.000,267.600,58.010,11.360,222.400,61.180,14.060,4.339,490.500,101.900,22.670,7.297,easy
1349.000,329.000,74.380,15.310,1226.000,267.700,58.130,11.370,222.600,61.440,14.000,4.351,492.100,102.900,22.710,7.284,easy
1351.000,330.200,74.660,15.130,1221.000,266.600,57.750,11.310,222.600,61.500,14.020,4.328,489.200,101.600,22.510,7.162,easy
1342.000,326.400,73.660,15.050,1222.000,266.300,57.850,11.290,222.600,61.110,13.920,4.271,485.200,101.300,22.410,7.152,easy
1342.000,325.500,73.680,15.040,1220.000,265.600,57.540,11.300,222.200,60.660,13.920,4.273,485.900,101.200,22.340,7.160,easy
1340.000,326.600,73.950,15.020,1220.000,266.400,57.750,11.300,222.400,61.070,13.910,4.292,485.200,100.900,22.320,7.185,easy
1339.000,326.300,73.630,15.030,1221.000,265.700,57.730,11.310,222.200,60.850,13.940,4.279,484.700,101.100,22.340,7.180,easy
1340.000,325.700,73.760,15.030,1217.000,266.000,57.810,11.320,221.600,60.920,13.910,4.295,486.700,101.500,22.270,7.197,easy
1339.000,325.600,73.720,15.070,1221.000,267.200,57.790,11.330,223.200,60.370,13.930,4.300,487.300,101.900,22.560,7.217,easy
1342.000,327.000,73.730,15.140,1221.000,266.900,57.780,11.310,222.500,61.030,14.000,4.302,488.300,101.900,22.660,7.259,easy
1344.000,326.700,74.240,15.160,1219.000,267.000,57.800,11.310,220.300,61.060,14.020,4.317,490.900,102.000,22.760,7.267,easy
1345.000,327.800,74.150,15.150,1221.000,267.100,58.010,11.290,222.200,60.900,13.960,4.310,491.000,102.900,22.730,7.308,easy
1347.000,328.200,73.980,15.150,1220.000,267.200,57.930,11.290,222.900,61.620,14.080,4.312,491.200,101.900,22.510,7.207,easy
1339.000,324.900,73.500,15.020,1220.000,265.900,57.880,11.290,219.500,60.650,13.950,4.273,485.400,100.800,22.410,7.156,easy
1338.000,325.100,73.400,14.980,1219.000,266.200,57.650,11.290,221.100,60.400,13.800,4.255,482.800,100.900,22.440,7.125,easy
1336.000,325.800,73.510,14.940,1219.000,266.100,57.660,11.280,222.200,60.680,13.850,4.250,484.800,100.600,22.240,7.134,easy
1336.000,325.200,73.360,14.930,1218.000,266.200,57.580,11.270,224.600,60.260,13.900,4.250,484.600,100.700,22.330,7.119,easy
1335.000,324.200,73.040,14.930,1216.000,266.100,57.540,11.270,222.600,60.790,13.840,4.281,485.000,101.100,22.320,7.135,easy
1336.000,325.100,73.250,14.930,1216.000,266.300,57.670,11.290,223.000,60.600,13.910,4.275,485.700,101.000,22.520,7.198,easy
1337.000,324.600,73.680,15.010,1217.000,266.500,57.610,11.300,222.400,60.810,13.930,4.276,487.300,101.700,22.460,7.194,easy
1338.000,326.800,73.700,15.000,1218.000,266.100,57.670,11.300,222.500,60.710,13.940,4.288,488.200,101.800,22.660,7.215,easy
1340.000,325.100,73.870,15.030,1222.000,266.300,57.630,11.300,223.500,60.710,13.930,4.302,490.600,102.600,22.570,7.252,easy
1341.000,326.600,74.190,15.090,1220.000,266.600,57.690,11.280,224.000,61.140,14.000,4.283,491.100,102.500,22.860,7.303,easy
1342.000,326.400,73.900,15.080,1216.000,265.500,57.660,11.290,226.500,61.100,13.920,4.271,488.400,101.400,22.460,7.188,easy
1334.000,324.400,73.040,14.950,1218.000,266.000,57.590,11.280,221.600,60.310,13.840,4.242,484.700,101.000,22.380,7.104,easy
1334.000,323.700,72.910,14.840,1212.000,265.300,57.520,11.250,220.700,60.520,13.850,4.255,483.900,100.800,22.270,7.074,easy
1332.000,323.400,73.120,14.860,1217.000,265.500,57.430,11.250,221.000,60.710,13.790,4.262,483.200,101.100,22.330,7.088,easy
1332.000,323.800,72.700,14.820,1216.000,265.200,57.530,11.230,221.400,60.650,13.830,4.254,484.700,100.900,22.240,7.093,easy
1331.000,322.000,73.090,14.880,1213.000,264.900,57.560,11.240,222.300,60.820,13.870,4.248,485.400,101.300,22.450,7.120,easy
1333.000,323.600,73.060,14.890,1217.000,265.000,57.290,11.230,221.000,60.430,13.840,4.258,486.100,101.400,22.400,7.176,easy
1334.000,324.600,72.920,14.930,1214.000,265.600,57.450,11.250,222.000,60.900,13.900,4.279,489.000,101.500,22.460,7.183,easy
1336.000,326.100,73.290,14.950,1217.000,265.200,57.370,11.250,222.000,60.650,13.960,4.277,489.700,102.000,22.580,7.195,easy
1338.000,325.100,73.740,15.030,1219.000,265.800,57.580,11.250,222.200,61.070,13.940,4.279,489.600,102.500,22.700,7.247,easy
1340.000,325.500,73.740,15.070,1220.000,267.100,57.580,11.280,223.900,60.930,14.050,4.312,493.900,103.100,22.860,7.296,easy
1342.000,327.000,73.690,14.970,1218.000,265.600,57.450,11.270,221.600,61.000,13.970,4.252,491.700,101.800,22.590,7.171,easy
1336.000,324.900,72.970,14.900,1216.000,265.000,57.510,11.240,225.000,60.740,13.900,4.251,486.100,101.200,22.380,7.137,easy
1336.000,325.400,73.030,14.890,1219.000,266.000,57.370,11.280,221.700,60.760,13.890,4.263,487.600,101.100,22.380,7.130,easy
1336.000,326.100,73.090,14.920,1219.000,266.100,57.480,11.270,221.900,60.760,13.960,4.258,487.100,101.500,22.610,7.162,easy
1336.000,325.000,73.490,14.930,1220.000,265.900,57.660,11.270,221.000,60.570,13.910,4.266,488.600,101.400,22.540,7.186,easy
1337.000,325.200,73.580,14.980,1218.000,266.500,57.770,11.280,220.700,61.040,13.990,4.286,487.900,101.700,22.740,7.191,easy
1339.000,326.400,73.630,14.990,1220.000,267.400,57.730,11.300,222.000,61.190,13.990,4.271,490.600,102.200,22.700,7.215,easy
1341.000,326.200,73.960,15.000,1222.000,266.800,57.700,11.290,223.700,61.090,14.060,4.303,491.900,102.400,22.830,7.255,easy
1342.000,327.600,73.490,15.020,1220.000,266.400,57.610,11.330,225.100,61.120,14.010,4.289,491.600,102.500,22.590,7.225,easy
1344.000,326.300,73.680,15.080,1215.000,267.000,57.580,11.280,223.100,61.240,13.990,4.287,490.900,102.500,22.630,7.234,easy
1344.000,327.200,73.780,15.020,1219.000,265.600,57.390,11.200,220.600,61.000,13.900,4.262,492.700,101.800,22.290,7.093,easy
1338.000,324.800,72.980,14.820,1219.000,264.900,57.320,11.130,219.900,60.750,13.610,4.193,486.400,101.100,21.790,7.002,easy
1335.000,324.700,73.090,14.840,1215.000,264.800,57.090,11.150,222.300,60.440,13.500,4.190,485.500,101.100,21.870,6.969,easy
1335.000,323.600,73.010,14.820,1215.000,264.600,56.960,11.100,221.800,60.340,13.370,4.153,485.400,101.300,21.690,6.937,easy
1336.000,324.000,72.820,14.800,1215.000,264.600,57.090,11.050,220.900,60.480,13.230,4.134,484.600,100.600,21.550,6.936,easy
1335.000,324.200,72.760,14.720,1216.000,263.800,56.890,11.050,220.700,60.470,13.320,4.118,487.200,101.000,21.620,6.879,easy
1336.000,324.000,72.830,14.720,1217.000,264.900,56.900,11.030,222.500,60.090,13.220,4.126,486.600,101.300,21.560,6.929,easy
1338.000,323.600,73.100,14.770,1217.000,265.100,56.910,11.030,224.600,60.170,13.210,4.118,488.500,101.300,21.560,6.924,easy
1341.000,326.500,73.070,14.750,1219.000,265.400,57.070,11.050,222.500,60.210,13.170,4.113,489.100,101.800,21.540,6.948,easy
1344.000,325.800,73.360,14.800,1220.000,265.300,57.100,11.050,223.000,60.070,13.210,4.099,489.700,101.900,21.510,6.927,easy
1348.000,326.800,73.140,14.760,1218.000,265.400,57.110,11.000,219.200,60.140,13.100,4.109,488.900,101.300,21.200,6.790,easy
1342.000,323.500,73.010,14.630,1222.000,266.100,57.000,11.000,221.000,59.780,12.970,4.059,484.900,100.300,21.050,6.733,easy
1343.000,324.000,72.420,14.640,1220.000,266.100,56.890,11.000,219.400,59.330,12.910,4.032,482.100,99.970,20.920,6.723,easy
1343.000,325.900,72.830,14.690,1222.000,265.900,57.010,11.030,219.700,59.240,12.860,4.024,483.100,99.710,20.950,6.689,easy
1344.000,324.400,72.920,14.630,1225.000,266.500,57.170,11.010,220.300,59.210,12.810,4.016,481.500,100.000,20.890,6.682,easy
1347.000,326.600,72.940,14.660,1227.000,267.200,57.430,11.060,222.100,59.660,12.800,4.017,482.000,99.980,20.790,6.704,easy
1348.000,327.800,73.320,14.780,1227.000,267.800,57.500,11.080,219.900,59.320,12.740,4.020,483.600,100.200,20.930,6.722,easy
1351.000,328.700,73.600,14.840,1231.000,268.100,57.610,11.110,219.300,59.100,12.770,4.029,482.800,99.970,20.880,6.756,easy
1354.000,328.500,73.220,14.900,1233.000,268.300,57.470,11.120,219.900,59.160,12.700,4.026,484.200,100.000,20.860,6.759,easy
1355.000,328.400,74.070,14.890,1231.000,269.400,57.620,11.110,219.900,59.390,12.770,4.023,486.000,100.500,20.830,6.748,easy
1356.000,330.300,73.930,14.920,1227.000,268.600,57.590,11.150,219.500,59.290,12.710,4.038,486.400,100.600,20.940,6.749,easy
1354.000,327.200,73.760,14.840,1227.000,268.000,57.350,11.060,216.400,59.080,12.660,4.015,483.100,99.650,20.610,6.651,easy
1348.000,326.800,73.100,14.740,1224.000,268.000,57.460,11.060,217.300,58.870,12.620,3.964,479.800,98.830,20.320,6.628,easy
1347.000,327.000,73.130,14.720,1223.000,267.200,57.270,11.070,219.900,58.520,12.540,3.980,479.300,98.740,20.430,6.621,easy
1347.000,326.700,72.870,14.730,1224.000,267.700,57.090,11.050,216.300,58.570,12.460,3.964,477.600,98.790,20.340,6.592,easy
1345.000,326.600,72.890,14.710,1226.000,267.000,57.240,11.010,216.100,58.600,12.430,3.966,478.800,98.830,20.290,6.573,easy
1345.000,326.800,72.620,14.700,1224.000,266.700,57.370,11.030,215.000,58.450,12.430,3.951,478.400,98.690,20.280,6.588,easy
1347.000,327.600,73.160,14.730,1223.000,266.900,57.190,11.030,217.900,58.520,12.460,3.968,479.800,98.940,20.350,6.627,easy
1346.000,327.100,72.960,14.730,1226.000,266.900,57.210,11.030,217.200,58.330,12.420,3.962,480.500,99.100,20.370,6.614,easy
1346.000,328.000,72.990,14.780,1220.000,267.000,57.050,11.010,214.700,58.420,12.360,3.962,481.600,98.980,20.350,6.628,easy
1347.000,326.100,73.450,14.750,1224.000,266.300,57.100,11.040,217.800,58.650,12.330,3.937,481.900,99.480,20.280,6.612,easy
1343.000,325.600,72.600,14.610,1214.000,265.200,56.810,10.960,214.900,58.710,12.340,3.925,476.500,97.820,19.880,6.504,easy
1337.000,324.200,72.110,14.580,1215.000,264.600,56.820,10.950,217.900,57.950,12.300,3.908,474.200,97.710,19.820,6.467,easy
1336.000,324.100,72.410,14.540,1214.000,265.600,56.700,10.950,213.500,58.190,12.160,3.898,472.300,97.470,19.840,6.485,easy
1336.000,325.800,72.270,14.650,1215.000,265.800,56.940,10.980,214.200,57.930,12.100,3.900,474.500,97.410,19.690,6.452,easy
1338.000,324.600,72.360,14.640,1218.000,266.000,57.070,10.950,215.100,58.110,12.140,3.908,473.300,97.250,19.650,6.445,easy
1339.000,326.500,72.480,14.640,1217.000,266.100,57.140,10.980,215.600,57.890,12.140,3.902,475.300,97.790,19.780,6.473,easy
1340.000,325.900,72.820,14.660,1216.000,266.000,57.020,10.960,215.100,57.730,12.240,3.919,476.100,97.470,19.850,6.518,easy
1340.000,325.900,72.750,14.650,1217.000,265.500,57.020,10.980,216.900,57.850,12.190,3.918,474.200,98.050,19.960,6.524,easy
1340.000,326.700,72.950,14.730,1220.000,265.900,57.000,11.020,214.500,57.770,12.210,3.923,475.900,98.210,20.000,6.545,easy
1342.000,326.300,72.750,14.710,1221.000,265.700,56.950,10.990,216.300,58.160,12.280,3.958,476.800,98.220,20.080,6.592,easy
1343.000,326.600,73.040,14.730,1218.000,265.200,56.900,10.980,219.400,58.080,12.230,3.942,476.300,98.400,19.830,6.538,easy
1336.000,323.700,72.330,14.470,1214.000,264.400,56.730,10.930,216.400,57.630,12.160,3.898,470.000,96.680,19.690,6.424,easy
1332.000,322.000,72.120,14.460,1212.000,264.100,56.510,10.880,216.500,57.630,12.070,3.881,469.500,96.230,19.480,6.392,easy
1329.000,321.800,71.790,14.390,1209.000,264.400,56.480,10.890,214.300,57.170,12.100,3.893,469.800,95.940,19.470,6.402,easy
1327.000,321.900,71.750,14.370,1211.000,263.500,56.430,10.870,214.800,57.610,12.090,3.865,468.700,95.770,19.420,6.339,easy
1325.000,320.000,71.560,14.380,1207.000,263.100,56.500,10.840,214.100,57.180,12.000,3.876,468.700,95.990,19.530,6.385,easy
1325.000,321.300,71.310,14.350,1214.000,263.000,56.480,10.840,213.700,57.170,12.080,3.887,467.800,96.180,19.490,6.390,easy
1325.000,321.100,71.570,14.400,1210.000,262.900,56.390,10.840,214.000,57.800,12.040,3.881,469.500,96.570,19.530,6.421,easy
1325.000,321.700,71.310,14.420,1210.000,262.800,56.460,10.880,211.800,57.230,12.080,3.899,470.400,97.120,19.650,6.444,easy
1326.000,321.500,71.680,14.420,1206.000,263.400,56.340,10.890,216.600,57.630,12.210,3.906,472.700,96.930,19.820,6.510,easy
1328.000,323.200,71.830,14.510,1211.000,263.800,56.670,10.900,215.500,57.690,12.200,3.942,473.100,97.520,19.800,6.528,easy
1332.000,323.700,72.270,14.490,1210.000,263.700,56.510,10.880,215.700,57.740,12.280,3.934,475.700,97.440,19.810,6.483,easy
1325.000,320.000,71.610,14.350,1210.000,263.500,56.440,10.880,216.900,57.640,12.170,3.901,470.200,96.180,19.620,6.436,easy
1323.000,319.600,71.360,14.370,1208.000,263.400,56.330,10.870,216.400,57.460,12.160,3.894,468.400,95.960,19.580,6.405,easy
1320.000,319.400,71.220,14.320,1208.000,263.500,56.510,10.860,214.900,57.610,12.220,3.922,468.700,95.890,19.530,6.395,easy
1320.000,318.600,71.450,14.340,1207.000,263.400,56.530,10.850,215.200,57.630,12.140,3.897,467.300,95.630,19.500,6.395,easy
1319.000,319.400,71.280,14.310,1210.000,263.100,56.360,10.820,213.500,57.340,12.160,3.890,468.600,95.670,19.680,6.397,easy
1319.000,319.500,71.120,14.360,1208.000,262.900,56.380,10.840,213.900,57.870,12.180,3.941,469.100,96.530,19.570,6.429,easy
1320.000,320.100,71.390,14.340,1208.000,262.800,56.510,10.860,212.900,57.630,12.160,3.933,469.700,96.330,19.850,6.468,easy
1321.000,320.800,71.540,14.460,1209.000,263.100,56.720,10.880,215.200,57.590,12.310,3.932,473.200,96.710,19.830,6.481,easy
1323.000,320.900,71.640,14.430,1210.000,263.600,56.680,10.930,216.700,57.760,12.300,3.937,473.900,96.810,19.920,6.509,easy
1324.000,321.900,71.680,14.460,1213.000,263.600,56.620,10.920,214.600,57.960,12.340,3.959,476.300,97.410,19.940,6.541,easy
1326.000,321.600,71.710,14.480,1213.000,262.600,56.450,10.910,218.300,57.920,12.300,3.960,475.200,97.450,19.750,6.462,easy
1321.000,319.500,71.350,14.340,1210.000,262.500,56.400,10.860,214.600,57.750,12.260,3.931,469.400,96.650,19.750,6.417,easy
1319.000,318.300,71.050,14.320,1208.000,263.100,56.470,10.870,214.000,57.730,12.280,3.945,468.600,96.240,19.630,6.427,easy
1318.000,318.600,71.220,14.320,1208.000,262.600,56.410,10.870,216.900,57.750,12.270,3.930,470.700,96.510,19.660,6.439,easy
1317.000,318.700,70.930,14.280,1205.000,262.600,56.300,10.890,216.600,57.840,12.320,3.919,468.900,96.280,19.650,6.442,easy
1317.000,319.300,71.420,14.340,1204.000,261.800,56.480,10.860,216.500,57.710,12.310,3.949,469.100,96.440,19.710,6.455,easy
1317.000,319.300,71.490,14.380,1205.000,262.900,56.480,10.910,219.400,58.150,12.280,3.942,472.200,97.170,19.840,6.518,easy
1318.000,319.700,71.290,14.380,1209.000,262.600,56.550,10.890,214.300,57.940,12.320,3.967,473.100,96.700,19.850,6.502,easy
1320.000,320.400,71.460,14.440,1212.000,262.300,56.550,10.910,217.200,58.030,12.380,3.965,475.800,97.280,19.980,6.534,easy
1320.000,320.500,71.640,14.450,1211.000,263.400,56.600,10.950,218.200,58.310,12.360,3.968,477.000,97.820,20.080,6.619,easy
1324.000,321.900,71.760,14.500,1210.000,263.500,56.740,10.930,219.600,58.300,12.380,3.973,476.400,98.030,20.010,6.553,easy
1319.000,320.100,71.020,14.350,1207.000,262.800,56.560,10.870,215.400,58.180,12.330,3.948,471.700,96.390,19.720,6.461,easy
1316.000,317.900,71.120,14.290,1209.000,262.700,56.530,10.910,216.000,57.910,12.250,3.938,469.100,96.620,19.650,6.436,easy
1314.000,318.500,71.150,14.310,1209.000,262.900,56.480,10.890,215.300,57.900,12.260,3.914,470.300,96.290,19.760,6.411,easy
1314.000,319.600,71.240,14.290,1210.000,263.500,56.540,10.900,216.900,57.780,12.220,3.931,469.900,96.120,19.620,6.410,easy
1314.000,318.100,70.940,14.270,1209.000,262.700,56.560,10.910,215.400,58.230,12.270,3.926,470.200,96.530,19.770,6.449,easy
1315.000,318.400,71.280,14.350,1207.000,263.700,56.640,10.910,217.500,57.790,12.270,3.944,471.600,96.760,19.810,6.474,easy
1316.000,319.700,71.450,14.380,1208.000,263.600,56.700,10.910,216.300,57.950,12.330,3.957,473.500,97.190,19.790,6.526,easy
1318.000,320.200,71.610,14.460,1211.000,263.300,56.700,10.920,215.800,58.000,12.370,3.950,474.600,97.390,19.860,6.512,easy
1320.000,320.900,71.420,14.480,1211.000,263.700,56.830,10.960,216.400,58.760,12.370,3.966,475.200,97.430,20.010,6.557,easy
1321.000,320.500,71.670,14.490,1214.000,264.000,56.910,10.940,218.400,58.340,12.310,3.981,478.400,97.850,20.160,6.559,easy
1324.000,321.400,72.050,14.540,1213.000,264.200,56.680,10.960,217.400,58.580,12.350,3.987,479.300,98.340,20.110,6.592,easy
1321.000,320.400,71.270,14.370,1213.000,263.400,56.720,10.920,217.900,58.270,12.330,3.959,473.800,96.830,19.800,6.457,easy
1317.000,318.200,71.590,14.380,1212.000,262.900,56.760,10.920,215.300,57.990,12.290,3.941,472.200,96.430,19.790,6.436,easy
1316.000,318.300,71.190,14.350,1213.000,263.200,56.650,10.960,214.500,57.850,12.300,3.938,472.700,97.070,19.850,6.452,easy
1318.000,318.800,71.450,14.400,1213.000,263.700,56.670,10.950,216.600,58.420,12.420,3.935,474.100,97.010,19.930,6.486,easy
1318.000,319.200,71.570,14.460,1213.000,264.100,56.620,10.960,216.000,58.270,12.390,3.960,475.700,97.370,20.000,6.484,easy
1319.000,320.300,71.700,14.420,1211.000,264.400,56.960,10.960,216.300,58.180,12.500,3.988,475.600,97.480,20.050,6.532,easy
1320.000,319.800,71.460,14.520,1214.000,265.000,57.070,11.010,218.100,58.870,12.450,3.988,476.500,97.890,20.160,6.580,easy
1321.000,321.200,71.780,14.530,1214.000,264.700,57.050,10.970,216.400,58.480,12.540,3.989,478.600,97.950,20.240,6.614,easy
1324.000,322.100,71.820,14.560,1215.000,264.600,57.020,10.990,218.600,58.880,12.570,4.004,478.300,98.610,20.350,6.627,easy
1326.000,322.800,72.420,14.620,1219.000,265.200,57.210,11.020,218.500,58.910,12.590,4.015,481.500,99.240,20.420,6.694,easy
1328.000,323.400,72.580,14.650,1218.000,264.300,57.090,11.020,220.600,59.110,12.630,4.032,483.500,99.320,20.530,6.709,easy
1327.000,321.600,71.960,14.590,1216.000,264.800,56.910,11.010,219.900,58.960,12.550,3.996,477.400,98.230,20.210,6.614,easy
1322.000,321.200,71.440,14.500,1219.000,264.400,56.860,10.990,219.200,58.910,12.550,3.996,477.200,97.800,20.220,6.549,easy
1323.000,321.800,71.880,14.500,1212.000,265.200,56.840,11.000,217.900,58.980,12.530,3.999,477.900,98.100,20.240,6.609,easy
1324.000,321.200,72.050,14.510,1216.000,265.100,57.050,11.000,217.700,59.090,12.610,3.989,476.600,98.140,20.230,6.561,easy
1323.000,320.700,72.010,14.550,1214.000,265.600,57.050,11.010,215.700,59.020,12.630,3.980,475.700,98.120,20.410,6.598,easy
1325.000,321.300,72.150,14.590,1220.000,265.300,57.040,11.000,220.600,59.180,12.640,3.999,477.200,98.490,20.470,6.629,easy
1326.000,321.600,72.100,14.630,1215.000,265.300,57.190,11.020,221.300,59.190,12.660,4.012,479.400,98.340,20.520,6.645,easy
1329.000,323.000,72.350,14.670,1218.000,265.500,57.200,11.020,222.300,59.210,12.660,4.042,482.800,99.080,20.580,6.710,easy
1330.000,324.100,72.580,14.750,1218.000,265.900,57.310,11.020,219.200,59.150,12.720,4.032,483.100,99.410,20.640,6.721,easy
1332.000,325.300,73.030,14.740,1220.000,267.000,57.340,11.040,219.600,59.170,12.730,4.035,484.200,99.810,20.730,6.736,easy
