A-DC1,A-DC2,A-DC3,A-DC4,A-DC5,A-DC6,A-DC7,A-DC8,B-DC1,B-DC2,B-DC3,B-DC4,B-DC5,B-DC6,B-DC7,B-DC8,condition
1302.000,284.800,63.150,14.460,1326.000,243.100,55.080,12.500,354.400,91.780,24.450,7.897,494.400,131.000,37.860,11.340,baseline
1295.000,283.300,62.850,14.440,1323.000,244.200,54.910,12.480,348.900,91.530,24.340,7.879,493.600,130.800,37.860,11.360,baseline
1295.000,282.500,62.850,14.450,1325.000,244.000,54.930,12.500,350.900,91.640,24.440,7.907,495.200,131.300,38.120,11.390,baseline
1295.000,284.200,62.920,14.470,1319.000,244.100,55.150,12.510,353.500,92.490,24.430,7.934,496.700,131.400,38.120,11.420,baseline
1295.000,283.500,63.250,14.450,1324.000,244.200,55.060,12.520,354.000,92.170,24.440,7.941,498.200,131.900,38.300,11.490,baseline
1297.000,285.100,63.340,14.470,1322.000,244.600,55.190,12.520,352.400,92.690,24.560,7.962,502.800,132.900,38.570,11.570,baseline
1297.000,285.400,63.330,14.520,1322.000,244.500,54.940,12.520,353.700,92.900,24.590,7.935,499.000,131.600,37.750,11.310,baseline
1292.000,282.600,62.650,14.390,1321.000,243.600,55.060,12.480,351.400,91.630,24.330,7.903,493.600,130.000,37.570,11.250,baseline
1288.000,281.700,62.710,14.350,1316.000,244.300,55.030,12.470,347.800,91.690,24.420,7.893,494.300,130.400,37.700,11.280,baseline
1288.000,283.000,62.320,14.380,1318.000,244.400,55.080,12.500,350.000,91.840,24.500,7.930,496.200,130.900,37.770,11.370,baseline
1290.000,283.200,62.780,14.350,1321.000,244.400,55.330,12.510,354.500,92.240,24.450,7.919,496.700,131.200,38.000,11.380,baseline
1290.000,282.700,62.630,14.430,1321.000,244.400,55.300,12.520,353.900,92.420,24.600,7.950,499.400,131.700,38.170,11.500,baseline
1293.000,284.700,63.070,14.450,1322.000,244.500,55.290,12.590,352.500,92.270,24.530,7.992,501.500,133.000,38.430,11.550,baseline
1297.000,285.800,62.910,14.440,1324.000,245.000,55.220,12.520,351.900,92.880,24.570,7.943,493.200,130.400,37.650,11.300,baseline
1288.000,282.300,62.570,14.330,1323.000,244.700,55.290,12.520,349.300,91.710,24.450,7.921,491.500,129.800,37.540,11.260,baseline
1287.000,282.000,62.290,14.330,1322.000,244.700,55.190,12.500,349.600,92.110,24.470,7.957,492.300,130.100,37.590,11.310,baseline
1288.000,283.200,62.700,14.370,1322.000,244.400,55.430,12.540,352.300,92.660,24.590,7.968,494.400,130.600,37.780,11.330,baseline
1288.000,283.100,62.650,14.410,1328.000,245.300,55.370,12.520,353.800,92.210,24.690,8.002,494.800,131.000,37.910,11.380,baseline
1291.000,281.800,62.900,14.450,1325.000,246.600,55.530,12.560,354.400,92.810,24.700,8.019,497.600,131.800,38.150,11.490,baseline
1293.000,284.900,62.920,14.530,1328.000,245.600,55.560,12.570,352.300,93.040,24.860,8.061,498.700,132.600,38.360,11.490,baseline
1294.000,284.300,62.730,14.380,1328.000,245.400,55.420,12.560,351.800,92.780,24.740,7.997,490.400,130.000,37.580,11.240,baseline
1287.000,282.700,62.410,14.270,1326.000,245.600,55.510,12.550,351.400,92.350,24.660,7.987,489.300,130.000,37.520,11.230,baseline
1287.000,282.000,62.330,14.320,1327.000,245.600,55.430,12.570,349.600,92.680,24.630,7.992,490.900,130.300,37.650,11.350,baseline
1288.000,282.100,62.450,14.320,1325.000,246.100,55.610,12.600,349.800,93.230,24.820,8.039,491.600,130.600,37.800,11.390,baseline
1289.000,282.600,62.890,14.340,1330.000,246.300,55.590,12.620,353.800,93.410,24.820,8.066,492.900,131.400,37.930,11.400,baseline
1290.000,285.200,62.770,14.410,1326.000,246.800,55.680,12.650,350.900,93.280,24.950,8.087,495.700,132.000,38.280,11.540,baseline
1293.000,282.200,63.310,14.440,1331.000,247.200,55.730,12.610,353.200,93.790,25.020,8.148,496.600,132.100,38.140,11.400,baseline
1291.000,282.900,62.640,14.330,1330.000,246.400,55.620,12.550,351.200,93.120,24.780,8.038,489.400,129.500,37.520,11.270,baseline
1286.000,281.500,62.550,14.260,1330.000,247.000,55.720,12.570,349.800,92.970,24.700,8.062,488.400,129.700,37.600,11.250,baseline
1286.000,282.000,62.460,14.330,1328.000,246.800,55.660,12.610,354.000,93.100,24.860,8.058,490.400,130.300,37.810,11.340,baseline
1288.000,283.400,62.660,14.290,1331.000,246.600,55.820,12.600,355.400,93.060,24.960,8.088,491.800,130.800,37.860,11.370,baseline
1289.000,283.400,62.650,14.340,1332.000,247.200,55.880,12.660,353.100,93.440,24.960,8.103,494.900,131.200,38.040,11.420,baseline
1291.000,284.100,62.720,14.430,1332.000,247.600,55.800,12.640,352.800,94.050,24.980,8.161,496.500,132.200,38.440,11.540,baseline
1294.000,284.100,63.070,14.490,1333.000,248.000,55.830,12.640,356.700,94.330,25.120,8.159,495.000,131.200,37.820,11.360,baseline
1288.000,282.900,62.440,14.250,1331.000,247.300,55.670,12.640,351.600,93.500,24.790,8.069,488.700,129.900,37.610,11.260,baseline
1286.000,282.200,62.290,14.260,1335.000,247.400,55.610,12.630,350.300,93.510,24.930,8.081,488.900,130.100,37.760,11.310,baseline
1286.000,281.800,62.340,14.270,1336.000,247.600,55.700,12.650,354.200,93.730,25.020,8.099,492.100,130.700,37.920,11.380,baseline
1288.000,282.300,62.530,14.300,1333.000,247.500,55.910,12.690,355.000,93.890,24.990,8.127,492.100,130.900,37.900,11.400,baseline
1289.000,283.900,62.720,14.340,1339.000,248.200,55.870,12.670,355.800,94.160,25.070,8.134,495.800,131.700,38.290,11.470,baseline
1292.000,283.900,62.970,14.400,1336.000,248.200,55.920,12.700,358.800,93.970,25.250,8.180,498.700,133.400,38.590,11.580,baseline
1295.000,284.800,63.080,14.450,1341.000,248.800,55.950,12.690,355.100,94.610,25.250,8.183,495.000,131.400,38.010,11.350,baseline
1292.000,283.600,62.470,14.280,1336.000,248.500,55.840,12.620,355.200,93.630,25.020,8.118,491.300,130.400,37.700,11.330,baseline
1288.000,283.100,62.610,14.290,1337.000,248.100,55.990,12.650,355.100,93.580,24.950,8.104,491.300,130.700,37.800,11.340,baseline
1288.000,284.300,62.380,14.370,1339.000,248.200,56.030,12.690,355.600,93.940,25.080,8.134,494.600,131.700,38.170,11.390,baseline
1291.000,284.200,62.600,14.380,1338.000,248.700,56.140,12.720,351.800,94.220,25.060,8.160,494.700,131.900,38.180,11.450,baseline
1293.000,284.500,62.850,14.460,1341.000,248.400,56.160,12.730,354.200,94.240,25.170,8.167,496.800,132.300,38.390,11.580,baseline
1296.000,285.400,63.220,14.470,1341.000,249.000,56.120,12.720,357.500,95.140,25.320,8.229,501.200,133.700,38.800,11.630,baseline
1299.000,286.700,63.380,14.550,1340.000,249.600,56.140,12.730,357.600,95.280,25.280,8.213,498.200,132.300,38.190,11.410,baseline
1294.000,284.300,62.870,14.390,1342.000,249.300,55.970,12.710,352.400,93.870,25.070,8.144,493.100,130.800,37.980,11.380,baseline
1293.000,283.600,62.780,14.380,1340.000,249.000,56.100,12.690,354.700,94.050,25.040,8.142,494.200,131.800,38.070,11.420,baseline
1292.000,283.500,62.880,14.380,1340.000,249.000,55.920,12.690,356.900,93.980,25.100,8.152,495.600,132.400,38.150,11.480,baseline
1295.000,285.000,63.040,14.450,1343.000,249.000,56.190,12.730,353.600,94.610,25.240,8.181,496.600,132.200,38.440,11.490,baseline
1296.000,284.600,63.260,14.440,1344.000,249.700,56.330,12.750,357.200,94.420,25.250,8.209,498.300,133.100,38.600,11.610,baseline
1299.000,285.300,63.410,14.540,1344.000,249.600,56.230,12.760,355.100,95.030,25.280,8.228,500.700,133.900,38.900,11.680,baseline
1302.000,286.900,63.480,14.570,1345.000,249.500,56.230,12.760,357.200,95.390,25.380,8.225,498.800,132.400,38.330,11.430,baseline
1297.000,284.600,62.930,14.390,1346.000,248.900,56.250,12.700,357.700,94.310,25.120,8.149,493.900,131.800,38.130,11.440,baseline
1294.000,285.000,62.740,14.420,1341.000,249.100,56.330,12.700,353.800,94.290,25.110,8.146,495.700,132.000,38.140,11.410,baseline
1296.000,286.000,63.180,14.420,1346.000,249.100,56.250,12.770,355.300,94.250,25.160,8.185,496.000,132.900,38.370,11.510,baseline
1298.000,285.700,62.940,14.470,1347.000,248.900,56.250,12.750,356.800,94.430,25.170,8.177,497.900,132.700,38.400,11.510,baseline
1298.000,285.300,63.330,14.530,1347.000,249.700,56.150,12.780,356.600,94.770,25.260,8.208,500.000,133.700,38.650,11.640,baseline
1301.000,287.300,63.580,14.560,1345.000,249.800,56.390,12.760,356.100,95.210,25.330,8.233,502.800,134.500,39.060,11.670,baseline
1304.000,286.300,63.610,14.560,1345.000,249.600,56.030,12.740,358.500,94.840,25.310,8.208,497.200,132.500,38.200,11.430,baseline
1298.000,284.900,63.150,14.440,1342.000,248.900,56.110,12.720,355.200,93.800,25.140,8.134,494.800,131.800,38.050,11.390,baseline
1295.000,284.500,63.010,14.360,1343.000,249.300,56.210,12.750,353.200,94.270,25.120,8.167,495.100,132.100,38.350,11.440,baseline
1298.000,285.600,62.970,14.460,1341.000,249.000,56.330,12.740,355.000,94.220,25.190,8.204,496.700,132.700,38.320,11.450,baseline
1299.000,285.600,62.960,14.500,1344.000,249.100,56.330,12.740,355.200,94.550,25.230,8.192,498.000,132.700,38.430,11.560,baseline
1300.000,285.500,63.190,14.520,1345.000,249.200,56.300,12.760,357.000,94.850,25.190,8.224,499.900,133.500,38.730,11.630,baseline
1303.000,287.000,63.830,14.570,1348.000,249.100,56.260,12.810,357.900,95.020,25.300,8.253,502.900,134.400,39.020,11.720,baseline
1304.000,286.600,63.400,14.540,1344.000,248.800,56.190,12.740,357.200,95.010,25.290,8.205,495.900,132.300,38.110,11.400,baseline
1299.000,285.200,63.030,14.440,1340.000,248.800,56.140,12.730,353.500,94.210,25.060,8.158,492.200,131.800,38.150,11.380,baseline
1298.000,284.300,63.010,14.420,1344.000,248.600,56.180,12.720,352.500,94.120,25.060,8.168,495.700,132.000,38.130,11.400,baseline
1299.000,285.700,63.350,14.400,1341.000,248.700,56.140,12.760,354.200,94.140,25.170,8.159,497.300,132.400,38.280,11.480,baseline
1299.000,285.600,63.180,14.460,1343.000,248.900,56.150,12.730,352.600,93.970,25.180,8.199,496.300,132.700,38.450,11.510,baseline
1300.000,285.600,63.200,14.520,1343.000,248.700,56.230,12.750,353.000,94.150,25.230,8.187,498.300,133.200,38.640,11.570,baseline
1302.000,285.900,63.360,14.610,1338.000,249.000,56.350,12.750,356.400,94.120,25.320,8.218,500.600,134.200,38.870,11.670,baseline
1305.000,288.500,63.460,14.590,1344.000,249.400,56.200,12.700,356.500,94.120,25.170,8.190,497.100,132.100,38.150,11.420,baseline
1299.000,285.500,62.890,14.450,1341.000,248.700,56.130,12.700,350.300,93.450,24.970,8.127,492.000,131.600,38.060,11.330,baseline
1298.000,284.500,62.990,14.360,1339.000,248.500,56.000,12.730,350.500,93.660,25.030,8.133,492.700,131.500,38.050,11.370,baseline
1298.000,285.300,63.130,14.460,1338.000,248.300,56.120,12.710,354.300,93.500,25.070,8.174,494.100,131.800,38.190,11.420,baseline
1298.000,286.800,63.010,14.430,1340.000,248.500,56.060,12.720,351.200,93.580,25.080,8.158,494.000,132.300,38.320,11.490,baseline
1300.000,285.500,63.170,14.470,1340.000,248.600,56.140,12.710,352.500,93.960,25.060,8.171,497.600,132.700,38.500,11.560,baseline
1302.000,286.300,63.620,14.510,1341.000,248.400,56.240,12.760,353.200,94.150,25.090,8.171,499.800,133.800,38.720,11.610,baseline
1305.000,287.100,63.840,14.610,1342.000,248.800,56.230,12.760,350.900,93.690,25.250,8.187,496.300,132.400,38.210,11.410,baseline
1300.000,285.400,63.120,14.420,1339.000,247.600,56.080,12.670,352.600,93.360,24.930,8.100,491.500,131.000,37.960,11.360,baseline
1296.000,284.900,62.990,14.410,1339.000,248.700,56.030,12.660,352.400,93.420,24.880,8.096,491.700,131.200,38.010,11.400,baseline
1297.000,285.200,63.040,14.460,1339.000,248.300,55.990,12.700,353.000,93.030,25.000,8.126,493.200,131.600,37.990,11.400,baseline
1299.000,286.300,63.320,14.510,1339.000,249.000,56.110,12.700,351.000,93.120,24.960,8.124,493.500,131.500,38.070,11.410,baseline
1300.000,285.000,63.070,14.460,1335.000,248.600,56.160,12.680,351.700,93.230,25.040,8.136,495.900,132.500,38.420,11.520,baseline
1301.000,287.100,63.380,14.560,1339.000,248.400,56.230,12.690,351.400,93.540,25.040,8.140,497.700,133.300,38.660,11.560,baseline
1304.000,287.200,63.430,14.590,1339.000,248.900,56.160,12.710,352.300,94.160,25.120,8.170,496.700,132.700,38.250,11.400,baseline
1299.000,284.900,63.020,14.400,1340.000,247.600,56.010,12.680,352.600,92.740,24.850,8.078,490.800,130.800,37.830,11.300,baseline
1295.000,284.900,62.810,14.370,1340.000,247.500,55.760,12.670,348.800,92.960,24.770,8.081,490.700,130.700,37.850,11.270,baseline
1295.000,284.600,62.830,14.450,1337.000,247.400,56.110,12.690,349.600,92.880,24.760,8.086,492.400,131.600,38.020,11.360,baseline
1296.000,284.200,62.980,14.400,1333.000,247.700,55.900,12.660,349.100,92.810,24.830,8.100,491.800,131.600,38.020,11.380,baseline
1297.000,286.900,63.250,14.410,1334.000,248.200,55.960,12.690,350.200,93.020,24.920,8.123,493.700,132.000,38.090,11.450,baseline
1297.000,285.400,63.130,14.480,1336.000,247.800,55.870,12.700,346.500,93.150,24.980,8.129,494.700,132.800,38.580,11.560,baseline
1300.000,285.400,63.150,14.510,1338.000,247.300,55.960,12.690,349.400,93.280,24.980,8.125,495.200,131.500,37.940,11.340,baseline
1294.000,284.200,62.560,14.370,1331.000,247.200,55.700,12.630,348.600,92.340,24.780,8.050,488.000,130.200,37.690,11.210,baseline
1291.000,284.500,62.600,14.300,1335.000,247.200,55.840,12.650,347.500,92.670,24.800,8.058,487.900,130.200,37.750,11.290,baseline
1291.000,283.700,62.510,14.350,1332.000,246.100,55.870,12.640,347.600,92.460,24.800,8.081,489.300,130.700,37.830,11.310,baseline
1292.000,282.700,62.600,14.370,1333.000,246.600,55.770,12.650,348.400,92.660,24.760,8.092,491.000,130.900,37.990,11.330,baseline
1293.000,284.700,62.870,14.370,1335.000,247.400,55.950,12.690,351.500,92.620,24.830,8.101,492.000,131.400,38.150,11.400,baseline
1295.000,284.700,62.900,14.440,1332.000,247.200,55.920,12.690,348.400,92.990,24.880,8.142,494.500,132.300,38.440,11.500,baseline
1297.000,285.800,63.130,14.470,1336.000,247.600,55.750,12.650,351.800,93.060,24.990,8.117,491.900,130.600,37.720,11.260,baseline
1290.000,284.600,62.510,14.290,1336.000,246.700,55.700,12.610,344.000,92.320,24.690,8.041,486.800,129.600,37.430,11.170,baseline
1287.000,282.000,62.390,14.270,1332.000,246.500,55.680,12.640,345.700,92.230,24.710,8.033,486.600,129.600,37.550,11.210,baseline
1287.000,283.100,62.500,14.260,1331.000,246.900,55.760,12.620,345.600,92.330,24.700,8.059,487.600,130.200,37.710,11.220,baseline
1288.000,281.700,62.560,14.260,1332.000,246.500,55.770,12.660,347.800,92.060,24.800,8.074,487.600,130.500,37.680,11.280,baseline
1289.000,283.300,62.570,14.340,1329.000,247.000,55.900,12.650,344.500,92.090,24.810,8.089,488.900,131.000,37.880,11.320,baseline
1291.000,284.800,62.770,14.390,1334.000,247.000,55.990,12.660,348.100,92.930,24.810,8.093,491.200,131.600,38.150,11.410,baseline
1293.000,284.500,62.690,14.440,1332.000,247.300,55.850,12.650,352.000,92.890,24.860,8.122,492.700,131.500,37.920,11.270,baseline
1290.000,283.500,62.390,14.280,1328.000,247.200,55.730,12.630,347.200,92.340,24.680,8.021,484.600,129.200,37.430,11.160,baseline
1285.000,281.000,61.970,14.180,1332.000,245.800,55.640,12.610,346.800,91.610,24.660,8.019,485.600,129.300,37.360,11.150,baseline
1283.000,281.200,62.050,14.180,1326.000,245.600,55.490,12.630,344.800,91.860,24.690,8.022,487.000,130.100,37.450,11.190,baseline
1282.000,281.800,62.190,14.180,1328.000,246.100,55.690,12.670,347.000,92.300,24.690,8.048,487.300,129.500,37.510,11.180,baseline
1283.000,282.100,62.220,14.200,1331.000,246.100,55.740,12.670,345.600,92.100,24.770,8.055,488.600,130.500,37.790,11.270,baseline
1285.000,283.200,62.400,14.280,1329.000,246.700,55.760,12.640,344.500,92.290,24.740,8.079,489.300,131.000,37.890,11.360,baseline
1287.000,283.600,62.620,14.280,1330.000,246.500,55.860,12.680,347.900,92.540,24.810,8.077,493.300,131.800,38.130,11.440,baseline
1291.000,284.400,62.660,14.330,1338.000,246.700,55.760,12.630,347.800,92.550,24.840,8.080,488.600,130.100,37.450,11.170,baseline
1283.000,280.900,62.060,14.150,1330.000,246.100,55.570,12.600,347.100,91.790,24.560,7.968,484.000,129.000,37.250,11.090,baseline
1281.000,280.700,62.370,14.140,1330.000,246.200,55.710,12.620,345.900,91.500,24.610,8.010,484.900,128.900,37.350,11.140,baseline
1281.000,279.800,61.780,14.150,1328.000,245.900,55.700,12.630,344.500,91.690,24.590,8.036,485.500,129.700,37.460,11.200,baseline
1282.000,279.700,61.780,14.180,1328.000,246.300,55.600,12.610,343.200,91.600,24.570,8.026,486.400,130.000,37.500,11.170,baseline
1282.000,282.700,61.960,14.200,1328.000,246.100,55.710,12.630,343.100,91.610,24.620,8.038,488.100,130.400,37.810,11.280,baseline
1285.000,281.700,62.340,14.250,1330.000,246.200,55.970,12.650,344.600,92.190,24.660,8.068,490.200,131.200,38.050,11.330,baseline
1288.000,282.400,62.280,14.320,1331.000,246.900,55.850,12.650,347.200,92.100,24.790,8.061,492.600,132.000,38.330,11.440,baseline
1290.000,283.500,62.650,14.320,1330.000,246.600,55.790,12.630,348.400,92.690,24.730,8.074,490.500,130.500,37.640,11.240,baseline
1283.000,281.800,62.410,14.160,1328.000,246.200,55.810,12.630,344.100,91.620,24.520,7.992,485.000,129.600,37.470,11.190,baseline
1280.000,281.000,61.830,14.100,1328.000,245.800,55.630,12.620,345.600,91.720,24.490,8.004,485.500,129.400,37.410,11.180,baseline
1280.000,281.300,62.150,14.170,1328.000,246.200,55.740,12.600,347.100,91.530,24.540,8.015,486.800,130.300,37.620,11.210,baseline
1282.000,280.300,61.900,14.170,1325.000,246.700,55.700,12.640,344.400,91.930,24.580,8.018,488.100,130.400,37.710,11.240,baseline
1283.000,281.400,62.240,14.200,1327.000,246.100,55.830,12.660,350.300,91.880,24.630,8.022,489.500,131.100,37.970,11.330,baseline
1285.000,282.300,62.270,14.310,1329.000,246.800,55.830,12.660,349.300,91.950,24.740,8.043,491.800,131.700,38.270,11.430,baseline
1289.000,282.900,62.660,14.340,1331.000,247.500,55.970,12.660,348.500,92.510,24.750,8.087,494.300,132.700,38.490,11.500,baseline
1293.000,282.800,62.860,14.370,1337.000,246.500,55.820,12.650,349.400,92.710,24.760,8.062,492.200,131.100,37.890,11.250,baseline
1285.000,281.700,62.210,14.170,1329.000,246.100,55.780,12.580,345.100,91.680,24.550,7.999,486.000,130.100,37.530,11.230,baseline
1282.000,280.400,62.030,14.170,1329.000,246.200,55.650,12.600,344.400,91.680,24.550,8.021,486.000,130.100,37.670,11.230,baseline
1282.000,281.900,62.110,14.120,1328.000,246.200,55.730,12.650,344.900,91.640,24.500,8.016,488.800,130.600,37.790,11.280,baseline
1284.000,282.200,62.430,14.200,1333.000,246.000,55.800,12.670,346.800,91.740,24.570,8.023,488.100,130.800,37.910,11.290,baseline
1284.000,282.300,62.400,14.260,1325.000,246.700,55.830,12.660,345.300,91.670,24.660,8.034,490.500,131.300,38.080,11.390,baseline
1287.000,282.600,62.520,14.300,1332.000,246.800,56.050,12.680,347.800,92.020,24.730,8.047,492.900,132.100,38.290,11.480,baseline
1291.000,284.400,62.970,14.330,1334.000,247.100,55.890,12.680,349.800,92.520,24.800,8.077,493.000,131.900,38.050,11.350,baseline
1288.000,281.900,62.270,14.210,1333.000,246.400,55.830,12.650,342.700,91.690,24.470,8.007,484.600,130.400,37.840,11.220,baseline
1283.000,281.100,61.900,14.250,1330.000,247.100,55.850,12.640,346.100,91.370,24.560,8.005,485.800,130.000,37.600,11.200,baseline
1283.000,281.700,62.200,14.220,1330.000,246.500,56.000,12.690,342.400,91.750,24.520,8.020,487.300,130.500,37.890,11.260,baseline
1285.000,282.200,62.420,14.270,1335.000,246.800,56.010,12.680,347.500,91.810,24.670,8.026,487.800,130.800,37.880,11.300,baseline
1286.000,282.800,62.240,14.190,1333.000,247.000,55.920,12.660,347.500,92.040,24.640,8.033,489.100,131.000,38.010,11.320,baseline
1289.000,281.700,62.170,14.230,1333.000,247.200,55.900,12.670,348.600,92.150,24.730,8.078,491.600,132.200,38.320,11.410,baseline
1291.000,284.400,62.440,14.330,1336.000,247.100,56.040,12.680,351.400,92.340,24.780,8.067,490.100,131.400,37.850,11.280,baseline
1285.000,281.700,62.270,14.090,1331.000,246.500,55.890,12.680,343.800,91.480,24.520,8.006,484.100,129.600,37.490,11.200,baseline
1281.000,281.200,62.060,14.120,1331.000,247.100,55.840,12.650,341.000,91.610,24.530,7.992,484.800,129.700,37.590,11.210,baseline
1280.000,280.700,61.940,14.110,1329.000,245.900,56.030,12.650,343.300,91.620,24.530,8.034,487.000,130.400,37.810,11.260,baseline
1282.000,281.000,62.040,14.150,1332.000,246.700,55.830,12.660,346.000,91.940,24.640,8.023,486.400,130.300,37.750,11.250,baseline
1281.000,282.400,62.150,14.160,1328.000,246.700,55.910,12.670,343.200,91.790,24.700,8.030,488.200,131.000,38.050,11.350,baseline
1283.000,282.000,62.380,14.260,1330.000,247.000,56.030,12.700,347.500,91.970,24.710,8.025,490.400,131.600,38.190,11.360,baseline
1286.000,281.400,62.430,14.220,1332.000,246.300,55.960,12.640,347.400,92.090,24.540,8.018,485.000,130.100,37.450,11.150,baseline
1277.000,279.500,61.630,14.050,1325.000,245.700,55.650,12.600,344.300,91.070,24.390,7.949,481.600,128.900,37.340,11.080,baseline
1274.000,280.300,61.440,13.990,1326.000,244.900,55.760,12.600,342.200,90.830,24.400,7.953,481.800,129.100,37.290,11.100,baseline
1275.000,279.300,61.620,14.010,1330.000,245.400,55.750,12.630,343.900,91.370,24.410,7.961,484.900,129.200,37.440,11.090,baseline
1275.000,280.300,61.870,13.990,1328.000,245.800,55.700,12.620,345.300,91.240,24.460,7.961,483.700,129.500,37.450,11.140,baseline
1275.000,280.300,61.800,14.050,1327.000,245.300,55.840,12.660,344.300,91.440,24.490,7.963,485.200,130.200,37.700,11.240,baseline
1278.000,280.700,62.010,14.140,1328.000,245.900,55.770,12.600,343.000,91.510,24.550,8.006,487.000,130.900,37.870,11.240,baseline
1278.000,280.700,62.010,14.020,1323.000,245.100,55.730,12.610,342.700,91.410,24.350,7.926,481.400,128.400,37.080,11.020,baseline
1270.000,279.300,61.450,13.940,1326.000,245.700,55.680,12.590,343.100,90.720,24.310,7.929,480.300,128.600,36.990,11.080,baseline
1268.000,278.000,61.300,13.970,1326.000,245.800,55.700,12.590,345.200,90.740,24.350,7.936,481.600,128.900,37.370,11.140,baseline
1270.000,279.600,61.610,13.980,1327.000,245.500,55.670,12.640,345.300,91.440,24.550,7.990,482.900,129.900,37.450,11.210,baseline
1272.000,280.300,61.500,14.020,1328.000,245.600,55.840,12.660,345.400,91.520,24.470,8.008,484.200,130.500,37.630,11.230,baseline
1274.000,279.600,61.560,14.120,1324.000,245.800,56.050,12.680,343.700,91.350,24.600,8.050,484.000,130.700,37.920,11.360,baseline
1277.000,281.000,61.840,14.160,1326.000,246.100,55.870,12.680,343.100,91.470,24.630,8.049,483.000,130.100,37.480,11.150,baseline
1271.000,279.100,61.240,14.040,1322.000,245.000,55.800,12.660,338.400,90.660,24.380,7.944,475.400,128.200,37.170,11.050,baseline
1269.000,279.500,61.440,13.990,1325.000,245.200,55.660,12.650,340.200,90.880,24.370,7.947,475.700,127.900,37.020,11.050,baseline
1267.000,279.000,61.480,13.970,1326.000,245.900,55.960,12.660,339.900,90.960,24.410,7.973,477.700,128.500,37.260,11.090,baseline
1268.000,279.100,61.450,13.990,1324.000,245.300,55.910,12.690,343.200,90.360,24.350,7.958,478.200,128.300,37.210,11.090,baseline
1269.000,278.700,61.670,14.050,1327.000,245.600,55.790,12.690,344.300,90.950,24.420,7.974,481.100,129.400,37.440,11.130,baseline
1271.000,279.500,61.900,14.060,1324.000,246.200,55.970,12.710,340.900,91.040,24.450,7.987,481.500,130.000,37.710,11.240,baseline
1272.000,279.500,61.740,14.020,1324.000,246.000,55.640,12.630,341.200,90.770,24.440,7.960,476.200,127.700,36.930,11.010,baseline
1265.000,276.600,61.080,13.890,1326.000,245.300,55.520,12.620,341.600,90.600,24.290,7.917,476.000,127.600,36.860,10.990,baseline
1264.000,275.900,60.910,13.920,1319.000,245.400,55.750,12.650,341.800,90.350,24.290,7.958,476.300,127.900,37.080,11.050,baseline
1263.000,277.700,60.990,13.920,1321.000,244.900,55.910,12.670,340.900,90.900,24.420,7.985,478.300,128.600,37.180,11.120,baseline
1265.000,277.600,61.320,13.920,1326.000,245.500,55.860,12.660,341.300,90.870,24.380,7.986,479.100,128.900,37.360,11.160,baseline
1267.000,278.100,61.750,14.010,1322.000,246.100,56.020,12.700,341.300,91.270,24.520,8.027,480.900,129.700,37.600,11.200,baseline
1270.000,280.000,61.630,14.060,1329.000,245.500,56.000,12.680,343.700,91.600,24.660,8.025,479.400,128.900,37.150,11.080,baseline
1264.000,278.800,60.940,13.940,1326.000,245.700,55.840,12.710,339.900,90.870,24.330,7.962,475.000,127.500,37.010,11.040,baseline
1263.000,278.100,61.080,13.920,1327.000,246.100,55.920,12.680,341.600,90.710,24.400,7.959,476.300,127.900,37.150,11.050,baseline
1264.000,278.900,61.150,13.920,1327.000,245.900,55.930,12.710,342.100,90.890,24.460,8.001,478.200,128.800,37.200,11.140,baseline
1266.000,277.700,61.570,13.990,1325.000,246.200,55.880,12.700,341.500,91.040,24.430,8.014,478.200,129.100,37.430,11.140,baseline
1268.000,279.100,61.530,14.030,1329.000,247.000,56.170,12.760,341.700,91.450,24.530,8.029,481.700,129.500,37.650,11.260,baseline
1271.000,278.800,61.800,14.140,1329.000,247.000,56.230,12.760,341.600,91.620,24.620,8.054,484.000,130.600,37.820,11.230,baseline
1272.000,279.800,61.470,14.070,1332.000,246.900,56.250,12.710,340.000,91.210,24.500,8.000,475.800,128.100,37.090,11.070,baseline
1266.000,279.500,61.130,13.980,1327.000,245.800,56.130,12.690,342.600,91.040,24.440,8.001,475.100,128.300,37.110,11.040,baseline
1265.000,280.200,61.040,13.960,1327.000,246.300,56.200,12.730,342.900,91.050,24.480,8.013,477.800,128.600,37.370,11.130,baseline
1267.000,277.900,61.400,13.980,1329.000,247.400,56.210,12.740,340.200,90.960,24.580,8.039,478.100,129.200,37.320,11.190,baseline
1268.000,279.900,61.470,14.070,1335.000,246.600,56.170,12.770,342.500,91.300,24.540,8.072,479.800,129.500,37.480,11.210,baseline
1271.000,279.600,62.010,14.130,1333.000,247.100,56.400,12.760,342.900,91.480,24.640,8.083,483.900,130.300,37.830,11.310,baseline
1276.000,280.200,62.150,14.180,1339.000,247.800,56.360,12.760,343.700,91.860,24.770,8.097,483.100,129.700,37.520,11.160,baseline
1271.000,279.100,61.360,14.010,1329.000,247.600,56.240,12.730,342.600,91.350,24.470,8.017,476.900,128.300,37.230,11.080,baseline
1267.000,279.400,61.400,13.980,1333.000,247.400,56.230,12.720,343.500,91.150,24.440,8.011,476.800,128.500,37.290,11.100,baseline
1268.000,279.100,61.510,14.010,1328.000,247.600,56.140,12.740,343.300,91.190,24.580,8.014,478.700,129.200,37.450,11.140,baseline
1269.000,279.400,61.840,14.040,1332.000,247.300,56.140,12.760,340.500,91.310,24.640,8.041,480.300,129.600,37.490,11.220,baseline
1271.000,279.000,61.660,14.060,1336.000,247.700,56.180,12.720,340.100,91.680,24.630,8.074,482.000,129.800,37.830,11.300,baseline
1274.000,279.100,62.080,14.170,1333.000,247.800,56.430,12.820,345.800,91.840,24.720,8.075,484.800,131.000,38.000,11.350,baseline
1278.000,280.800,62.150,14.230,1337.000,247.900,56.330,12.790,346.300,92.190,24.670,8.070,482.800,129.700,37.420,11.130,baseline
1271.000,279.000,61.690,14.040,1335.000,246.800,56.170,12.750,345.600,90.920,24.480,7.999,478.800,128.600,37.320,11.090,baseline
1269.000,279.300,61.370,13.990,1333.000,246.900,56.070,12.730,343.500,91.350,24.530,8.019,478.800,129.000,37.260,11.120,baseline
1269.000,278.900,61.110,14.040,1335.000,247.800,56.160,12.740,343.600,91.470,24.590,8.066,481.200,129.500,37.530,11.250,baseline
1270.000,280.800,61.810,14.080,1336.000,247.800,56.140,12.770,344.000,91.680,24.690,8.067,481.700,129.600,37.620,11.230,baseline
1272.000,279.600,61.760,14.120,1334.000,247.900,56.230,12.730,345.400,91.660,24.650,8.096,484.300,130.700,38.000,11.350,baseline
1274.000,281.700,62.370,14.200,1336.000,248.400,56.330,12.790,347.200,92.030,24.820,8.105,486.000,131.100,38.180,11.430,baseline
1279.000,282.400,62.410,14.220,1334.000,248.600,56.260,12.740,346.800,92.490,24.910,8.105,485.200,130.300,37.650,11.200,baseline
1272.000,278.900,61.990,14.070,1333.000,247.900,56.150,12.700,344.400,91.290,24.630,8.034,479.000,129.100,37.370,11.170,baseline
1269.000,278.800,61.500,14.060,1334.000,247.800,56.240,12.700,344.400,91.600,24.600,8.046,480.000,129.500,37.540,11.190,baseline
1270.000,279.100,61.620,14.150,1337.000,247.900,56.270,12.720,345.400,91.930,24.710,8.071,482.100,129.900,37.770,11.270,baseline
1272.000,280.500,61.890,14.150,1336.000,247.700,56.320,12.760,345.300,92.040,24.770,8.075,483.900,130.500,37.840,11.320,baseline
1274.000,281.400,61.980,14.160,1335.000,248.200,56.390,12.750,346.600,92.280,24.780,8.090,485.200,131.200,38.090,11.410,baseline
1277.000,281.600,62.170,14.230,1338.000,248.300,56.420,12.740,345.600,92.510,24.860,8.141,488.000,131.900,38.290,11.470,baseline
1280.000,282.400,62.230,14.330,1342.000,247.800,56.290,12.790,350.500,92.660,24.890,8.143,489.400,131.800,38.120,11.380,baseline
1277.000,281.300,62.040,14.140,1337.000,247.300,56.230,12.740,341.600,91.830,24.640,8.060,480.900,130.000,37.850,11.280,baseline
1273.000,279.200,61.990,14.130,1334.000,247.800,56.140,12.710,344.400,92.390,24.670,8.065,482.700,129.800,37.690,11.300,baseline
1271.000,279.900,62.300,14.130,1338.000,247.600,56.210,12.690,345.300,91.880,24.660,8.049,484.500,130.600,37.980,11.360,baseline
1275.000,281.700,62.530,14.190,1340.000,248.000,56.330,12.730,346.400,92.040,24.820,8.085,486.100,130.800,38.000,11.390,baseline
1276.000,280.900,62.390,14.290,1333.000,248.400,56.400,12.710,347.800,92.400,24.760,8.088,487.300,131.700,38.270,11.450,baseline
1279.000,281.900,62.670,14.280,1340.000,248.000,56.300,12.770,350.100,92.820,24.920,8.130,489.000,132.500,38.590,11.580,baseline
1283.000,283.400,62.730,14.410,1339.000,249.000,56.530,12.790,347.900,92.710,24.930,8.159,491.700,133.400,38.890,11.620,baseline
1285.000,284.600,62.550,14.310,1340.000,248.100,56.180,12.710,347.500,92.420,24.770,8.072,484.900,130.800,38.070,11.400,baseline
1278.000,281.300,62.020,14.290,1335.000,247.200,56.200,12.700,347.100,91.680,24.730,8.049,482.900,130.900,37.990,11.370,baseline
1277.000,281.000,62.060,14.260,1337.000,247.700,56.120,12.740,347.500,92.280,24.710,8.052,486.700,131.300,38.100,11.450,baseline
1279.000,282.800,62.320,14.300,1339.000,248.400,56.260,12.720,344.200,92.000,24.750,8.093,486.900,131.800,38.320,11.490,baseline
1281.000,282.900,62.430,14.350,1338.000,248.300,56.250,12.720,346.300,92.340,24.780,8.072,489.100,132.400,38.550,11.560,baseline
1283.000,284.500,62.950,14.400,1341.000,248.400,56.230,12.740,347.500,92.580,24.790,8.091,491.500,132.600,38.880,11.620,baseline
1288.000,283.600,63.190,14.440,1342.000,248.900,56.410,12.760,349.400,92.800,24.850,8.121,494.100,134.000,39.110,11.770,baseline
1292.000,286.800,63.530,14.530,1345.000,249.100,56.380,12.720,349.900,92.700,24.950,8.145,495.000,133.300,38.740,11.550,baseline
1286.000,283.200,62.770,14.350,1341.000,248.300,56.290,12.660,348.500,92.270,24.630,8.056,486.700,131.600,38.240,11.490,baseline
1282.000,282.200,62.770,14.380,1334.000,248.600,56.330,12.660,346.000,91.680,24.670,8.038,489.000,132.100,38.480,11.550,baseline
1282.000,283.300,62.870,14.360,1342.000,247.900,56.300,12.680,346.800,92.230,24.610,8.067,490.000,132.400,38.540,11.580,baseline
1285.000,283.700,62.970,14.450,1341.000,248.200,56.310,12.700,348.200,92.050,24.780,8.086,491.200,133.000,38.720,11.620,baseline
1286.000,284.900,63.070,14.530,1338.000,248.000,56.240,12.670,347.300,93.010,24.720,8.075,492.400,133.300,38.870,11.720,baseline
1288.000,286.300,63.110,14.520,1340.000,248.300,56.300,12.680,346.300,92.950,24.780,8.099,496.400,134.400,39.190,11.760,baseline
1292.000,287.200,63.610,14.640,1342.000,248.700,56.390,12.730,347.900,92.520,24.880,8.113,498.500,135.000,39.360,11.800,baseline
1292.000,286.300,63.350,14.460,1341.000,248.800,56.160,12.650,347.600,92.100,24.770,8.034,490.100,131.800,38.570,11.590,baseline
1285.000,284.000,63.120,14.410,1340.000,248.300,55.970,12.670,347.600,91.980,24.580,8.021,490.800,132.100,38.590,11.580,baseline
1284.000,284.500,63.210,14.430,1338.000,247.800,56.010,12.630,345.400,92.100,24.610,8.032,491.000,132.600,38.870,11.620,baseline
1286.000,285.300,63.110,14.480,1341.000,248.200,55.940,12.660,347.400,91.940,24.640,8.041,491.600,133.500,38.910,11.670,baseline
1289.000,284.200,63.210,14.510,1339.000,248.200,56.380,12.690,347.800,91.940,24.740,8.048,493.800,133.600,39.020,11.720,baseline
1291.000,286.200,63.340,14.590,1337.000,247.900,56.300,12.670,347.200,92.420,24.730,8.072,496.900,134.600,39.460,11.840,baseline
1295.000,286.000,63.990,14.660,1341.000,248.600,56.380,12.690,352.500,92.350,24.850,8.093,498.600,135.200,39.380,11.810,baseline
1293.000,286.300,63.430,14.550,1340.000,247.900,56.110,12.620,350.500,92.420,24.600,8.009,489.500,132.600,38.680,11.580,baseline
1287.000,283.900,63.110,14.470,1336.000,247.500,56.070,12.610,349.500,91.650,24.540,8.000,489.400,132.900,38.670,11.630,baseline
1287.000,285.600,63.030,14.520,1336.000,247.400,55.980,12.610,349.000,92.270,24.530,8.003,491.500,133.100,38.800,11.660,baseline
1289.000,284.800,63.100,14.550,1340.000,247.100,56.190,12.630,350.500,92.080,24.630,8.019,492.600,133.400,38.940,11.710,baseline
1291.000,286.500,63.350,14.580,1336.000,247.300,56.330,12.670,348.500,92.260,24.620,8.044,494.400,133.600,39.100,11.760,baseline
1292.000,286.700,63.470,14.600,1345.000,248.400,56.060,12.660,350.300,92.390,24.750,8.063,496.300,134.700,39.420,11.860,baseline
1296.000,288.000,63.980,14.700,1341.000,247.700,56.210,12.670,348.300,93.020,24.810,8.082,499.500,135.000,39.290,11.780,baseline
1292.000,286.000,63.280,14.540,1343.000,248.300,56.040,12.610,348.700,91.680,24.520,7.987,489.700,132.400,38.650,11.600,baseline
1286.000,284.800,63.250,14.480,1338.000,247.400,55.980,12.590,345.400,91.910,24.510,7.981,490.200,132.900,38.600,11.600,baseline
1286.000,284.600,63.080,14.500,1336.000,247.100,56.070,12.600,345.700,91.930,24.540,7.987,490.100,132.800,38.740,11.660,baseline
1288.000,283.900,63.210,14.530,1339.000,247.700,56.110,12.650,350.600,91.830,24.560,8.009,492.500,133.300,38.800,11.710,baseline
1289.000,285.500,63.280,14.600,1336.000,247.600,56.040,12.610,345.300,92.260,24.630,8.014,492.500,133.900,39.100,11.760,baseline
1291.000,285.700,63.480,14.630,1337.000,247.300,56.040,12.640,351.000,92.290,24.660,8.014,495.600,134.300,39.220,11.830,baseline
1295.000,287.300,63.790,14.710,1339.000,247.900,56.060,12.680,348.500,92.500,24.720,8.053,497.500,135.400,39.490,11.830,baseline
1293.000,287.800,63.450,14.540,1338.000,246.700,55.940,12.590,350.600,92.160,24.470,7.976,490.200,132.100,38.510,11.550,baseline
1286.000,284.700,63.230,14.490,1336.000,246.100,55.990,12.560,345.500,91.670,24.420,7.952,488.400,132.000,38.510,11.590,baseline
1285.000,284.700,63.150,14.450,1333.000,246.700,55.910,12.590,345.700,91.590,24.410,7.955,489.600,132.400,38.690,11.650,baseline
1285.000,283.500,63.470,14.500,1338.000,247.000,56.070,12.610,347.700,91.480,24.540,7.972,491.600,132.900,38.800,11.670,baseline
1286.000,285.000,63.290,14.530,1335.000,246.900,56.020,12.600,344.400,92.040,24.570,7.988,492.500,133.200,38.960,11.720,baseline
1288.000,284.400,63.590,14.600,1336.000,247.300,55.950,12.630,348.000,92.110,24.640,7.989,494.500,134.000,39.190,11.800,baseline
1292.000,286.000,63.610,14.680,1336.000,247.200,56.110,12.650,345.700,92.390,24.660,8.033,496.600,134.500,39.600,11.860,baseline
1294.000,287.000,63.870,14.600,1335.000,247.000,56.090,12.590,349.700,92.320,24.590,7.996,489.800,132.000,38.530,11.570,baseline
1285.000,284.200,63.060,14.460,1330.000,246.900,55.740,12.520,347.700,91.390,24.370,7.932,487.400,131.700,38.540,11.590,baseline
1284.000,284.000,62.920,14.480,1336.000,246.300,55.980,12.560,343.400,91.460,24.440,7.932,488.400,132.100,38.540,11.590,baseline
1285.000,283.700,63.160,14.530,1330.000,246.200,55.890,12.560,345.400,91.410,24.510,7.971,491.200,132.600,38.780,11.630,baseline
1287.000,285.100,63.130,14.530,1333.000,246.400,56.090,12.610,346.800,91.890,24.500,7.975,491.400,133.000,38.800,11.680,baseline
1288.000,285.800,63.320,14.540,1336.000,246.700,56.030,12.570,346.100,91.790,24.480,7.979,493.000,133.700,39.090,11.750,baseline
1291.000,286.800,63.520,14.650,1335.000,246.800,56.110,12.610,348.900,92.110,24.660,8.009,495.900,134.600,39.310,11.860,baseline
1294.000,287.700,63.820,14.680,1337.000,246.900,55.790,12.590,351.400,92.360,24.580,8.013,491.900,133.000,38.580,11.590,baseline
1286.000,285.000,63.220,14.470,1330.000,245.800,55.770,12.540,343.600,91.320,24.420,7.913,486.400,131.700,38.410,11.520,baseline
1283.000,282.500,63.280,14.430,1327.000,246.100,55.760,12.560,346.400,91.390,24.330,7.923,487.600,132.000,38.390,11.580,baseline
1282.000,284.400,63.110,14.460,1330.000,246.100,55.690,12.570,347.300,91.920,24.500,7.931,490.400,132.700,38.650,11.640,baseline
1284.000,284.000,63.060,14.530,1331.000,246.000,55.730,12.570,348.700,91.440,24.400,7.976,490.200,133.000,38.780,11.670,baseline
1284.000,284.600,63.250,14.520,1331.000,245.700,55.870,12.570,349.400,91.810,24.500,7.976,492.100,133.000,38.900,11.720,baseline
1288.000,285.300,63.500,14.560,1330.000,246.200,55.960,12.600,348.700,91.730,24.640,7.984,495.100,134.300,39.280,11.810,baseline
1293.000,287.200,63.710,14.670,1330.000,246.500,55.950,12.550,346.800,92.170,24.660,8.004,492.500,133.000,38.600,11.590,baseline
1284.000,285.100,62.980,14.440,1330.000,245.900,55.710,12.540,346.900,91.250,24.360,7.912,485.500,131.500,38.410,11.520,baseline
1280.000,284.000,62.770,14.420,1331.000,245.000,55.730,12.530,345.900,91.220,24.350,7.923,486.500,131.500,38.320,11.510,baseline
1280.000,283.100,63.130,14.410,1331.000,245.200,55.740,12.540,346.700,91.640,24.400,7.959,489.200,132.100,38.580,11.580,baseline
1282.000,284.300,63.410,14.450,1331.000,245.500,55.630,12.560,345.500,91.580,24.470,7.961,488.900,132.500,38.520,11.600,baseline
1282.000,283.900,63.060,14.460,1328.000,245.900,55.860,12.550,346.300,91.970,24.540,7.974,490.800,132.900,38.810,11.690,baseline
1286.000,284.800,63.340,14.520,1333.000,246.300,55.850,12.610,347.500,92.020,24.530,7.991,492.700,133.800,39.100,11.780,baseline
1290.000,285.300,63.510,14.520,1331.000,245.400,55.660,12.540,350.500,92.590,24.600,7.988,489.500,131.900,38.440,11.500,baseline
1280.000,282.200,62.820,14.340,1324.000,245.400,55.450,12.520,346.800,91.240,24.410,7.915,486.100,130.900,38.160,11.460,baseline
1278.000,282.000,62.560,14.360,1326.000,244.800,55.710,12.510,346.600,91.180,24.390,7.919,484.200,131.100,38.180,11.490,baseline
1277.000,282.200,62.860,14.380,1324.000,245.200,55.740,12.530,345.400,91.520,24.460,7.951,487.600,132.100,38.410,11.500,baseline
1280.000,282.900,63.150,14.420,1328.000,245.700,55.730,12.540,347.700,91.790,24.450,7.945,487.800,132.200,38.520,11.550,baseline
1281.000,283.800,62.950,14.430,1329.000,245.600,55.750,12.560,348.000,91.760,24.510,7.984,489.600,132.800,38.780,11.620,baseline
1284.000,284.900,62.920,14.480,1328.000,245.200,55.850,12.570,348.200,92.260,24.660,8.008,493.100,133.600,38.970,11.700,baseline
1287.000,285.500,62.920,14.470,1328.000,245.300,55.730,12.540,347.700,92.330,24.680,7.977,486.600,131.400,38.100,11.440,baseline
1278.000,281.800,62.550,14.320,1328.000,245.200,55.710,12.520,345.500,91.300,24.440,7.916,486.100,130.800,37.940,11.380,baseline
1276.000,281.500,62.420,14.230,1327.000,245.000,55.700,12.560,345.300,91.340,24.360,7.944,483.000,130.800,38.020,11.450,baseline
1275.000,282.300,62.440,14.290,1327.000,244.700,55.590,12.560,343.400,91.640,24.450,7.961,486.900,131.400,38.270,11.460,baseline
1277.000,282.200,62.750,14.320,1326.000,244.900,55.660,12.550,348.500,91.980,24.500,7.976,488.500,131.500,38.360,11.480,baseline
1277.000,281.600,62.800,14.350,1327.000,245.700,55.690,12.560,347.600,92.110,24.510,8.003,489.200,132.200,38.630,11.590,baseline
1280.000,282.400,62.870,14.400,1330.000,245.900,55.810,12.590,345.800,92.200,24.670,8.017,490.600,133.100,38.790,11.650,baseline
1282.000,283.300,62.910,14.390,1326.000,244.900,55.490,12.520,349.100,92.080,24.600,7.986,485.700,130.900,38.010,11.370,baseline
1272.000,281.400,62.100,14.190,1320.000,244.700,55.510,12.500,345.200,91.160,24.460,7.915,482.800,130.300,37.880,11.340,baseline
1269.000,279.300,62.190,14.140,1323.000,244.000,55.360,12.480,347.500,91.460,24.420,7.928,483.300,130.800,37.910,11.370,baseline
1269.000,280.000,62.290,14.180,1321.000,244.400,55.570,12.480,346.300,91.520,24.540,7.974,484.600,130.800,38.100,11.410,baseline
1271.000,281.500,62.190,14.210,1322.000,244.100,55.440,12.490,346.700,91.720,24.520,7.966,486.300,131.000,38.100,11.430,baseline
1273.000,280.800,62.310,14.240,1323.000,244.700,55.680,12.520,345.400,91.900,24.510,7.993,488.200,131.800,38.470,11.510,baseline
1276.000,282.300,62.560,14.310,1320.000,244.900,55.680,12.570,349.500,92.160,24.680,8.037,489.400,132.500,38.680,11.600,baseline
1279.000,282.300,62.780,14.300,1326.000,245.500,55.550,12.530,349.900,92.490,24.790,8.062,487.600,131.300,38.090,11.380,baseline
1272.000,278.900,61.830,14.090,1324.000,243.900,55.290,12.480,342.900,91.850,24.430,7.940,479.500,129.600,37.650,11.300,baseline
1266.000,278.700,61.700,14.050,1320.000,243.900,55.340,12.440,342.600,91.570,24.380,7.934,480.100,130.300,37.770,11.290,baseline
1266.000,278.600,61.540,14.090,1318.000,244.100,55.430,12.480,348.200,91.490,24.420,7.965,482.100,130.500,37.910,11.330,baseline
1267.000,279.300,61.990,14.100,1322.000,244.200,55.500,12.490,348.700,91.750,24.540,7.978,482.200,130.800,37.950,11.430,baseline
1270.000,280.400,62.040,14.180,1320.000,244.700,55.570,12.520,345.300,92.140,24.560,7.996,484.100,131.100,38.230,11.480,baseline
1273.000,280.700,62.230,14.210,1322.000,244.800,55.820,12.500,349.300,91.780,24.690,8.028,487.400,132.300,38.450,11.560,baseline
1276.000,281.700,62.760,14.310,1322.000,245.400,55.540,12.520,350.200,92.670,24.670,8.053,489.800,132.200,38.410,11.450,baseline
1272.000,281.200,62.210,14.100,1316.000,243.900,55.420,12.460,343.900,91.750,24.510,7.979,480.600,129.900,37.760,11.270,baseline
1265.000,279.900,61.560,14.070,1318.000,243.900,55.410,12.490,344.600,91.550,24.480,7.963,480.900,129.900,37.850,11.280,baseline
1265.000,280.000,61.810,14.060,1320.000,244.100,55.480,12.520,345.300,91.910,24.520,7.986,481.900,130.700,38.030,11.340,baseline
1266.000,280.400,62.070,14.090,1319.000,244.300,55.410,12.490,348.000,91.940,24.550,7.984,483.000,130.600,37.900,11.400,baseline
1267.000,280.200,61.910,14.100,1319.000,244.500,55.580,12.550,344.300,92.050,24.540,8.019,483.800,131.700,38.300,11.450,baseline
1271.000,281.400,62.660,14.200,1321.000,244.700,55.550,12.550,351.600,92.050,24.610,8.036,487.500,132.200,38.590,11.570,baseline
1274.000,281.700,62.750,14.260,1320.000,244.800,55.690,12.550,345.700,92.420,24.720,8.061,489.400,132.200,38.420,11.470,baseline
1270.000,280.300,61.900,14.100,1321.000,244.100,55.470,12.470,345.500,91.850,24.540,7.999,480.500,129.800,37.750,11.300,baseline
1265.000,279.000,61.630,14.010,1319.000,244.600,55.490,12.480,346.800,91.940,24.570,7.978,481.400,129.700,37.830,11.290,baseline
1265.000,279.900,61.740,14.020,1317.000,243.900,55.590,12.490,344.300,91.530,24.500,8.001,481.600,130.500,37.940,11.370,baseline
1266.000,280.400,62.160,14.070,1321.000,244.400,55.560,12.530,348.600,91.860,24.590,8.019,483.500,131.200,37.980,11.370,baseline
1267.000,279.300,61.840,14.120,1319.000,245.300,55.590,12.500,348.400,92.380,24.740,8.047,484.600,131.200,38.180,11.400,baseline
1270.000,281.000,62.210,14.170,1320.000,244.300,55.800,12.560,349.900,92.380,24.720,8.052,488.800,132.000,38.510,11.570,baseline
1273.000,282.400,62.460,14.140,1325.000,244.300,55.500,12.540,349.800,92.660,24.780,8.058,484.500,130.600,37.800,11.300,baseline
1264.000,279.600,61.530,14.000,1317.000,244.200,55.460,12.480,345.100,91.630,24.530,7.977,480.400,129.400,37.590,11.230,baseline
1260.000,279.200,61.560,13.960,1318.000,243.800,55.320,12.460,344.400,91.550,24.480,7.984,480.900,129.400,37.590,11.230,baseline
1261.000,277.700,61.070,13.890,1321.000,244.100,55.210,12.390,346.600,92.230,24.560,7.994,483.200,130.600,37.790,11.280,baseline
1263.000,278.600,60.960,13.880,1319.000,244.200,55.100,12.370,348.700,92.140,24.620,8.010,483.000,130.500,37.920,11.310,baseline
1263.000,278.700,61.040,13.890,1322.000,244.400,55.040,12.410,349.800,92.150,24.680,8.007,485.500,131.600,37.990,11.390,baseline
1267.000,278.900,61.390,13.920,1317.000,243.700,54.970,12.310,349.100,92.650,24.710,8.055,488.700,131.900,38.090,11.370,baseline
1267.000,278.500,60.830,13.740,1319.000,243.400,54.860,12.270,348.100,91.970,24.540,7.964,481.700,129.700,37.370,11.110,baseline
1259.000,276.300,60.480,13.710,1317.000,243.300,54.730,12.280,347.100,91.620,24.490,7.950,481.800,129.900,37.220,11.090,baseline
1257.000,275.800,59.860,13.460,1322.000,244.100,54.150,12.030,351.400,93.220,24.520,7.919,505.800,135.900,38.200,11.240,baseline
1271.000,276.900,59.660,13.410,1329.000,245.000,53.860,11.900,367.000,96.910,25.110,8.010,523.200,140.300,39.300,11.440,baseline
1268.000,275.900,59.480,13.180,1318.000,242.400,53.000,11.690,377.500,98.440,25.580,8.055,539.800,144.100,40.310,11.610,baseline
1265.000,276.200,59.150,13.170,1309.000,242.500,52.940,11.720,382.400,100.200,25.820,8.050,552.000,146.600,40.910,11.720,baseline
1274.000,278.400,59.360,13.230,1316.000,242.000,52.680,11.650,380.200,100.000,25.750,8.050,552.700,146.100,40.490,11.500,baseline
1267.000,274.300,58.220,13.020,1308.000,241.400,52.500,11.670,380.300,98.960,25.430,7.942,544.800,144.800,39.980,11.380,baseline
1262.000,275.000,58.510,13.110,1303.000,243.100,53.010,11.810,380.700,99.240,25.510,7.981,543.400,143.900,40.010,11.470,baseline
1265.000,277.900,59.570,13.370,1323.000,246.700,54.280,12.130,377.800,98.770,25.710,8.104,531.600,141.300,39.770,11.550,baseline
1273.000,279.700,60.040,13.580,1328.000,247.400,54.800,12.250,373.800,97.440,25.580,8.173,519.900,138.400,39.310,11.530,baseline
1274.000,280.400,60.610,13.710,1334.000,247.800,54.830,12.270,370.700,96.630,25.460,8.191,516.000,137.600,39.320,11.550,baseline
1274.000,278.600,60.690,13.750,1328.000,246.700,54.940,12.350,363.600,96.550,25.430,8.195,514.900,137.300,39.250,11.590,baseline
1274.000,280.700,60.940,13.880,1328.000,245.900,55.200,12.430,367.700,96.260,25.420,8.193,508.400,135.200,38.430,11.350,baseline
1265.000,278.000,60.290,13.770,1324.000,244.400,55.000,12.420,362.300,94.860,25.050,8.090,498.300,133.000,38.110,11.290,baseline
1261.000,276.800,60.340,13.730,1325.000,244.200,54.860,12.380,356.900,94.280,25.040,8.105,497.600,133.000,38.160,11.290,baseline
1260.000,275.000,60.400,13.760,1327.000,244.300,54.820,12.410,356.300,94.410,25.070,8.139,498.600,133.300,38.300,11.360,baseline
1263.000,276.800,60.470,13.800,1328.000,244.900,55.040,12.430,356.400,94.830,25.260,8.177,499.000,134.100,38.610,11.470,baseline
1269.000,279.100,60.480,13.690,1335.000,246.900,55.110,12.380,354.300,94.670,25.130,8.167,493.300,132.600,38.100,11.330,hard
1269.000,277.100,60.400,13.670,1329.000,246.300,54.970,12.380,355.200,94.480,25.160,8.185,492.000,132.400,38.120,11.350,hard
1269.000,278.500,60.870,13.710,1330.000,246.900,55.140,12.360,355.200,94.320,25.250,8.201,494.000,132.500,38.380,11.430,hard
1269.000,278.700,60.540,13.730,1327.000,246.500,54.990,12.350,357.300,94.450,25.170,8.195,493.500,133.100,38.460,11.400,hard
1269.000,278.500,60.460,13.750,1327.000,245.800,55.060,12.370,353.500,94.540,25.240,8.241,495.100,133.600,38.480,11.480,hard
1270.000,279.400,60.920,13.840,1330.000,246.100,55.240,12.410,355.300,94.370,25.310,8.240,497.200,134.000,38.790,11.460,hard
1269.000,279.700,60.570,13.700,1327.000,245.100,55.120,12.390,354.100,93.850,25.130,8.142,486.800,131.300,37.820,11.270,hard
1265.000,277.900,60.930,13.760,1330.000,245.200,55.250,12.470,353.300,93.790,25.070,8.162,486.400,130.800,38.030,11.270,hard
1267.000,278.100,60.870,13.750,1331.000,245.800,55.480,12.520,351.800,93.700,25.090,8.149,488.000,131.300,38.050,11.340,hard
1271.000,279.000,61.280,13.880,1333.000,246.900,55.580,12.560,355.300,93.700,25.150,8.200,489.500,132.300,38.240,11.340,hard
1272.000,280.400,61.400,13.930,1336.000,246.600,55.830,12.550,354.600,93.960,25.100,8.199,490.000,132.500,38.450,11.440,hard
1277.000,280.800,61.630,13.970,1338.000,247.100,55.810,12.570,353.300,94.320,25.270,8.226,493.300,133.500,38.700,11.500,hard
1281.000,282.400,62.040,14.050,1335.000,247.500,55.900,12.570,355.500,94.230,25.280,8.229,489.500,131.500,37.960,11.280,hard
1274.000,279.700,61.240,13.850,1334.000,246.000,55.600,12.500,347.000,93.460,24.960,8.151,483.400,130.300,37.660,11.240,hard
1270.000,279.800,61.090,13.860,1332.000,246.200,55.470,12.500,350.700,93.280,25.030,8.135,485.000,130.500,37.740,11.240,hard
1270.000,279.800,61.440,13.920,1334.000,246.400,55.660,12.550,350.300,93.510,25.120,8.183,487.300,131.400,37.930,11.300,hard
1272.000,279.600,61.360,14.000,1335.000,246.300,55.690,12.570,349.800,93.410,25.170,8.207,488.400,131.500,38.080,11.340,hard
1274.000,280.600,61.680,14.040,1332.000,246.700,55.830,12.580,355.400,94.100,25.210,8.214,490.200,132.100,38.370,11.400,hard
1277.000,280.200,61.970,14.110,1336.000,247.100,55.920,12.620,351.100,94.310,25.300,8.240,493.800,133.200,38.570,11.520,hard
1280.000,283.100,61.850,14.120,1337.000,246.700,55.790,12.570,351.800,94.430,25.210,8.179,487.400,130.900,37.640,11.220,hard
1270.000,278.900,61.280,13.890,1332.000,246.200,55.430,12.520,346.800,93.190,24.930,8.130,482.700,130.200,37.540,11.220,hard
1267.000,278.400,61.400,13.900,1331.000,246.700,55.440,12.540,351.800,93.000,24.970,8.152,483.200,130.600,37.780,11.210,hard
1268.000,278.900,61.190,13.910,1326.000,246.000,55.640,12.510,353.900,93.610,25.080,8.174,485.500,130.700,38.000,11.290,hard
1269.000,280.200,61.430,14.000,1327.000,246.500,55.610,12.550,351.700,93.840,25.050,8.182,486.300,131.400,37.960,11.330,hard
1271.000,279.700,61.240,14.010,1329.000,246.200,55.610,12.560,353.600,93.700,25.160,8.197,487.500,131.700,38.070,11.420,hard
1274.000,281.400,61.740,14.110,1333.000,246.600,55.810,12.560,354.100,94.080,25.300,8.236,491.100,132.700,38.500,11.530,hard
1277.000,281.600,61.840,14.090,1329.000,246.200,55.670,12.520,353.000,94.120,25.160,8.215,486.400,130.500,37.710,11.210,hard
1267.000,279.500,61.110,13.940,1324.000,245.800,55.450,12.500,352.800,92.830,24.950,8.107,482.000,129.600,37.510,11.160,hard
1265.000,280.000,60.840,13.880,1326.000,245.300,55.540,12.490,350.200,93.220,24.940,8.145,483.600,129.600,37.580,11.190,hard
1265.000,278.900,61.220,13.940,1324.000,245.400,55.690,12.520,348.300,93.500,25.010,8.160,485.200,130.800,37.740,11.280,hard
1266.000,278.600,61.330,13.980,1324.000,245.500,55.410,12.520,351.700,93.620,25.110,8.169,487.500,130.800,37.870,11.320,hard
1268.000,279.000,61.590,14.010,1324.000,245.500,55.550,12.540,351.200,93.500,25.130,8.197,487.400,131.700,38.170,11.390,hard
1271.000,281.200,62.070,14.100,1324.000,246.500,55.550,12.530,351.400,93.940,25.220,8.232,491.300,132.400,38.540,11.510,hard
1276.000,282.600,62.100,14.200,1329.000,246.700,55.590,12.520,353.800,93.890,25.270,8.253,491.900,131.600,38.120,11.310,hard
1269.000,279.600,61.690,14.020,1324.000,245.300,55.460,12.530,350.000,92.830,24.950,8.112,482.100,129.600,37.540,11.190,hard
1264.000,278.600,61.420,14.010,1321.000,245.000,55.420,12.470,349.800,93.130,24.950,8.151,482.500,129.600,37.620,11.190,hard
1262.000,278.900,61.510,13.980,1325.000,245.200,55.460,12.480,349.500,92.950,25.080,8.160,484.500,130.600,37.760,11.310,hard
1264.000,278.300,61.440,14.020,1323.000,244.900,55.390,12.460,351.900,93.270,25.040,8.188,485.500,130.900,37.880,11.310,hard
1264.000,280.400,61.170,14.030,1323.000,245.400,55.450,12.530,353.000,93.210,25.150,8.215,487.200,131.500,38.090,11.400,hard
1268.000,281.200,61.950,14.110,1325.000,246.100,55.550,12.550,349.900,93.870,25.290,8.229,491.700,132.300,38.510,11.460,hard
1272.000,282.000,62.110,14.220,1329.000,245.700,55.830,12.570,356.100,94.160,25.230,8.240,493.300,133.000,38.810,11.570,hard
1273.000,281.500,62.200,14.080,1326.000,244.900,55.400,12.460,352.700,94.030,25.190,8.190,484.900,130.100,37.910,11.270,hard
1262.000,279.100,61.650,14.050,1321.000,245.100,55.450,12.460,349.800,93.220,25.010,8.173,483.500,130.300,37.750,11.270,hard
1262.000,278.400,61.520,14.000,1323.000,244.700,55.500,12.460,352.100,93.590,25.090,8.166,485.200,130.800,37.800,11.310,hard
1263.000,278.900,61.600,14.070,1325.000,245.400,55.480,12.470,354.200,93.600,25.210,8.198,486.600,131.200,38.100,11.350,hard
1265.000,279.500,61.710,14.080,1322.000,245.000,55.510,12.520,351.800,93.760,25.120,8.209,488.800,131.600,38.310,11.380,hard
1267.000,279.800,61.810,14.130,1326.000,245.700,55.610,12.520,352.200,94.290,25.310,8.242,490.200,132.200,38.530,11.510,hard
1271.000,281.400,62.310,14.220,1327.000,245.900,55.870,12.510,354.300,94.220,25.320,8.251,493.300,133.700,38.800,11.590,hard
1274.000,281.400,62.530,14.230,1331.000,245.700,55.560,12.480,356.200,94.680,25.360,8.241,488.300,131.600,37.970,11.350,hard
1265.000,280.400,61.570,14.060,1327.000,244.900,55.680,12.450,352.700,93.500,25.090,8.150,485.600,130.500,37.750,11.330,hard
1264.000,280.000,61.640,14.050,1325.000,245.500,55.480,12.480,352.700,93.410,25.150,8.169,485.700,130.400,37.970,11.310,hard
1264.000,279.100,61.660,14.100,1326.000,246.000,55.500,12.460,352.900,93.900,25.170,8.211,488.000,131.600,38.090,11.400,hard
1265.000,280.200,61.970,14.150,1329.000,245.900,55.600,12.490,351.300,93.910,25.210,8.229,489.400,131.600,38.230,11.440,hard
1266.000,279.700,62.170,14.170,1325.000,245.900,55.560,12.510,356.000,94.020,25.280,8.244,489.900,132.100,38.370,11.510,hard
1271.000,281.100,62.680,14.230,1328.000,246.700,55.680,12.520,353.600,94.350,25.280,8.262,494.000,133.100,38.810,11.600,hard
1275.000,282.500,62.440,14.260,1335.000,247.000,55.660,12.500,355.900,94.740,25.410,8.246,488.700,131.300,38.000,11.340,hard
1265.000,279.800,61.880,14.080,1327.000,246.100,55.580,12.480,349.200,93.900,25.030,8.168,483.000,130.100,37.750,11.280,hard
1263.000,279.200,61.790,14.080,1327.000,245.800,55.540,12.510,351.400,93.580,25.070,8.168,484.100,130.100,37.920,11.320,hard
1263.000,278.900,61.670,14.160,1327.000,245.800,55.690,12.480,353.900,93.580,25.070,8.208,488.100,131.200,38.000,11.380,hard
1266.000,280.100,62.010,14.150,1327.000,246.300,55.680,12.470,351.900,94.070,25.220,8.207,487.800,131.400,38.240,11.420,hard
1267.000,280.700,61.830,14.180,1329.000,246.300,55.750,12.530,350.000,93.750,25.310,8.231,490.100,132.000,38.590,11.500,hard
1270.000,281.500,62.140,14.260,1330.000,247.200,55.860,12.540,357.200,94.260,25.330,8.253,492.600,133.300,38.650,11.610,hard
1274.000,283.700,62.410,14.290,1332.000,246.200,55.810,12.530,353.600,94.690,25.290,8.233,487.800,130.800,37.890,11.320,hard
1263.000,279.300,61.750,14.070,1329.000,246.300,55.570,12.470,352.400,93.610,25.030,8.173,482.900,130.300,37.700,11.320,hard
1262.000,278.600,61.700,14.060,1327.000,246.100,55.640,12.510,352.500,93.720,25.090,8.178,483.100,130.300,37.960,11.360,hard
1262.000,279.200,61.890,14.140,1330.000,246.600,55.730,12.550,352.800,93.860,25.210,8.198,485.500,131.300,38.020,11.370,hard
1264.000,280.000,62.120,14.110,1328.000,246.200,55.750,12.540,352.700,94.080,25.210,8.208,486.500,131.500,38.170,11.420,hard
1265.000,279.700,62.010,14.220,1329.000,247.100,56.030,12.560,352.100,93.980,25.300,8.224,488.500,132.100,38.530,11.480,hard
1268.000,281.800,62.290,14.270,1337.000,247.000,55.920,12.600,354.600,94.320,25.330,8.257,491.700,133.000,38.670,11.590,hard
1272.000,280.400,62.280,14.240,1332.000,247.600,55.910,12.510,355.500,93.930,25.260,8.202,483.500,130.100,37.770,11.290,hard
1263.000,278.300,61.820,14.110,1329.000,246.800,55.930,12.520,352.400,93.220,25.100,8.153,481.100,130.200,37.810,11.290,hard
1261.000,280.700,61.530,14.090,1327.000,246.700,55.970,12.520,353.100,93.730,25.130,8.171,483.700,130.700,37.770,11.330,hard
1262.000,278.900,61.700,14.150,1331.000,247.400,56.000,12.580,355.600,93.950,25.220,8.189,483.900,130.800,37.970,11.350,hard
1264.000,280.900,61.950,14.160,1332.000,247.200,55.950,12.540,353.500,94.370,25.210,8.203,485.200,131.300,38.010,11.410,hard
1266.000,280.800,62.180,14.220,1334.000,247.800,56.070,12.590,352.700,94.010,25.290,8.203,488.700,131.500,38.450,11.470,hard
1269.000,283.300,62.540,14.320,1333.000,248.700,56.120,12.610,352.800,94.740,25.320,8.250,490.300,132.800,38.590,11.560,hard
1273.000,282.900,62.590,14.250,1333.000,247.500,55.950,12.550,355.100,94.510,25.260,8.204,483.700,130.300,37.810,11.270,hard
1264.000,279.100,61.820,14.100,1331.000,246.700,56.000,12.560,349.500,93.140,25.000,8.140,481.100,129.700,37.690,11.260,hard
1262.000,279.400,61.820,14.080,1328.000,246.700,55.890,12.570,350.600,93.430,25.010,8.166,482.600,130.300,37.850,11.310,hard
1264.000,279.800,62.190,14.170,1327.000,247.600,56.100,12.610,353.500,93.950,25.180,8.210,484.500,130.700,37.980,11.330,hard
1266.000,280.400,62.210,14.210,1333.000,247.900,56.030,12.610,353.900,93.770,25.150,8.194,484.600,131.100,38.080,11.380,hard
1267.000,280.200,62.330,14.200,1333.000,248.400,55.980,12.620,352.600,94.080,25.140,8.222,485.600,131.500,38.150,11.440,hard
1270.000,282.300,62.540,14.360,1333.000,247.900,56.160,12.640,356.300,94.210,25.250,8.209,488.000,132.000,38.380,11.500,hard
1274.000,282.600,62.860,14.350,1339.000,248.800,56.170,12.600,353.400,94.080,25.350,8.210,487.400,131.100,37.930,11.300,hard
1267.000,280.300,62.180,14.180,1332.000,247.400,56.020,12.600,347.800,93.400,24.980,8.138,480.600,129.800,37.610,11.260,hard
1264.000,281.000,62.000,14.140,1332.000,247.800,56.140,12.560,351.800,93.360,25.090,8.152,481.900,129.900,37.650,11.280,hard
1263.000,280.700,62.120,14.150,1335.000,248.000,56.020,12.610,353.000,93.650,25.140,8.179,485.100,130.600,37.920,11.360,hard
1266.000,280.500,62.010,14.230,1336.000,248.000,56.280,12.620,351.000,94.150,25.230,8.205,485.000,131.100,38.050,11.390,hard
1267.000,280.200,62.440,14.260,1334.000,248.100,56.190,12.620,350.600,94.000,25.310,8.227,487.100,131.700,38.350,11.460,hard
1270.000,282.300,62.330,14.250,1337.000,248.200,56.230,12.630,355.900,94.390,25.290,8.255,489.600,132.500,38.570,11.540,hard
1275.000,282.900,62.790,14.400,1336.000,249.300,56.320,12.650,354.200,94.690,25.350,8.248,491.000,132.300,38.400,11.410,hard
1269.000,281.900,62.420,14.200,1338.000,247.700,56.220,12.610,351.800,93.830,25.100,8.163,482.800,130.200,37.760,11.300,hard
1266.000,279.900,62.220,14.190,1334.000,247.100,56.250,12.580,351.400,93.320,25.120,8.168,483.200,130.200,37.860,11.290,hard
1265.000,280.500,61.990,14.230,1333.000,248.200,56.260,12.600,351.600,94.030,25.170,8.182,484.000,130.700,38.060,11.400,hard
1267.000,281.100,62.140,14.270,1337.000,248.600,56.290,12.630,354.900,93.970,25.240,8.203,485.400,131.100,38.160,11.390,hard
1270.000,282.000,62.410,14.280,1338.000,248.700,56.350,12.660,355.800,93.830,25.310,8.209,487.800,131.600,38.250,11.490,hard
1272.000,282.900,62.580,14.300,1337.000,248.400,56.290,12.660,354.000,94.670,25.290,8.225,490.800,132.700,38.580,11.600,hard
1275.000,282.600,62.840,14.390,1337.000,248.400,56.350,12.690,354.800,95.090,25.360,8.258,490.200,131.700,38.190,11.420,hard
1269.000,280.200,62.460,14.230,1332.000,247.900,56.320,12.650,351.800,94.000,25.100,8.179,482.700,129.900,37.740,11.270,hard
1267.000,281.800,62.200,14.160,1335.000,247.600,56.100,12.600,352.200,93.960,25.090,8.163,482.800,130.000,37.700,11.310,hard
1266.000,281.200,62.340,14.220,1334.000,248.800,56.270,12.640,353.900,93.840,25.170,8.193,485.400,131.200,38.030,11.350,hard
1268.000,281.300,62.340,14.250,1334.000,248.100,56.270,12.660,355.600,94.340,25.210,8.212,484.800,131.100,38.020,11.370,hard
1269.000,281.800,62.560,14.260,1338.000,248.200,56.280,12.660,351.200,94.120,25.220,8.194,485.100,131.100,38.090,11.420,hard
1272.000,283.300,62.490,14.310,1339.000,248.100,56.350,12.650,353.400,94.310,25.250,8.198,488.200,131.900,38.370,11.470,hard
1275.000,282.700,62.760,14.350,1340.000,248.400,56.520,12.640,354.500,94.450,25.250,8.191,486.700,130.500,37.880,11.270,hard
1270.000,282.100,62.330,14.210,1335.000,247.800,56.070,12.590,352.500,93.410,24.950,8.135,479.200,129.100,37.460,11.140,hard
1266.000,279.500,61.850,14.180,1335.000,247.800,56.210,12.600,351.100,93.530,24.960,8.131,480.400,129.300,37.560,11.180,hard
1265.000,280.900,62.020,14.150,1332.000,247.400,56.010,12.600,354.800,93.640,25.060,8.148,482.800,130.200,37.760,11.270,hard
1265.000,281.200,62.440,14.200,1332.000,247.200,56.000,12.630,352.900,93.950,25.140,8.167,483.900,130.100,37.910,11.370,hard
1266.000,281.100,62.420,14.210,1331.000,248.000,56.130,12.650,352.500,93.800,25.210,8.213,484.500,131.500,38.240,11.390,hard
1269.000,282.100,62.500,14.320,1336.000,247.700,56.220,12.650,355.800,94.280,25.260,8.218,490.000,132.100,38.460,11.510,hard
1273.000,282.100,63.100,14.350,1335.000,248.300,56.160,12.660,356.300,94.870,25.340,8.247,487.300,131.200,37.870,11.300,hard
1265.000,280.500,62.270,14.190,1333.000,247.200,56.120,12.590,351.900,93.750,25.150,8.154,481.600,129.900,37.580,11.210,hard
1263.000,279.800,62.250,14.160,1330.000,247.500,56.000,12.630,351.300,93.780,25.070,8.168,481.500,129.800,37.610,11.250,hard
1264.000,281.100,62.130,14.170,1331.000,248.300,56.020,12.630,351.100,93.680,25.170,8.184,484.600,130.500,37.850,11.340,hard
1265.000,281.200,61.810,14.240,1332.000,247.800,56.210,12.680,352.800,94.390,25.210,8.200,484.400,130.600,37.930,11.320,hard
1268.000,282.600,62.310,14.290,1334.000,247.900,56.200,12.670,353.300,93.850,25.210,8.207,485.200,131.400,38.070,11.420,hard
1270.000,283.000,62.780,14.330,1333.000,247.400,56.380,12.690,356.700,94.540,25.350,8.231,489.100,132.000,38.540,11.530,hard
1273.000,284.500,62.730,14.400,1338.000,247.500,56.260,12.680,356.000,94.600,25.330,8.206,485.000,130.200,37.770,11.240,hard
1265.000,280.900,61.880,14.130,1333.000,247.200,56.090,12.600,350.100,93.520,25.030,8.148,480.000,129.300,37.510,11.210,hard
1262.000,279.800,61.820,14.120,1328.000,246.900,55.890,12.590,352.600,93.650,25.060,8.139,481.900,129.700,37.590,11.230,hard
1263.000,280.200,62.400,14.220,1332.000,247.100,56.020,12.630,352.400,93.830,25.070,8.163,484.200,130.300,37.900,11.290,hard
1265.000,282.400,62.140,14.260,1330.000,247.400,55.980,12.640,352.900,94.040,25.080,8.182,485.000,130.500,37.970,11.360,hard
1266.000,280.900,62.430,14.280,1330.000,246.700,56.100,12.660,353.400,93.780,25.180,8.176,487.200,130.800,38.060,11.460,hard
1270.000,281.600,62.500,14.370,1334.000,247.800,56.130,12.680,352.700,94.420,25.300,8.222,489.400,132.200,38.410,11.510,hard
1274.000,282.500,62.910,14.390,1332.000,247.800,55.930,12.630,354.400,94.470,25.210,8.185,485.100,130.200,37.650,11.190,hard
1264.000,279.800,62.030,14.180,1330.000,246.300,56.030,12.560,351.300,93.380,25.020,8.108,478.700,128.800,37.350,11.150,hard
1262.000,280.000,61.710,14.180,1327.000,246.300,56.070,12.560,352.700,93.350,24.950,8.116,478.200,128.800,37.360,11.160,hard
1262.000,280.700,61.690,14.120,1322.000,244.900,55.350,12.410,350.600,93.120,24.850,8.056,478.700,128.500,37.120,11.070,hard
1254.000,277.600,61.280,13.990,1316.000,243.000,55.000,12.350,350.600,92.850,24.700,7.989,479.300,128.200,37.110,11.030,hard
1250.000,276.300,61.200,13.980,1312.000,242.700,54.910,12.320,350.200,93.050,24.680,8.014,479.700,128.700,37.340,11.130,hard
1250.000,277.400,61.450,13.980,1314.000,242.300,54.960,12.360,351.000,93.280,24.780,8.061,483.000,129.900,37.620,11.240,hard
1252.000,277.000,61.570,14.050,1316.000,242.700,54.830,12.380,353.300,93.570,24.920,8.064,482.300,128.700,37.220,11.080,hard
1247.000,276.500,60.920,13.930,1315.000,243.100,54.920,12.320,352.300,92.640,24.690,8.000,476.300,127.800,36.940,11.040,hard
1246.000,275.300,61.180,13.890,1310.000,243.100,55.020,12.370,351.300,92.520,24.800,8.062,478.000,128.400,37.190,11.070,hard
1245.000,275.100,60.910,13.940,1314.000,243.600,55.230,12.400,349.100,93.420,24.920,8.103,481.100,129.300,37.450,11.210,hard
1248.000,276.500,61.390,13.990,1315.000,244.100,55.200,12.470,353.100,93.840,25.050,8.135,483.000,129.800,37.630,11.250,hard
1250.000,277.800,61.240,14.080,1317.000,245.000,55.300,12.480,355.400,93.510,25.110,8.165,484.700,130.100,37.720,11.330,hard
1253.000,278.600,61.740,14.160,1320.000,244.500,55.490,12.530,355.000,94.030,25.210,8.197,486.900,131.400,38.120,11.420,hard
1257.000,278.800,61.620,14.130,1321.000,244.500,55.550,12.480,355.500,94.350,25.180,8.164,483.100,129.300,37.310,11.110,hard
1250.000,277.800,61.060,13.950,1318.000,245.300,55.440,12.450,348.000,93.590,24.920,8.103,478.500,128.400,37.120,11.090,hard
1248.000,277.700,61.040,13.960,1318.000,244.400,55.530,12.480,352.700,93.700,24.930,8.136,477.300,128.500,37.210,11.100,hard
1248.000,276.500,61.200,13.990,1322.000,245.000,55.500,12.540,351.600,93.720,25.060,8.145,481.200,129.300,37.410,11.180,hard
1250.000,278.800,61.620,14.040,1322.000,244.800,55.550,12.560,351.600,93.790,25.110,8.155,481.300,129.600,37.350,11.190,hard
1252.000,278.100,61.610,14.050,1319.000,245.400,55.610,12.570,351.700,94.040,25.170,8.176,483.300,130.300,37.650,11.300,hard
1254.000,279.400,61.880,14.170,1324.000,245.700,55.720,12.570,353.700,94.570,25.300,8.208,485.900,131.000,38.000,11.380,hard
1257.000,279.100,61.790,14.130,1320.000,245.000,55.640,12.510,352.000,94.480,25.100,8.153,477.900,128.300,37.090,11.050,hard
1248.000,276.600,61.160,13.940,1320.000,244.500,55.390,12.510,351.500,93.110,24.900,8.093,475.000,127.400,36.820,11.010,hard
1248.000,277.200,60.900,13.880,1315.000,244.200,55.390,12.460,351.600,92.770,24.860,8.039,474.200,127.200,36.790,10.970,hard
1246.000,274.600,60.700,13.850,1317.000,243.000,55.180,12.400,351.400,92.980,24.840,8.061,474.600,127.500,36.780,10.970,hard
1243.000,275.200,60.640,13.900,1312.000,242.600,55.030,12.410,351.400,92.840,24.840,8.058,475.400,127.900,36.990,11.040,hard
1242.000,275.600,60.740,13.870,1308.000,242.500,55.200,12.410,353.600,93.420,24.950,8.079,477.800,128.700,37.150,11.090,hard
1244.000,276.500,60.920,13.950,1310.000,242.800,55.140,12.420,350.500,93.930,25.020,8.124,480.800,129.100,37.470,11.190,hard
1247.000,277.400,61.080,13.950,1311.000,243.500,55.030,12.420,353.300,93.730,25.040,8.116,476.100,127.800,36.830,10.960,hard
1240.000,273.800,60.790,13.780,1309.000,243.200,55.000,12.380,348.700,92.780,24.850,8.063,474.300,127.000,36.740,10.930,hard
1239.000,274.100,60.570,13.740,1309.000,243.300,55.030,12.440,351.500,93.150,24.950,8.109,474.100,127.400,36.900,11.010,hard
1238.000,275.200,60.840,13.860,1311.000,243.500,55.480,12.460,351.800,93.580,24.990,8.136,477.800,128.500,37.070,11.060,hard
1242.000,276.000,60.830,13.900,1313.000,243.700,55.260,12.480,351.100,94.030,25.170,8.179,478.900,128.800,37.280,11.120,hard
1244.000,276.500,61.100,13.900,1316.000,244.300,55.450,12.490,354.900,93.850,25.160,8.180,480.900,129.200,37.580,11.210,hard
1248.000,276.900,61.400,14.020,1313.000,244.600,55.590,12.530,351.600,94.420,25.290,8.218,484.200,130.700,37.800,11.300,hard
1252.000,278.700,61.380,14.010,1319.000,244.900,55.520,12.470,354.700,94.470,25.240,8.195,478.000,128.000,37.090,11.030,hard
1244.000,276.600,60.890,13.900,1317.000,244.000,55.300,12.480,350.400,93.190,24.920,8.141,476.200,127.400,37.020,10.990,hard
1243.000,275.300,60.880,13.870,1318.000,243.700,55.570,12.500,351.300,93.630,24.970,8.131,475.800,127.800,37.060,11.020,hard
1244.000,276.000,60.410,13.890,1317.000,244.300,55.450,12.520,351.000,93.830,25.080,8.148,477.100,128.300,37.110,11.060,hard
1245.000,277.000,61.000,13.930,1317.000,243.900,55.620,12.570,352.700,94.020,25.130,8.182,476.800,128.400,37.260,11.090,hard
1247.000,278.100,61.160,13.960,1319.000,244.500,55.570,12.540,350.900,94.200,25.210,8.177,480.400,129.000,37.350,11.190,hard
1251.000,278.800,61.540,14.030,1323.000,244.500,55.740,12.570,354.200,94.380,25.240,8.213,482.300,129.700,37.710,11.300,hard
1252.000,277.100,61.760,14.010,1322.000,245.200,55.570,12.540,353.800,94.640,25.300,8.182,476.500,127.800,36.920,10.980,hard
1245.000,276.800,61.160,13.870,1320.000,244.800,55.420,12.510,352.200,93.170,24.950,8.096,473.700,127.100,36.820,10.970,hard
1242.000,275.200,60.770,13.840,1318.000,244.300,55.530,12.510,349.900,93.330,25.050,8.117,473.400,127.000,36.800,10.990,hard
1243.000,275.800,60.690,13.890,1313.000,244.300,55.460,12.510,348.300,93.510,25.040,8.127,474.300,127.800,36.950,11.050,hard
1245.000,276.800,60.910,13.930,1317.000,244.300,55.510,12.510,350.400,93.770,25.000,8.157,475.900,128.100,37.270,11.070,hard
1246.000,277.900,61.130,13.920,1319.000,245.100,55.580,12.530,355.000,94.200,25.150,8.183,478.900,129.200,37.270,11.160,hard
1249.000,278.400,61.120,13.990,1319.000,245.000,55.720,12.550,351.300,93.830,25.300,8.197,481.300,129.600,37.630,11.280,hard
1252.000,279.000,61.240,14.040,1321.000,245.100,55.600,12.530,351.100,94.260,25.240,8.218,478.700,128.300,36.980,10.990,hard
1245.000,276.700,60.880,13.820,1317.000,244.200,55.340,12.500,348.900,93.390,24.940,8.126,473.800,126.900,36.720,10.950,hard
1242.000,274.700,60.510,13.740,1316.000,244.400,55.510,12.510,350.400,93.790,24.980,8.128,472.900,127.100,36.790,10.970,hard
1242.000,275.400,60.590,13.830,1318.000,244.400,55.560,12.550,350.600,93.530,25.080,8.178,475.800,127.900,37.020,11.010,hard
1243.000,276.700,61.040,13.910,1315.000,244.400,55.410,12.500,352.600,93.610,25.110,8.174,476.600,128.100,37.140,11.050,hard
1243.000,275.300,60.920,13.890,1316.000,244.200,55.720,12.540,352.500,94.310,25.250,8.206,477.900,128.500,37.330,11.130,hard
1246.000,276.900,61.040,13.980,1320.000,244.700,55.770,12.610,352.100,94.360,25.330,8.215,480.600,129.500,37.450,11.220,hard
1250.000,276.800,61.470,14.040,1319.000,244.900,55.740,12.520,355.000,94.600,25.380,8.233,479.400,128.300,37.060,11.000,hard
1244.000,275.100,60.580,13.860,1315.000,244.000,55.460,12.530,351.300,93.450,25.090,8.153,472.300,127.000,36.610,10.940,hard
1241.000,274.800,60.310,13.810,1314.000,243.800,55.510,12.500,349.500,93.770,25.110,8.173,473.600,127.000,36.700,10.960,hard
1241.000,275.200,60.750,13.810,1316.000,244.100,55.540,12.520,351.500,93.970,25.160,8.198,476.100,128.000,37.080,11.000,hard
1242.000,276.400,60.780,13.880,1315.000,243.800,55.560,12.550,355.200,94.320,25.260,8.230,476.200,128.200,37.200,11.060,hard
1243.000,275.400,61.030,13.920,1318.000,244.400,55.540,12.560,348.200,94.850,25.280,8.222,477.800,128.800,37.350,11.140,hard
1245.000,276.800,61.200,13.960,1317.000,244.700,55.790,12.590,353.900,94.750,25.340,8.245,480.600,129.600,37.630,11.210,hard
1250.000,277.600,61.410,14.000,1325.000,245.300,55.670,12.570,353.500,94.820,25.430,8.280,482.100,129.100,37.220,11.070,hard
1246.000,276.600,60.840,13.810,1317.000,243.800,55.540,12.560,352.500,93.780,25.170,8.155,472.200,127.100,36.760,10.920,hard
1241.000,275.700,60.620,13.750,1319.000,244.200,55.380,12.540,348.500,93.640,25.150,8.156,472.800,127.200,36.750,10.950,hard
1240.000,275.400,60.550,13.800,1316.000,244.700,55.520,12.560,351.000,93.670,25.140,8.182,474.900,127.600,37.070,11.010,hard
1242.000,275.300,60.690,13.850,1318.000,244.500,55.460,12.560,351.300,94.030,25.250,8.218,475.100,128.100,37.090,11.040,hard
1243.000,275.000,60.790,13.830,1316.000,244.000,55.580,12.570,350.900,94.300,25.240,8.210,476.800,128.900,37.240,11.100,hard
1245.000,276.500,60.930,13.930,1317.000,244.800,55.820,12.560,353.400,94.770,25.230,8.213,480.800,129.200,37.460,11.170,hard
1249.000,278.700,61.140,14.010,1315.000,244.400,55.720,12.560,355.800,94.290,25.440,8.252,483.100,129.800,37.420,11.160,hard
1247.000,275.600,60.950,13.820,1320.000,244.400,55.480,12.520,351.200,93.910,25.150,8.175,472.600,126.900,36.660,10.940,hard
1240.000,275.800,60.520,13.770,1318.000,243.300,55.340,12.480,350.900,93.910,25.080,8.148,471.400,126.500,36.690,10.930,hard
1238.000,273.600,59.980,13.730,1319.000,243.300,55.440,12.470,354.300,93.710,25.150,8.164,473.500,127.100,36.830,10.970,hard
1239.000,274.500,60.450,13.760,1314.000,243.400,55.540,12.530,353.700,93.750,25.230,8.196,475.600,127.700,36.910,10.990,hard
1240.000,275.000,60.570,13.810,1315.000,243.700,55.540,12.500,351.700,93.990,25.140,8.202,476.400,128.200,37.080,11.070,hard
1241.000,274.800,60.810,13.840,1314.000,243.400,55.470,12.550,355.000,94.590,25.380,8.234,478.900,128.900,37.320,11.190,hard
1244.000,276.600,60.980,13.910,1321.000,244.300,55.430,12.560,354.600,94.590,25.340,8.284,481.000,129.600,37.590,11.200,hard
1246.000,275.300,60.750,13.810,1319.000,243.900,55.440,12.510,355.800,94.270,25.240,8.208,473.900,127.100,36.720,10.930,hard
1238.000,275.300,60.230,13.770,1314.000,243.600,55.520,12.480,350.100,93.740,25.080,8.161,471.900,126.700,36.560,10.920,hard
1237.000,274.700,59.840,13.710,1312.000,243.700,55.360,12.490,352.200,94.170,25.200,8.183,473.500,127.100,36.730,10.990,hard
1237.000,274.500,60.390,13.750,1315.000,243.600,55.600,12.490,350.400,94.190,25.160,8.202,475.000,127.700,37.000,11.000,hard
1238.000,275.000,60.420,13.770,1314.000,243.300,55.630,12.510,354.700,94.190,25.250,8.217,477.500,128.200,37.070,11.060,hard
1240.000,275.100,60.660,13.810,1311.000,244.100,55.570,12.520,350.300,94.310,25.350,8.261,478.800,128.700,37.230,11.120,hard
1242.000,276.700,60.790,13.910,1316.000,244.200,55.650,12.570,350.200,94.290,25.370,8.284,481.300,129.700,37.560,11.240,hard
1245.000,276.300,60.920,13.820,1316.000,243.700,55.590,12.540,354.900,94.670,25.290,8.223,473.800,127.100,36.730,10.930,hard
1237.000,274.000,60.380,13.710,1315.000,243.500,55.460,12.500,350.000,94.160,25.100,8.180,472.400,127.000,36.710,10.900,hard
1235.000,273.300,60.100,13.680,1312.000,243.200,55.370,12.510,350.900,93.920,25.230,8.179,473.000,126.900,36.700,10.930,hard
1236.000,273.600,60.270,13.750,1314.000,244.300,55.420,12.490,351.000,93.850,25.260,8.211,475.400,127.600,36.990,10.990,hard
1237.000,273.900,60.680,13.750,1315.000,244.300,55.370,12.550,351.100,94.160,25.280,8.225,475.100,127.700,37.030,11.060,hard
1239.000,275.000,60.600,13.800,1315.000,244.200,55.350,12.590,352.200,94.530,25.370,8.230,475.900,128.600,37.230,11.130,hard
1242.000,275.800,60.980,13.900,1314.000,245.000,55.660,12.560,353.300,94.390,25.440,8.287,480.300,129.600,37.570,11.220,hard
1245.000,277.200,60.840,13.860,1321.000,244.200,55.500,12.530,353.300,95.150,25.450,8.259,476.000,127.700,36.840,10.960,hard
1238.000,274.100,60.110,13.700,1317.000,243.500,55.440,12.520,350.900,94.090,25.150,8.198,471.600,126.800,36.620,10.950,hard
1235.000,273.800,60.210,13.700,1314.000,243.600,55.530,12.500,352.600,94.000,25.130,8.212,472.200,127.000,36.700,10.930,hard
1236.000,273.900,60.260,13.740,1314.000,243.400,55.450,12.510,349.800,94.410,25.240,8.214,474.000,127.700,36.890,10.980,hard
1237.000,274.900,60.180,13.730,1313.000,244.100,55.550,12.550,350.100,93.930,25.280,8.225,474.800,127.600,36.820,10.970,hard
1239.000,275.000,60.490,13.770,1317.000,244.100,55.430,12.570,352.100,93.850,25.200,8.202,475.700,127.500,37.000,11.020,hard
1243.000,276.100,60.910,13.810,1317.000,245.000,55.560,12.560,354.000,94.460,25.290,8.230,478.900,128.300,37.260,11.120,hard
1245.000,275.700,60.820,13.870,1319.000,244.900,55.610,12.570,354.500,94.690,25.310,8.267,480.200,128.700,37.150,11.000,hard
1241.000,274.100,60.810,13.700,1315.000,243.700,55.410,12.470,350.900,93.440,25.030,8.168,470.900,126.300,36.590,10.850,hard
1235.000,273.800,60.220,13.680,1311.000,242.900,55.350,12.490,351.800,93.450,25.090,8.166,471.800,126.500,36.570,10.870,hard
1233.000,273.300,60.050,13.650,1312.000,243.700,55.440,12.520,349.000,94.150,25.180,8.205,473.300,127.000,36.730,10.970,hard
1236.000,274.200,60.370,13.680,1314.000,244.100,55.550,12.500,352.100,93.970,25.210,8.212,473.600,127.300,36.860,11.010,hard
1237.000,275.100,60.090,13.750,1311.000,243.900,55.480,12.510,353.400,94.040,25.290,8.227,476.200,128.400,37.020,11.030,hard
1238.000,275.300,60.700,13.750,1319.000,243.600,55.640,12.560,353.700,94.500,25.300,8.278,478.400,128.700,37.330,11.140,hard
1243.000,276.200,60.710,13.860,1317.000,244.800,55.770,12.580,355.300,94.710,25.370,8.262,480.800,129.200,37.250,11.050,hard
1240.000,273.400,60.500,13.740,1316.000,244.000,55.510,12.550,352.700,94.080,25.190,8.196,470.500,126.300,36.600,10.850,hard
1234.000,273.300,60.220,13.620,1316.000,243.200,55.350,12.490,350.600,93.850,25.030,8.171,471.200,126.600,36.560,10.870,hard
1232.000,274.300,59.940,13.670,1312.000,243.700,55.390,12.550,351.000,93.560,25.140,8.187,472.900,127.100,36.610,10.920,hard
1233.000,272.700,60.420,13.740,1312.000,244.100,55.530,12.540,347.900,93.920,25.220,8.213,473.800,126.700,36.680,10.940,hard
1235.000,273.600,60.510,13.720,1311.000,243.600,55.430,12.520,351.800,94.520,25.330,8.215,474.600,127.400,36.810,10.980,hard
1237.000,274.200,60.620,13.760,1318.000,244.400,55.600,12.540,352.100,94.060,25.280,8.242,475.400,128.200,37.230,11.050,hard
1240.000,275.900,60.740,13.850,1313.000,243.900,55.650,12.550,350.300,94.570,25.410,8.264,478.400,128.700,37.100,11.040,hard
1238.000,274.700,60.520,13.660,1314.000,243.500,55.400,12.510,352.500,93.580,25.170,8.171,468.900,125.700,36.420,10.810,hard
1232.000,273.000,60.040,13.650,1313.000,243.100,55.340,12.500,352.100,93.320,24.980,8.156,467.700,126.000,36.310,10.790,hard
1231.000,271.900,59.910,13.610,1311.000,243.300,55.420,12.500,350.200,93.570,25.040,8.176,470.700,126.300,36.340,10.870,hard
1233.000,272.600,59.940,13.670,1313.000,243.000,55.420,12.510,350.400,93.870,25.140,8.188,470.700,126.800,36.550,10.890,hard
1233.000,273.300,60.170,13.630,1313.000,243.500,55.530,12.560,349.900,94.080,25.160,8.204,472.000,127.400,36.770,10.970,hard
1234.000,273.800,60.520,13.680,1314.000,244.200,55.600,12.570,350.400,94.090,25.280,8.220,475.600,128.000,37.160,11.040,hard
1238.000,274.200,60.680,13.800,1316.000,244.800,55.840,12.570,351.700,94.660,25.360,8.261,477.700,128.600,37.160,11.060,hard
1238.000,274.300,60.360,13.660,1316.000,244.300,55.490,12.520,349.700,93.940,25.150,8.195,469.500,126.100,36.310,10.790,hard
1231.000,273.000,60.150,13.600,1311.000,243.800,55.490,12.490,352.200,93.940,25.030,8.176,469.300,126.000,36.320,10.820,hard
1229.000,271.600,59.970,13.580,1312.000,243.700,55.590,12.520,349.800,93.680,25.130,8.185,470.700,126.500,36.340,10.900,hard
1231.000,273.200,60.120,13.640,1312.000,243.800,55.490,12.550,351.800,94.230,25.200,8.233,471.700,126.600,36.650,10.880,hard
1233.000,273.300,59.960,13.650,1315.000,244.500,55.520,12.570,353.200,93.920,25.290,8.223,473.300,127.100,36.730,10.940,hard
1235.000,273.800,60.490,13.730,1316.000,244.100,55.720,12.530,351.200,94.200,25.300,8.257,475.900,128.000,37.030,11.030,hard
1238.000,275.200,60.500,13.780,1318.000,244.600,55.770,12.620,355.100,94.760,25.340,8.258,477.100,129.100,37.160,11.100,hard
1240.000,275.900,60.660,13.690,1316.000,244.500,55.640,12.550,351.600,94.320,25.270,8.209,469.300,126.000,36.320,10.830,hard
1231.000,273.300,59.920,13.590,1316.000,243.300,55.470,12.510,351.700,93.460,25.100,8.167,467.600,126.100,36.240,10.790,hard
1230.000,272.300,59.830,13.550,1315.000,243.600,55.460,12.500,352.600,93.480,25.060,8.185,469.600,126.100,36.360,10.870,hard
1231.000,273.500,60.270,13.620,1314.000,243.900,55.470,12.550,350.800,94.030,25.190,8.208,470.900,126.600,36.500,10.910,hard
1232.000,273.000,60.340,13.690,1317.000,244.100,55.710,12.570,352.500,94.160,25.220,8.212,471.900,127.000,36.770,10.930,hard
1234.000,273.300,60.350,13.670,1314.000,243.900,55.660,12.580,350.800,94.040,25.300,8.245,474.200,127.600,36.910,11.030,hard
1237.000,276.200,60.510,13.740,1315.000,244.700,55.920,12.600,352.800,94.440,25.370,8.279,477.000,128.500,37.170,11.120,hard
1240.000,274.400,60.670,13.800,1317.000,243.900,55.810,12.550,352.700,94.830,25.380,8.272,474.300,127.000,36.480,10.880,hard
1232.000,273.600,59.980,13.640,1314.000,243.600,55.550,12.520,351.600,93.590,25.090,8.172,469.000,125.700,36.240,10.800,hard
1229.000,272.100,59.910,13.520,1313.000,243.600,55.330,12.510,351.800,93.620,25.100,8.156,468.400,125.900,36.290,10.810,hard
1228.000,272.600,60.000,13.550,1311.000,243.800,55.490,12.540,352.100,93.840,25.210,8.210,471.000,126.200,36.500,10.860,hard
1229.000,273.100,59.790,13.570,1310.000,243.500,55.670,12.530,351.400,94.190,25.200,8.202,471.100,126.800,36.420,10.880,hard
1229.000,273.800,59.920,13.570,1314.000,244.000,55.530,12.550,354.800,94.420,25.260,8.231,472.700,127.200,36.830,10.980,hard
1232.000,274.200,60.220,13.690,1315.000,244.000,55.600,12.550,353.000,94.450,25.420,8.263,475.600,128.100,37.150,11.080,hard
1235.000,274.300,60.430,13.730,1313.000,243.800,55.540,12.560,352.700,94.970,25.450,8.277,475.800,127.400,36.610,10.900,hard
1230.000,272.000,60.030,13.600,1313.000,243.800,55.600,12.500,349.300,94.070,25.220,8.217,469.500,125.900,36.330,10.820,hard
1226.000,272.800,59.740,13.560,1311.000,244.100,55.220,12.480,349.100,94.050,25.170,8.191,468.700,126.000,36.330,10.840,hard
1225.000,271.900,59.780,13.520,1311.000,243.800,55.480,12.530,350.800,93.810,25.230,8.203,470.500,126.500,36.550,10.890,hard
1227.000,271.800,60.200,13.540,1310.000,243.700,55.650,12.510,352.600,94.090,25.340,8.232,471.500,126.900,36.590,10.890,hard
1228.000,272.600,59.810,13.630,1314.000,243.800,55.540,12.570,352.800,94.580,25.290,8.275,473.400,127.400,36.750,10.950,hard
1231.000,273.700,60.050,13.670,1314.000,244.100,55.540,12.590,353.400,94.890,25.430,8.274,475.600,128.100,37.090,11.080,hard
1234.000,274.800,60.400,13.730,1315.000,244.300,55.770,12.570,357.800,94.780,25.540,8.312,478.200,128.400,36.980,11.010,hard
1231.000,273.500,59.690,13.610,1312.000,243.500,55.540,12.540,351.000,94.360,25.230,8.220,469.600,126.400,36.360,10.790,hard
1225.000,271.500,59.870,13.530,1312.000,243.100,55.500,12.540,349.900,93.930,25.190,8.221,470.500,126.400,36.360,10.820,hard
1225.000,271.100,59.730,13.540,1312.000,243.400,55.310,12.540,351.100,94.200,25.270,8.221,472.700,126.900,36.580,10.920,hard
1227.000,273.600,60.030,13.600,1316.000,243.600,55.630,12.580,355.000,94.090,25.380,8.252,473.800,126.900,36.690,10.980,hard
1227.000,271.900,59.910,13.600,1314.000,243.400,55.590,12.590,356.100,94.630,25.360,8.275,475.300,127.700,36.940,10.990,hard
1231.000,273.200,60.000,13.660,1318.000,244.100,55.760,12.590,359.800,94.710,25.460,8.317,478.100,128.500,37.180,11.090,hard
1233.000,272.900,60.440,13.740,1320.000,244.500,55.670,12.600,357.100,95.450,25.500,8.302,481.500,129.500,37.370,11.140,hard
1236.000,274.600,60.390,13.680,1312.000,243.600,55.650,12.540,355.000,95.030,25.490,8.259,474.100,127.200,36.550,10.790,hard
1228.000,271.800,60.000,13.520,1316.000,243.400,55.750,12.490,351.200,94.260,25.240,8.194,470.500,126.400,36.460,10.810,hard
1227.000,271.500,59.700,13.480,1314.000,243.600,55.480,12.510,355.600,93.710,25.180,8.190,471.700,126.400,36.380,10.860,hard
1227.000,272.300,59.690,13.540,1316.000,243.300,55.470,12.510,352.800,94.040,25.320,8.214,473.200,127.200,36.680,10.890,hard
1229.000,271.700,60.170,13.520,1313.000,243.000,55.480,12.530,356.800,94.310,25.300,8.226,474.500,127.500,36.760,10.930,hard
1229.000,272.500,59.980,13.540,1312.000,243.500,55.520,12.490,353.900,94.770,25.350,8.256,477.400,128.100,36.980,11.020,hard
1229.000,273.200,60.050,13.630,1316.000,243.800,55.460,12.560,356.400,94.930,25.460,8.284,480.100,128.800,37.150,11.110,hard
1233.000,274.100,60.290,13.680,1319.000,243.800,55.580,12.540,354.700,95.110,25.600,8.326,481.500,128.900,37.100,11.010,hard
1227.000,272.000,59.870,13.460,1312.000,242.900,55.240,12.460,353.600,94.470,25.270,8.232,473.200,127.000,36.660,10.880,hard
1224.000,271.400,59.840,13.440,1311.000,242.900,55.430,12.500,354.300,94.290,25.310,8.228,474.300,126.900,36.510,10.890,hard
1222.000,270.400,59.620,13.440,1311.000,243.500,55.380,12.480,351.800,94.740,25.310,8.244,476.100,127.600,36.880,10.970,hard
1224.000,271.900,59.780,13.520,1311.000,243.600,55.460,12.540,357.500,94.960,25.380,8.271,477.200,128.300,37.030,10.980,hard
1226.000,272.500,59.830,13.550,1313.000,243.400,55.730,12.530,353.600,94.770,25.470,8.271,477.600,128.700,37.150,11.090,hard
1228.000,273.600,60.240,13.620,1312.000,243.900,55.630,12.560,356.400,95.510,25.530,8.311,481.300,129.400,37.390,11.150,hard
1232.000,274.000,60.000,13.720,1315.000,243.700,56.000,12.550,356.700,95.620,25.640,8.332,483.500,129.900,37.460,11.090,hard
1229.000,272.600,59.730,13.540,1313.000,243.400,55.570,12.510,356.400,94.880,25.410,8.237,475.700,127.400,36.610,10.930,hard
1224.000,271.400,59.620,13.500,1315.000,242.900,55.460,12.530,353.500,94.750,25.280,8.248,475.900,127.200,36.720,10.920,hard
1223.000,271.300,59.320,13.470,1311.000,243.500,55.500,12.540,354.900,94.990,25.360,8.254,476.800,127.900,36.840,10.990,hard
1225.000,271.700,60.030,13.550,1316.000,243.600,55.510,12.570,353.700,95.450,25.440,8.265,477.300,128.200,36.960,11.030,hard
1226.000,273.700,59.900,13.570,1316.000,243.900,55.700,12.570,356.600,94.540,25.440,8.286,479.800,128.900,37.140,11.050,hard
1228.000,273.300,60.180,13.620,1318.000,243.900,55.720,12.560,358.000,94.970,25.500,8.329,481.600,129.600,37.320,11.110,hard
1232.000,273.500,60.550,13.700,1314.000,244.400,55.750,12.600,354.900,95.720,25.580,8.336,484.800,130.000,37.750,11.210,hard
1234.000,274.000,60.000,13.690,1317.000,243.900,55.610,12.550,356.400,95.260,25.500,8.305,477.900,128.100,36.840,10.940,hard
1225.000,270.800,59.630,13.510,1317.000,242.800,55.600,12.530,354.300,94.670,25.350,8.256,475.800,127.700,36.760,10.930,hard
1223.000,270.800,59.400,13.510,1314.000,243.000,55.480,12.510,354.400,94.650,25.360,8.255,475.100,127.800,36.920,10.980,hard
1224.000,270.900,59.780,13.520,1315.000,243.600,55.530,12.520,356.000,94.980,25.430,8.304,477.700,128.200,37.020,11.000,hard
1225.000,271.800,59.740,13.560,1314.000,243.800,55.680,12.520,352.800,95.380,25.400,8.304,479.100,128.700,37.200,11.070,hard
1226.000,272.900,59.860,13.640,1317.000,242.900,55.690,12.570,355.300,95.300,25.550,8.308,481.800,129.400,37.310,11.140,hard
1228.000,273.100,60.060,13.630,1313.000,243.400,55.780,12.580,356.400,95.470,25.610,8.355,483.400,130.500,37.610,11.230,hard
1232.000,273.900,60.480,13.720,1317.000,243.900,55.700,12.580,356.200,95.850,25.720,8.386,484.600,130.100,37.350,11.110,hard
1228.000,271.900,60.100,13.530,1312.000,243.600,55.550,12.480,356.800,94.970,25.390,8.279,477.300,127.800,36.800,10.970,hard
1223.000,271.900,59.440,13.530,1311.000,243.100,55.370,12.540,359.000,95.290,25.320,8.293,477.600,128.400,36.910,10.980,hard
1222.000,271.400,59.680,13.520,1313.000,243.500,55.490,12.530,357.300,95.090,25.510,8.282,479.900,128.800,37.160,11.030,hard
1225.000,271.400,59.880,13.560,1312.000,243.600,55.590,12.540,356.000,95.490,25.520,8.317,480.700,128.900,37.290,11.070,hard
1226.000,272.100,59.760,13.610,1311.000,244.000,55.650,12.500,355.500,95.170,25.520,8.324,481.000,129.800,37.400,11.150,hard
1229.000,272.500,60.400,13.660,1315.000,243.800,55.790,12.570,355.700,95.570,25.640,8.354,483.300,130.000,37.700,11.230,hard
1233.000,274.500,60.320,13.770,1313.000,244.000,55.720,12.560,357.200,95.980,25.670,8.364,485.500,130.900,37.730,11.200,hard
1232.000,273.400,59.930,13.610,1314.000,243.200,55.680,12.510,355.500,95.350,25.490,8.291,477.600,128.500,37.070,11.000,hard
1224.000,272.000,59.880,13.550,1313.000,243.600,55.480,12.510,355.400,95.100,25.450,8.266,478.300,128.300,37.060,11.000,hard
1223.000,271.600,59.560,13.490,1316.000,243.500,55.600,12.540,355.800,94.940,25.370,8.296,478.500,128.500,37.120,11.050,hard
1225.000,271.000,60.090,13.570,1317.000,243.200,55.520,12.530,359.100,95.100,25.510,8.317,480.100,128.900,37.130,11.100,hard
1226.000,272.400,60.010,13.620,1314.000,243.800,55.660,12.570,356.000,95.310,25.520,8.315,482.000,129.300,37.370,11.130,hard
1229.000,273.600,60.050,13.640,1313.000,243.700,55.440,12.590,356.900,95.620,25.550,8.346,483.200,130.300,37.520,11.200,hard
1233.000,273.700,60.370,13.730,1316.000,244.500,55.710,12.610,359.000,96.000,25.610,8.352,485.900,130.500,37.620,11.160,hard
1232.000,273.700,60.180,13.580,1315.000,243.600,55.490,12.490,357.700,95.180,25.470,8.289,477.900,128.100,36.910,10.980,hard
1226.000,271.900,59.700,13.540,1316.000,243.200,55.630,12.500,354.000,94.860,25.380,8.254,476.700,128.200,36.920,10.950,hard
1223.000,271.900,59.590,13.540,1314.000,242.800,55.570,12.490,358.900,94.800,25.440,8.275,478.500,128.100,37.040,11.040,hard
1225.000,272.500,59.850,13.560,1312.000,243.600,55.590,12.530,353.500,94.940,25.450,8.294,479.800,128.900,37.130,11.050,hard
1225.000,273.200,59.740,13.590,1314.000,243.200,55.590,12.570,356.600,95.630,25.530,8.331,481.400,129.300,37.340,11.120,hard
1227.000,272.800,60.040,13.630,1315.000,243.600,55.640,12.540,355.000,95.560,25.630,8.334,484.000,130.100,37.580,11.180,hard
1231.000,273.800,60.250,13.690,1318.000,243.700,55.820,12.590,357.300,95.790,25.620,8.367,486.100,130.700,37.560,11.120,hard
1228.000,273.100,60.180,13.590,1316.000,242.900,55.530,12.530,357.500,95.410,25.430,8.305,476.000,128.300,36.940,10.980,hard
1222.000,270.400,59.920,13.510,1313.000,243.400,55.480,12.510,356.600,95.110,25.410,8.279,477.300,128.000,36.820,10.960,hard
1221.000,270.700,59.740,13.470,1314.000,243.100,55.540,12.530,356.900,95.050,25.510,8.313,478.500,128.400,37.050,11.010,hard
1221.000,271.500,59.550,13.540,1313.000,243.100,55.550,12.560,357.000,95.130,25.520,8.311,476.900,128.000,37.060,11.010,bogus
1224.000,271.600,59.880,13.520,1311.000,243.600,55.610,12.560,355.600,95.490,25.480,8.335,477.800,128.500,37.080,11.030,bogus
1225.000,271.600,59.780,13.600,1312.000,243.000,55.550,12.550,355.700,95.410,25.560,8.353,480.200,129.000,37.300,11.100,bogus
1227.000,273.200,60.160,13.660,1314.000,243.700,55.740,12.600,358.600,95.760,25.570,8.361,481.800,130.100,37.510,11.170,bogus
1231.000,273.900,60.610,13.660,1318.000,244.300,55.680,12.580,355.000,95.890,25.770,8.384,483.000,129.500,37.170,11.020,bogus
1236.000,277.200,61.640,14.050,1307.000,241.600,55.370,12.430,351.100,94.510,25.320,8.215,477.200,128.900,37.450,11.170,hard
1241.000,279.400,62.270,14.140,1308.000,242.400,55.460,12.370,355.300,94.880,25.400,8.244,480.600,130.100,37.900,11.310,hard
1243.000,278.400,62.010,14.070,1308.000,241.800,55.050,12.350,353.000,94.410,25.250,8.180,470.400,126.800,36.630,10.910,hard
1232.000,276.000,61.600,13.940,1302.000,241.200,55.010,12.310,349.400,93.400,25.010,8.118,467.000,126.200,36.540,10.940,hard
1231.000,276.100,61.310,13.890,1302.000,240.600,54.840,12.330,351.300,93.550,25.120,8.120,468.000,127.100,36.760,11.010,hard
1233.000,276.200,61.550,13.970,1303.000,241.200,55.010,12.330,351.300,93.670,25.130,8.153,472.200,127.400,36.830,11.040,hard
1234.000,275.800,61.340,14.020,1308.000,240.700,55.180,12.360,351.200,93.930,25.210,8.176,472.700,128.100,37.150,11.080,hard
1236.000,277.700,61.670,14.060,1303.000,240.900,55.050,12.350,353.000,94.220,25.170,8.190,475.300,128.700,37.300,11.190,hard
1240.000,278.300,61.930,14.110,1311.000,242.000,55.290,12.390,358.700,94.250,25.240,8.210,479.300,129.900,37.660,11.340,hard
1246.000,279.600,62.710,14.240,1306.000,241.800,55.410,12.390,354.500,95.030,25.380,8.264,480.000,129.600,37.280,11.150,hard
1238.000,278.800,61.520,13.980,1306.000,241.400,55.080,12.300,352.000,93.720,25.000,8.121,469.600,126.700,36.590,10.950,hard
1232.000,277.000,61.220,13.910,1302.000,240.500,54.930,12.320,351.600,93.320,24.950,8.101,469.200,127.000,36.740,10.970,hard
1232.000,277.800,61.200,13.940,1301.000,241.100,54.950,12.350,351.300,93.610,25.020,8.109,471.000,127.600,36.990,11.060,hard
1234.000,277.800,61.300,14.010,1305.000,241.100,55.090,12.360,352.600,93.710,25.100,8.133,472.700,127.600,37.070,11.080,hard
1235.000,277.900,61.680,14.010,1305.000,240.600,54.920,12.310,354.900,93.890,25.100,8.150,475.500,128.500,37.250,11.140,hard
1239.000,278.800,61.950,14.030,1308.000,240.900,55.210,12.360,353.700,93.970,25.210,8.173,476.500,129.800,37.610,11.240,hard
1242.000,279.600,62.030,14.170,1306.000,241.200,55.220,12.370,354.600,94.600,25.320,8.233,481.000,130.100,37.650,11.200,hard
1240.000,276.900,61.590,14.000,1306.000,240.600,54.920,12.300,352.700,93.740,25.000,8.080,469.800,126.200,36.620,10.960,hard
1231.000,276.200,61.110,13.900,1301.000,240.500,54.870,12.260,348.700,93.300,24.940,8.074,469.400,126.600,36.690,10.970,hard
1230.000,276.000,61.140,13.980,1301.000,240.100,54.790,12.290,351.000,93.260,24.920,8.093,470.400,127.000,36.850,11.020,hard
1232.000,277.800,61.320,13.920,1303.000,240.900,54.840,12.340,353.200,93.740,25.070,8.137,472.800,127.900,37.060,11.090,hard
1234.000,276.900,61.610,14.000,1303.000,240.800,54.990,12.330,349.000,93.980,25.010,8.123,474.400,128.500,37.240,11.150,hard
1236.000,278.700,61.560,14.060,1303.000,241.200,55.090,12.340,351.100,93.830,25.030,8.146,477.100,129.200,37.550,11.260,hard
1241.000,280.100,61.980,14.150,1307.000,241.000,55.160,12.360,353.800,94.200,25.180,8.183,480.300,130.000,37.600,11.190,hard
1238.000,277.400,61.640,13.960,1304.000,240.400,54.660,12.290,352.300,93.380,24.920,8.068,469.300,126.600,36.740,10.970,hard
1230.000,274.800,61.180,13.850,1301.000,240.700,54.780,12.240,347.500,93.090,24.810,8.054,468.600,126.900,36.690,10.980,hard
1229.000,275.800,61.090,13.900,1302.000,240.100,54.670,12.260,350.500,92.910,24.810,8.049,470.700,127.200,36.930,11.050,hard
1231.000,275.900,61.240,13.930,1300.000,240.000,54.740,12.280,351.500,93.240,24.950,8.089,473.000,127.800,37.140,11.060,hard
1232.000,276.300,61.330,13.980,1302.000,241.000,54.830,12.310,350.100,93.610,24.960,8.102,474.700,128.500,37.190,11.150,hard
1236.000,277.200,61.560,14.050,1303.000,240.200,55.000,12.310,351.200,93.730,25.030,8.120,477.000,129.300,37.600,11.260,hard
1239.000,278.300,61.820,14.140,1306.000,240.500,55.010,12.320,352.000,93.800,25.110,8.137,480.000,130.100,37.520,11.220,hard
1236.000,276.600,61.190,13.940,1300.000,240.100,54.730,12.250,349.000,93.090,24.750,8.039,467.600,126.800,36.680,10.960,hard
1228.000,275.400,60.890,13.860,1299.000,239.200,54.720,12.250,349.300,92.890,24.830,8.019,468.500,126.400,36.720,10.940,hard
1227.000,276.000,61.020,13.790,1296.000,239.600,54.500,12.230,347.800,92.900,24.710,8.044,469.500,127.500,36.890,11.050,hard
1228.000,275.400,61.330,13.900,1301.000,239.700,54.760,12.260,351.400,93.140,24.870,8.051,472.400,127.500,37.060,11.090,hard
1229.000,276.900,61.350,13.900,1302.000,240.300,54.740,12.300,349.400,93.250,24.830,8.078,474.900,128.100,37.220,11.160,hard
1232.000,276.600,61.410,13.990,1301.000,240.500,54.840,12.290,350.000,93.500,24.900,8.100,478.100,129.300,37.520,11.220,hard
1237.000,278.300,61.880,14.040,1303.000,240.300,54.870,12.320,352.500,93.750,25.040,8.119,480.100,130.200,37.730,11.310,hard
1236.000,275.900,61.540,13.970,1304.000,240.000,54.650,12.250,351.900,93.470,24.810,8.037,468.500,126.300,36.770,10.940,hard
1225.000,274.000,60.690,13.790,1299.000,239.000,54.640,12.220,344.900,92.540,24.620,8.014,467.800,126.300,36.630,10.930,hard
1224.000,274.300,60.850,13.810,1294.000,239.100,54.540,12.220,348.000,92.210,24.650,8.018,470.100,126.700,36.730,11.010,hard
1226.000,275.000,60.940,13.840,1299.000,239.400,54.850,12.270,349.900,92.740,24.780,8.040,472.900,127.600,36.900,11.080,hard
1226.000,274.300,60.950,13.860,1298.000,239.400,54.710,12.240,349.800,92.700,24.810,8.066,473.500,128.100,37.070,11.120,hard
1228.000,275.600,61.180,13.970,1300.000,239.300,54.720,12.290,348.200,92.980,24.870,8.066,475.500,128.600,37.350,11.230,hard
1235.000,277.600,61.360,14.020,1304.000,239.800,54.920,12.330,349.900,93.420,24.990,8.128,479.200,129.800,37.750,11.350,hard
1237.000,277.900,61.530,13.960,1303.000,239.800,54.620,12.240,353.200,93.900,24.860,8.048,471.200,126.800,36.670,10.970,hard
1224.000,273.900,60.760,13.780,1299.000,239.000,54.700,12.200,344.700,92.380,24.630,7.970,468.700,126.500,36.560,10.970,hard
1222.000,274.100,60.510,13.760,1297.000,239.300,54.610,12.260,347.500,92.400,24.690,7.991,468.500,126.700,36.680,11.010,hard
1224.000,274.600,60.880,13.800,1300.000,239.600,54.600,12.240,346.200,92.950,24.700,8.041,471.200,127.100,36.890,11.070,hard
1225.000,273.800,60.920,13.890,1298.000,239.600,54.750,12.260,351.000,92.770,24.750,8.037,471.900,127.700,36.910,11.080,hard
1228.000,274.800,61.300,13.870,1296.000,239.600,54.750,12.270,350.000,92.810,24.840,8.067,474.000,128.300,37.270,11.170,hard
1231.000,275.800,61.510,13.940,1301.000,240.200,54.960,12.310,347.900,93.420,24.970,8.101,476.000,129.500,37.580,11.260,hard
1236.000,277.400,61.730,14.060,1301.000,240.000,54.830,12.270,352.800,93.900,25.010,8.100,476.200,128.700,37.040,11.050,hard
1227.000,275.200,60.830,13.810,1295.000,238.900,54.570,12.250,350.100,92.320,24.690,8.001,466.300,126.100,36.550,10.920,hard
1221.000,273.500,60.270,13.750,1293.000,238.500,54.440,12.210,347.900,92.440,24.610,8.004,467.400,126.300,36.630,10.950,hard
1220.000,273.600,60.510,13.690,1296.000,238.700,54.480,12.240,348.800,92.670,24.770,8.005,469.300,126.900,36.840,11.010,hard
1223.000,275.500,60.860,13.760,1294.000,239.100,54.590,12.270,347.800,93.010,24.720,8.046,470.300,126.900,36.850,11.070,hard
1225.000,275.200,61.020,13.810,1296.000,239.500,54.690,12.280,352.100,92.630,24.890,8.066,472.300,127.700,37.230,11.130,hard
1227.000,276.600,61.370,13.870,1296.000,240.800,54.720,12.270,352.200,93.370,24.960,8.095,476.400,128.600,37.410,11.210,hard
1232.000,277.200,61.530,13.980,1300.000,240.300,54.850,12.330,352.600,93.590,25.130,8.124,480.500,129.900,37.730,11.290,hard
1234.000,276.100,61.330,13.880,1299.000,239.600,54.630,12.280,350.900,93.450,24.870,8.062,469.700,126.500,36.640,10.960,hard
1221.000,273.700,60.500,13.680,1292.000,239.000,54.440,12.230,347.400,92.640,24.670,8.015,467.500,126.100,36.610,10.950,hard
1219.000,273.700,60.190,13.670,1293.000,239.300,54.490,12.220,348.300,92.960,24.710,8.022,467.100,126.300,36.660,10.980,hard
1218.000,274.200,60.390,13.690,1295.000,238.300,54.530,12.220,350.000,93.010,24.840,8.050,470.400,127.300,36.800,11.050,hard
1219.000,274.000,60.690,13.760,1294.000,238.700,54.850,12.260,349.800,92.680,24.840,8.089,471.500,127.600,36.890,11.060,hard
1222.000,275.300,60.690,13.810,1297.000,239.100,54.670,12.260,350.800,93.130,24.930,8.092,473.500,128.400,37.260,11.150,hard
1225.000,276.100,60.950,13.890,1296.000,239.300,54.730,12.290,349.900,93.570,25.110,8.149,477.000,129.600,37.470,11.230,hard
1230.000,275.600,61.200,13.870,1295.000,239.500,54.680,12.260,353.300,93.830,25.080,8.123,473.200,127.200,36.780,10.970,hard
1218.000,272.500,60.530,13.640,1292.000,238.700,54.300,12.230,346.200,92.660,24.690,8.040,466.400,125.800,36.440,10.900,hard
1215.000,272.200,60.250,13.600,1294.000,238.500,54.490,12.210,351.300,92.660,24.740,8.043,467.100,126.200,36.430,10.890,hard
1215.000,271.600,60.250,13.610,1292.000,238.600,54.360,12.270,351.100,93.110,24.900,8.072,469.600,126.700,36.830,11.000,hard
1217.000,272.400,60.310,13.660,1290.000,238.800,54.640,12.260,351.300,93.150,24.880,8.094,470.900,127.000,36.800,11.030,hard
1219.000,273.600,60.590,13.640,1294.000,238.500,54.600,12.250,349.000,93.590,24.950,8.112,472.700,127.700,37.050,11.100,hard
1222.000,273.700,60.540,13.760,1294.000,239.300,54.820,12.300,350.300,93.530,25.080,8.137,475.000,128.700,37.350,11.200,hard
1227.000,275.500,61.030,13.870,1295.000,239.300,54.670,12.280,350.600,94.190,25.150,8.178,477.200,128.500,37.110,10.990,hard
1221.000,273.200,60.180,13.610,1293.000,238.100,54.500,12.210,351.300,92.700,24.750,8.056,466.100,125.700,36.430,10.860,hard
1214.000,270.900,59.870,13.540,1290.000,238.500,54.530,12.230,349.500,92.360,24.770,8.060,465.900,125.700,36.440,10.860,hard
1212.000,271.700,59.870,13.570,1293.000,238.800,54.510,12.250,350.600,93.150,24.790,8.072,468.100,126.200,36.590,10.920,hard
1214.000,272.000,60.370,13.620,1290.000,238.900,54.810,12.250,351.200,92.950,24.870,8.101,469.100,126.300,36.650,11.000,hard
1215.000,271.900,60.260,13.630,1293.000,238.800,54.660,12.300,347.200,93.210,24.900,8.122,470.200,127.100,37.010,11.030,hard
1218.000,273.600,60.450,13.700,1294.000,238.000,54.710,12.300,351.000,93.540,25.070,8.144,472.400,128.000,37.030,11.110,hard
1222.000,272.400,60.710,13.740,1295.000,239.600,54.740,12.310,352.200,93.820,25.090,8.162,475.500,129.100,37.360,11.210,hard
1224.000,273.900,60.730,13.720,1296.000,238.600,54.520,12.240,351.700,93.870,25.000,8.120,467.400,125.700,36.370,10.860,hard
1212.000,271.900,60.000,13.560,1292.000,238.900,54.470,12.220,346.700,92.670,24.810,8.048,465.100,125.400,36.230,10.820,hard
1210.000,270.100,59.680,13.460,1292.000,237.700,54.550,12.260,348.700,92.670,24.760,8.055,465.100,125.700,36.330,10.850,hard
1211.000,270.700,59.800,13.530,1290.000,238.400,54.630,12.280,346.300,93.050,24.900,8.090,468.700,126.300,36.470,10.920,hard
1212.000,270.700,59.680,13.520,1292.000,237.700,54.710,12.260,348.500,93.080,24.880,8.101,469.100,126.300,36.610,10.950,hard
1213.000,271.100,60.100,13.600,1291.000,238.300,54.680,12.310,353.000,93.210,24.940,8.120,471.100,127.100,36.840,11.030,hard
1217.000,273.100,60.260,13.710,1294.000,239.200,54.700,12.330,351.200,93.580,25.060,8.153,472.900,128.000,36.970,11.110,hard
1222.000,274.100,60.370,13.680,1293.000,239.200,54.720,12.310,351.000,94.160,25.170,8.174,473.100,127.300,36.650,10.920,hard
1212.000,270.800,59.680,13.450,1289.000,238.200,54.360,12.240,348.700,92.590,24.800,8.051,465.800,125.300,36.220,10.840,hard
1208.000,269.800,59.370,13.410,1291.000,238.100,54.430,12.270,349.700,92.290,24.760,8.061,465.600,125.500,36.200,10.790,hard
1208.000,269.700,59.350,13.440,1289.000,238.300,54.530,12.250,347.500,92.690,24.830,8.087,466.000,125.900,36.330,10.880,hard
1210.000,271.200,59.630,13.470,1291.000,238.500,54.720,12.250,348.300,93.150,24.890,8.091,467.500,126.300,36.460,10.900,hard
1211.000,270.600,59.520,13.540,1294.000,238.500,54.670,12.280,348.500,93.270,24.980,8.111,469.900,126.900,36.760,10.960,hard
1213.000,270.800,59.650,13.620,1292.000,238.700,54.800,12.300,350.700,93.160,25.030,8.150,472.100,127.400,36.870,11.030,hard
1218.000,272.900,60.220,13.650,1294.000,239.300,55.010,12.340,350.400,93.740,25.060,8.170,474.300,128.200,36.980,10.970,hard
1214.000,273.300,59.580,13.450,1296.000,238.500,54.590,12.260,350.000,93.060,24.850,8.083,464.200,125.300,36.110,10.760,hard
1207.000,268.700,59.340,13.380,1288.000,237.700,54.620,12.250,348.300,92.590,24.780,8.048,463.700,124.700,36.010,10.750,hard
1204.000,269.800,59.050,13.380,1292.000,237.600,54.470,12.280,348.700,92.770,24.840,8.090,464.900,125.300,36.260,10.800,hard
1207.000,269.900,59.550,13.410,1291.000,238.400,54.630,12.310,351.300,93.190,24.920,8.122,465.900,125.600,36.330,10.820,hard
1208.000,269.100,59.760,13.400,1291.000,238.500,54.570,12.330,348.700,93.160,24.930,8.127,468.000,126.100,36.560,10.900,hard
1209.000,271.100,59.740,13.470,1291.000,239.200,54.780,12.350,349.400,93.460,25.070,8.174,470.600,127.200,36.660,10.990,hard
1213.000,270.500,59.960,13.560,1292.000,239.300,54.820,12.360,349.900,93.770,25.090,8.175,472.800,127.600,37.010,11.010,hard
1214.000,271.000,59.860,13.450,1295.000,239.100,54.660,12.280,349.100,93.450,25.040,8.127,464.600,125.400,36.160,10.720,hard
1205.000,268.400,58.910,13.320,1286.000,238.000,54.690,12.260,345.600,92.800,24.800,8.082,463.900,125.000,35.930,10.720,hard
1202.000,268.000,58.820,13.300,1289.000,238.000,54.570,12.280,349.700,92.850,24.870,8.097,464.500,125.400,36.010,10.760,hard
1203.000,268.600,59.030,13.320,1286.000,238.500,54.690,12.320,348.500,93.270,24.990,8.137,466.600,125.800,36.200,10.810,hard
1204.000,269.200,59.110,13.360,1286.000,238.200,54.840,12.310,350.500,93.470,25.030,8.139,467.300,125.700,36.370,10.820,hard
1205.000,269.300,59.070,13.330,1291.000,238.400,54.810,12.340,349.800,93.630,25.030,8.155,468.200,126.300,36.440,10.860,hard
1207.000,270.500,59.310,13.450,1290.000,238.800,54.970,12.340,351.800,93.500,25.190,8.184,470.400,126.900,36.680,10.950,hard
1211.000,271.200,59.540,13.500,1293.000,239.300,54.850,12.340,352.200,93.880,25.300,8.227,470.300,126.500,36.370,10.780,hard
1204.000,268.700,58.880,13.210,1287.000,238.300,54.610,12.300,348.800,93.250,24.910,8.130,463.800,124.500,35.910,10.700,hard
1200.000,268.700,58.940,13.220,1293.000,238.400,54.670,12.310,348.100,92.930,24.890,8.124,464.300,125.000,35.830,10.710,hard
1198.000,267.300,58.820,13.280,1293.000,238.300,54.680,12.330,351.900,93.480,25.020,8.179,466.800,125.100,36.120,10.820,hard
1200.000,267.400,58.650,13.320,1282.000,238.900,54.700,12.310,349.900,93.440,25.140,8.181,466.600,125.600,36.170,10.810,hard
1201.000,267.300,59.170,13.340,1288.000,238.400,54.830,12.350,351.500,93.130,25.160,8.179,468.200,126.200,36.340,10.890,hard
1203.000,269.100,59.370,13.410,1289.000,238.800,54.820,12.380,348.400,93.380,25.180,8.235,470.600,126.800,36.650,10.940,hard
1207.000,270.200,59.450,13.470,1289.000,239.100,54.980,12.400,353.600,94.000,25.300,8.248,473.900,127.800,36.830,10.970,hard
1206.000,270.200,59.140,13.290,1292.000,238.300,54.750,12.310,350.600,93.820,25.020,8.149,464.900,124.800,36.010,10.690,hard
1199.000,267.800,58.870,13.240,1292.000,238.200,54.760,12.310,348.400,93.230,24.960,8.131,464.500,125.000,35.910,10.680,hard
1198.000,266.300,58.750,13.240,1287.000,238.000,54.700,12.350,348.900,93.400,24.980,8.154,465.300,125.100,36.090,10.740,hard
1199.000,268.400,58.980,13.280,1292.000,238.900,54.770,12.330,349.400,93.310,25.150,8.188,466.800,125.400,36.070,10.750,hard
1199.000,267.400,59.220,13.260,1287.000,238.500,54.800,12.360,350.600,93.560,25.130,8.189,468.200,126.000,36.390,10.830,hard
1202.000,267.400,59.310,13.300,1290.000,239.200,54.920,12.380,350.000,93.570,25.200,8.216,469.000,126.600,36.500,10.880,hard
1205.000,269.500,59.360,13.380,1296.000,238.500,54.920,12.400,353.800,93.700,25.280,8.229,471.400,127.700,36.730,10.940,hard
1208.000,270.900,59.750,13.470,1294.000,238.800,55.020,12.400,354.700,94.360,25.390,8.263,472.200,126.600,36.380,10.790,hard
1202.000,268.000,59.210,13.250,1291.000,238.400,54.710,12.330,352.300,93.490,25.040,8.180,464.300,125.200,35.950,10.730,hard
1199.000,267.900,58.700,13.250,1287.000,239.200,54.700,12.350,350.700,92.970,25.060,8.172,464.800,125.000,35.960,10.720,hard
1198.000,267.400,58.820,13.280,1289.000,238.300,54.670,12.370,348.300,93.630,25.110,8.176,466.800,125.500,36.050,10.800,hard
1200.000,267.100,58.780,13.310,1290.000,239.000,54.880,12.400,353.000,93.700,25.170,8.195,467.000,126.100,36.250,10.810,hard
1202.000,268.700,58.900,13.360,1292.000,239.100,54.970,12.380,348.400,93.820,25.140,8.219,468.900,126.500,36.310,10.880,hard
1203.000,269.100,59.300,13.390,1291.000,239.400,54.950,12.390,350.000,93.860,25.300,8.241,472.100,126.900,36.750,10.980,hard
1207.000,269.900,59.580,13.450,1297.000,239.900,55.170,12.450,351.000,94.110,25.340,8.266,474.100,128.100,37.040,11.040,hard
1210.000,270.700,59.540,13.410,1295.000,239.000,54.840,12.380,352.700,94.170,25.250,8.219,467.400,125.700,36.040,10.750,hard
1201.000,268.400,58.860,13.250,1290.000,238.200,54.860,12.370,349.000,93.200,25.070,8.169,465.400,125.200,36.050,10.710,hard
1200.000,267.600,59.130,13.250,1290.000,238.900,54.790,12.350,350.900,93.160,25.030,8.174,466.700,125.600,36.270,10.780,hard
1201.000,268.700,58.950,13.300,1289.000,239.900,54.900,12.380,350.700,93.560,25.050,8.211,467.800,126.200,36.290,10.790,hard
1203.000,268.300,59.050,13.330,1292.000,239.200,54.950,12.380,351.000,93.550,25.260,8.221,468.100,126.000,36.360,10.840,hard
1203.000,270.400,59.200,13.380,1293.000,239.200,55.000,12.410,352.100,93.940,25.230,8.229,470.900,126.900,36.500,10.920,hard
1207.000,269.900,59.470,13.460,1295.000,239.300,55.040,12.410,350.300,93.960,25.270,8.260,472.400,127.900,36.810,11.020,hard
1210.000,271.100,59.590,13.510,1297.000,239.800,55.190,12.400,348.900,94.170,25.400,8.276,471.600,126.700,36.610,10.810,hard
1204.000,270.100,59.200,13.310,1291.000,238.700,54.990,12.370,350.400,93.390,25.080,8.187,466.800,125.600,36.050,10.760,hard
1201.000,268.300,59.090,13.250,1293.000,238.800,54.880,12.360,348.100,93.260,25.110,8.182,465.800,125.300,35.980,10.750,hard
1201.000,269.800,58.870,13.320,1293.000,238.900,54.830,12.360,347.800,93.460,25.130,8.200,467.700,125.900,36.510,10.810,hard
1203.000,268.100,59.310,13.300,1294.000,239.100,55.040,12.410,351.000,93.780,25.240,8.235,468.500,126.400,36.500,10.850,hard
1203.000,268.500,59.180,13.360,1293.000,238.800,55.050,12.430,351.000,93.860,25.240,8.241,470.300,126.800,36.610,10.910,hard
1206.000,269.800,59.590,13.450,1293.000,239.500,55.130,12.450,350.300,94.130,25.340,8.281,472.000,127.500,36.750,10.960,hard
1211.000,271.600,59.950,13.510,1293.000,240.000,55.220,12.420,354.000,94.320,25.380,8.284,474.900,128.000,37.090,11.050,hard
1212.000,270.200,59.620,13.420,1295.000,239.400,54.990,12.360,354.200,94.220,25.320,8.246,467.100,125.800,36.220,10.790,hard
1204.000,267.700,59.170,13.310,1295.000,239.400,54.930,12.350,347.900,93.450,25.090,8.202,466.400,125.600,36.220,10.780,hard
1202.000,268.900,58.830,13.330,1295.000,238.900,54.900,12.360,350.700,93.410,25.120,8.207,467.000,125.500,36.450,10.800,hard
1204.000,270.400,59.070,13.330,1296.000,239.200,55.110,12.400,354.000,94.070,25.250,8.239,468.200,126.100,36.380,10.860,hard
1205.000,270.400,58.940,13.380,1294.000,239.400,55.050,12.400,350.100,93.990,25.320,8.250,468.500,126.800,36.540,10.900,hard
1206.000,269.700,59.400,13.450,1293.000,239.300,55.330,12.420,352.800,94.230,25.400,8.275,471.500,127.200,36.770,10.980,hard
1209.000,270.300,59.850,13.480,1297.000,239.500,55.190,12.440,352.000,94.170,25.480,8.279,473.300,127.800,37.030,11.040,hard
1213.000,271.400,59.930,13.540,1297.000,239.700,55.210,12.470,354.100,94.730,25.500,8.318,475.300,127.800,36.780,10.950,hard
1209.000,269.700,59.300,13.370,1294.000,240.000,55.170,12.400,350.300,94.010,25.190,8.213,467.200,126.000,36.410,10.800,hard
1206.000,269.200,59.120,13.380,1296.000,239.100,54.990,12.390,349.000,93.630,25.210,8.197,467.500,126.100,36.410,10.850,hard
1203.000,269.300,59.160,13.390,1291.000,239.600,54.920,12.420,352.100,94.170,25.310,8.240,469.500,126.400,36.480,10.910,hard
1206.000,269.300,59.430,13.370,1292.000,239.100,55.060,12.390,352.900,94.240,25.380,8.261,468.600,126.900,36.600,10.910,hard
1207.000,271.200,59.260,13.480,1294.000,239.600,55.040,12.440,353.100,94.100,25.380,8.265,471.700,127.100,36.760,10.940,hard
1210.000,270.600,59.990,13.490,1294.000,239.700,55.320,12.410,353.700,94.810,25.390,8.292,473.000,127.800,36.970,11.020,hard
1214.000,271.600,59.980,13.630,1300.000,239.700,55.410,12.480,353.500,94.730,25.540,8.326,476.900,128.900,37.290,11.140,hard
1216.000,272.100,60.010,13.550,1297.000,240.100,55.120,12.360,354.100,95.030,25.410,8.271,470.500,126.500,36.520,10.860,hard
1208.000,270.200,59.500,13.440,1295.000,238.900,55.120,12.360,353.500,94.010,25.240,8.248,467.600,126.300,36.320,10.840,hard
1207.000,270.600,59.140,13.430,1296.000,239.800,55.120,12.420,352.300,93.970,25.250,8.239,469.700,126.300,36.500,10.910,hard
1208.000,271.300,59.630,13.470,1297.000,239.400,55.090,12.440,353.200,94.230,25.320,8.259,470.800,126.700,36.650,10.930,hard
1209.000,270.100,59.700,13.480,1296.000,240.200,55.170,12.410,352.900,94.090,25.330,8.293,470.200,127.300,36.710,10.980,hard
1211.000,271.100,59.780,13.500,1299.000,240.100,55.210,12.420,351.900,94.290,25.330,8.267,471.800,127.600,36.790,11.010,hard
1214.000,271.100,60.030,13.560,1300.000,240.100,55.240,12.470,354.100,94.680,25.420,8.272,473.400,128.200,37.120,11.050,hard
1218.000,272.200,60.170,13.620,1303.000,240.700,55.330,12.430,354.700,94.510,25.450,8.281,473.200,127.500,36.710,10.900,hard
1213.000,270.500,60.030,13.390,1298.000,239.800,55.010,12.380,349.700,93.510,25.080,8.200,467.500,125.900,36.280,10.820,hard
1209.000,268.700,59.360,13.420,1296.000,239.400,55.000,12.380,350.700,94.080,25.070,8.180,465.900,125.800,36.200,10.820,hard
1207.000,270.100,59.500,13.400,1298.000,238.900,55.140,12.380,348.100,93.550,25.220,8.180,468.100,126.100,36.430,10.880,hard
1208.000,269.800,59.740,13.430,1296.000,239.200,54.900,12.380,349.800,94.010,25.240,8.257,470.200,126.800,36.530,10.950,hard
1208.000,270.100,59.610,13.470,1297.000,238.900,55.010,12.390,350.300,94.050,25.420,8.287,472.900,127.600,36.810,11.000,hard
1210.000,269.300,59.510,13.530,1300.000,239.200,55.060,12.410,355.300,94.450,25.490,8.307,473.800,128.100,36.950,11.090,hard
1213.000,272.800,60.050,13.580,1298.000,239.700,55.200,12.420,353.900,94.780,25.580,8.326,478.100,128.900,37.240,11.100,hard
1213.000,272.000,60.170,13.510,1296.000,239.100,55.050,12.360,351.300,94.390,25.370,8.253,469.800,126.700,36.560,10.890,hard
1206.000,270.000,59.310,13.380,1295.000,239.600,54.850,12.380,355.100,94.300,25.290,8.249,468.900,126.200,36.440,10.860,hard
1205.000,268.900,59.360,13.360,1293.000,239.100,55.040,12.390,349.800,93.960,25.310,8.271,470.200,126.900,36.590,10.940,hard
1206.000,269.100,59.490,13.410,1298.000,239.100,54.870,12.420,350.300,94.100,25.400,8.281,471.900,126.800,36.770,10.960,hard
1207.000,269.700,59.640,13.470,1296.000,239.300,55.180,12.390,355.900,94.220,25.400,8.292,471.500,127.600,36.870,10.970,hard
1209.000,270.500,59.850,13.550,1295.000,239.500,55.110,12.410,352.700,94.580,25.470,8.319,473.900,127.500,37.090,11.040,hard
1212.000,272.100,60.060,13.590,1301.000,240.600,55.340,12.450,356.100,94.750,25.570,8.327,475.600,128.400,37.160,11.130,hard
1216.000,273.300,60.290,13.640,1298.000,240.300,55.260,12.410,353.300,95.010,25.520,8.329,474.800,127.500,36.830,10.920,hard
1209.000,271.100,59.590,13.460,1300.000,239.300,55.270,12.380,352.700,94.340,25.310,8.258,469.800,126.200,36.550,10.900,hard
1207.000,270.700,59.480,13.440,1294.000,239.300,54.970,12.370,349.300,93.620,25.340,8.254,469.000,126.300,36.470,10.910,hard
1207.000,270.500,59.530,13.510,1299.000,239.600,55.120,12.410,352.100,94.070,25.380,8.273,471.300,127.100,36.770,10.960,hard
1209.000,272.000,59.600,13.490,1297.000,239.900,55.090,12.410,353.800,94.300,25.360,8.280,471.600,127.400,36.780,11.020,hard
1210.000,270.900,59.860,13.510,1296.000,239.700,55.250,12.410,352.900,94.650,25.410,8.290,473.700,127.800,37.020,11.030,hard
1212.000,270.800,60.040,13.590,1299.000,240.700,55.160,12.430,352.000,94.710,25.460,8.321,475.600,128.900,37.150,11.150,hard
1216.000,272.400,60.460,13.660,1302.000,240.700,55.260,12.420,354.000,94.810,25.490,8.345,478.500,129.100,37.550,11.210,hard
1219.000,274.200,60.440,13.680,1301.000,240.100,55.190,12.400,357.600,95.030,25.520,8.339,473.200,127.400,36.840,10.990,hard
1211.000,270.300,59.760,13.530,1298.000,240.000,55.260,12.380,352.700,94.060,25.260,8.241,469.300,126.400,36.450,10.900,hard
1210.000,270.800,59.400,13.480,1298.000,239.100,55.190,12.350,348.100,93.950,25.190,8.230,469.000,126.500,36.490,10.910,hard
1210.000,271.000,59.690,13.540,1301.000,239.400,55.130,12.390,354.000,93.740,25.230,8.259,470.800,126.800,36.790,10.970,hard
1211.000,271.600,59.620,13.520,1299.000,239.300,55.090,12.390,352.800,94.320,25.290,8.266,472.800,127.300,36.770,10.970,hard
1211.000,271.400,59.740,13.550,1300.000,239.700,55.240,12.440,355.300,94.380,25.340,8.275,474.400,127.800,36.930,11.070,hard
1213.000,271.900,60.260,13.630,1299.000,239.900,55.270,12.420,355.000,94.740,25.450,8.295,474.800,128.400,37.180,11.140,hard
1216.000,273.600,60.330,13.700,1300.000,240.300,55.290,12.450,358.500,94.730,25.450,8.320,478.600,129.000,37.450,11.190,hard
1218.000,272.300,60.460,13.620,1301.000,239.700,55.150,12.370,352.800,94.650,25.440,8.284,472.900,127.400,36.730,10.960,hard
1211.000,270.000,59.750,13.480,1299.000,239.300,55.100,12.380,353.100,94.150,25.200,8.233,471.500,126.900,36.660,10.950,hard
1208.000,270.400,59.720,13.460,1300.000,239.800,54.960,12.370,353.300,93.980,25.250,8.236,471.900,127.200,36.730,10.930,hard
1209.000,269.900,59.740,13.520,1300.000,239.600,55.020,12.400,349.100,93.740,25.290,8.263,473.800,127.500,36.900,10.990,hard
1210.000,270.800,59.690,13.520,1298.000,239.400,55.000,12.420,354.100,93.900,25.400,8.273,473.800,127.800,36.930,11.040,hard
1211.000,272.200,60.240,13.610,1299.000,240.400,55.110,12.410,356.600,94.120,25.380,8.289,475.100,128.400,37.140,11.140,hard
1213.000,271.700,60.150,13.630,1301.000,239.800,55.340,12.410,354.900,94.710,25.490,8.291,479.700,129.000,37.420,11.200,hard
1216.000,274.100,60.550,13.720,1299.000,240.100,55.470,12.440,357.200,94.560,25.460,8.336,480.500,129.300,37.310,11.140,hard
1214.000,271.500,60.170,13.580,1300.000,239.200,55.060,12.400,353.000,94.120,25.320,8.249,473.100,127.100,36.630,10.960,hard
1208.000,271.300,59.590,13.490,1296.000,239.500,55.060,12.340,351.600,93.670,25.240,8.226,471.100,127.000,36.620,10.940,hard
1207.000,270.600,59.820,13.510,1299.000,239.900,55.220,12.410,353.100,94.110,25.260,8.214,473.900,127.400,36.880,11.020,hard
1207.000,270.700,60.180,13.530,1298.000,239.700,54.990,12.420,353.200,94.360,25.280,8.264,473.900,127.800,36.870,11.050,hard
1209.000,270.400,60.030,13.560,1295.000,239.500,55.360,12.400,354.400,94.370,25.330,8.279,475.900,128.000,37.170,11.120,hard
1211.000,271.100,60.340,13.590,1301.000,240.100,55.140,12.430,351.600,94.200,25.360,8.300,477.400,128.700,37.240,11.150,hard
1213.000,272.800,60.600,13.720,1300.000,240.500,55.370,12.430,358.500,94.630,25.470,8.291,479.900,129.600,37.490,11.230,hard
1217.000,274.400,60.660,13.770,1303.000,240.300,55.190,12.420,353.600,94.560,25.540,8.306,478.300,128.300,37.090,11.040,hard
1211.000,270.900,60.020,13.620,1301.000,240.600,55.320,12.400,352.800,94.320,25.190,8.222,471.700,127.600,36.770,11.000,hard
1208.000,271.600,60.100,13.570,1302.000,239.900,55.270,12.400,351.800,93.840,25.210,8.218,472.700,127.400,36.800,11.000,hard
1208.000,272.000,60.030,13.570,1296.000,240.000,55.120,12.410,350.200,94.000,25.290,8.256,475.200,128.000,37.050,11.060,hard
1209.000,272.000,59.990,13.620,1301.000,240.400,55.370,12.420,349.900,94.090,25.380,8.254,475.400,127.800,37.100,11.050,hard
1209.000,272.100,60.000,13.620,1302.000,240.000,55.110,12.420,352.400,94.300,25.260,8.270,476.300,128.600,37.160,11.120,hard
1212.000,272.700,60.170,13.710,1303.000,240.000,55.450,12.490,353.600,94.480,25.340,8.288,479.600,129.300,37.480,11.210,hard
1216.000,273.100,60.720,13.770,1301.000,241.400,55.390,12.450,353.000,94.830,25.490,8.304,481.500,129.700,37.740,11.300,hard
1218.000,274.300,60.690,13.740,1304.000,240.700,55.350,12.460,357.400,94.440,25.420,8.241,475.500,128.100,36.950,11.040,hard
1210.000,271.600,60.200,13.600,1297.000,239.800,55.220,12.410,355.000,94.060,25.130,8.204,473.900,127.600,36.870,11.000,hard
1209.000,270.700,60.000,13.560,1299.000,239.800,55.230,12.380,351.800,94.630,25.200,8.199,474.000,127.800,36.960,11.040,hard
1209.000,271.700,60.320,13.640,1300.000,239.900,55.290,12.410,352.600,94.120,25.220,8.218,475.200,128.400,37.100,11.040,hard
1209.000,271.600,60.070,13.640,1298.000,239.800,55.390,12.440,354.300,93.810,25.200,8.241,476.200,128.300,37.110,11.130,hard
1210.000,272.500,60.140,13.680,1302.000,240.400,55.360,12.440,353.200,94.230,25.310,8.249,476.600,129.000,37.250,11.210,hard
1213.000,273.800,60.250,13.730,1306.000,240.800,55.410,12.480,354.400,94.830,25.330,8.260,480.700,129.300,37.560,11.240,hard
1217.000,275.500,60.780,13.820,1306.000,241.300,55.440,12.460,356.000,94.850,25.380,8.271,479.700,129.300,37.350,11.120,hard
1211.000,271.700,60.150,13.670,1305.000,240.400,55.250,12.410,351.000,93.540,25.160,8.179,472.900,127.300,36.820,11.020,hard
1207.000,272.300,60.120,13.570,1301.000,240.300,55.250,12.410,349.600,93.570,25.120,8.171,472.900,127.400,36.800,10.960,hard
1206.000,271.100,59.860,13.560,1299.000,239.800,55.210,12.440,354.200,93.550,25.140,8.208,474.700,128.000,37.050,11.090,hard
1208.000,270.600,60.320,13.580,1303.000,240.400,55.330,12.440,350.300,94.020,25.230,8.192,473.700,128.100,37.010,11.080,hard
1209.000,272.200,60.070,13.650,1303.000,240.900,55.430,12.430,349.700,94.150,25.240,8.213,478.100,128.500,37.170,11.130,hard
1211.000,271.400,60.400,13.690,1303.000,240.500,55.520,12.460,355.200,93.890,25.270,8.232,477.800,129.000,37.510,11.200,hard
1214.000,272.700,60.670,13.790,1306.000,241.400,55.520,12.490,353.100,94.440,25.290,8.249,481.500,130.100,37.610,11.200,hard
1216.000,271.800,60.500,13.680,1305.000,241.100,55.340,12.410,352.700,94.320,25.200,8.189,472.800,127.900,36.890,11.020,hard
1208.000,272.700,60.040,13.590,1306.000,240.100,55.320,12.420,350.100,94.050,25.090,8.162,471.500,127.200,36.690,10.950,hard
1206.000,270.400,59.900,13.560,1302.000,240.200,55.270,12.460,351.300,93.450,25.050,8.181,473.200,127.300,36.900,11.030,hard
1207.000,271.000,59.950,13.570,1302.000,241.000,55.470,12.450,351.800,93.790,25.130,8.193,475.300,127.800,36.980,11.050,hard
1208.000,271.400,59.970,13.640,1302.000,241.100,55.440,12.480,352.100,94.190,25.180,8.189,474.300,128.000,37.120,11.100,hard
1209.000,272.200,60.180,13.620,1301.000,239.900,55.430,12.440,351.200,94.540,25.230,8.220,476.300,128.900,37.220,11.190,hard
1212.000,271.900,60.670,13.690,1306.000,241.000,55.450,12.480,353.100,94.420,25.310,8.217,478.900,129.400,37.480,11.230,hard
1216.000,273.500,60.690,13.720,1306.000,241.300,55.340,12.450,352.700,94.700,25.290,8.230,476.800,128.700,37.000,11.020,hard
1209.000,271.000,60.200,13.610,1304.000,240.700,55.350,12.430,349.100,93.550,25.080,8.167,470.400,127.000,36.820,10.980,hard
1205.000,270.700,59.850,13.510,1302.000,241.000,55.350,12.410,349.800,93.760,25.050,8.158,472.500,127.300,36.700,10.970,hard
1206.000,269.600,59.770,13.580,1301.000,240.500,55.420,12.440,350.000,93.850,25.130,8.162,474.200,127.600,36.980,11.020,hard
1206.000,271.600,60.030,13.590,1302.000,241.100,55.560,12.440,353.600,93.800,25.190,8.207,474.400,128.200,37.120,11.040,hard
