A-DC1,A-DC2,A-DC3,A-DC4,A-DC5,A-DC6,A-DC7,A-DC8,B-DC1,B-DC2,B-DC3,B-DC4,B-DC5,B-DC6,B-DC7,B-DC8,condition
1551.000,398.300,103.800,24.310,1677.000,413.500,110.000,23.900,261.100,88.070,27.960,10.500,381.700,137.000,49.360,17.280,baseline
1547.000,395.500,103.700,24.170,1670.000,413.300,109.700,23.890,262.800,87.940,27.890,10.470,381.000,136.500,49.420,17.240,baseline
1547.000,397.600,103.500,24.230,1674.000,412.800,109.800,23.870,263.600,87.560,27.920,10.480,380.300,136.400,49.170,17.240,baseline
1545.000,397.100,103.600,24.230,1675.000,412.800,109.900,23.870,262.800,87.710,27.950,10.470,380.200,136.100,49.190,17.250,baseline
1546.000,397.300,103.900,24.290,1670.000,413.300,109.900,23.950,261.500,87.730,27.870,10.470,381.000,136.600,49.250,17.270,baseline
1549.000,398.500,104.100,24.320,1674.000,414.400,110.200,23.970,261.500,87.820,27.910,10.470,381.000,136.800,49.420,17.340,baseline
1553.000,398.200,104.400,24.430,1676.000,414.600,110.000,23.980,264.200,87.780,27.950,10.510,382.500,137.000,49.560,17.380,baseline
1556.000,400.500,104.400,24.520,1680.000,414.600,110.100,23.980,260.400,87.840,27.970,10.510,383.300,137.500,49.690,17.430,baseline
1556.000,400.800,104.300,24.310,1675.000,413.100,109.600,23.870,262.900,88.000,27.960,10.500,381.800,136.400,49.260,17.250,baseline
1543.000,397.500,103.000,24.190,1667.000,412.000,109.200,23.830,260.300,87.610,27.890,10.460,379.400,135.800,48.960,17.120,baseline
1538.000,396.100,102.900,23.970,1668.000,411.900,109.200,23.780,261.000,87.370,27.760,10.410,378.100,135.200,48.840,17.030,baseline
1537.000,396.700,102.900,23.990,1667.000,412.000,109.400,23.820,260.100,87.170,27.790,10.410,377.600,135.000,48.650,17.000,baseline
1536.000,395.800,102.800,23.920,1664.000,411.500,109.300,23.820,260.700,87.370,27.700,10.410,377.200,135.200,48.770,17.030,baseline
1537.000,393.800,102.800,24.020,1662.000,411.600,109.400,23.760,260.800,87.290,27.710,10.420,377.900,135.200,48.750,17.060,baseline
1538.000,396.100,102.800,24.090,1668.000,412.000,109.600,23.880,260.100,87.250,27.770,10.400,378.200,135.400,48.850,17.110,baseline
1542.000,395.600,103.400,24.150,1669.000,412.200,109.800,23.890,261.400,87.280,27.800,10.430,378.700,135.900,48.960,17.170,baseline
1545.000,396.500,103.500,24.300,1673.000,412.700,109.800,23.930,262.200,87.160,27.820,10.440,379.400,136.400,49.120,17.250,baseline
1549.000,397.800,104.000,24.340,1677.000,413.200,109.900,23.890,262.100,87.610,27.910,10.460,380.200,136.500,49.250,17.240,baseline
1542.000,397.600,102.900,24.020,1668.000,411.900,109.200,23.760,261.400,87.320,27.760,10.430,378.100,135.300,48.860,17.060,baseline
1533.000,393.200,102.200,23.860,1667.000,410.900,109.200,23.720,260.000,87.060,27.620,10.400,376.400,134.400,48.480,16.910,baseline
1528.000,392.600,102.100,23.820,1664.000,410.000,109.000,23.760,258.100,86.930,27.620,10.370,375.300,134.300,48.270,16.870,baseline
1529.000,392.700,102.100,23.800,1663.000,409.900,109.100,23.710,259.500,86.850,27.580,10.340,375.800,133.900,48.240,16.860,baseline
1527.000,391.800,102.400,23.810,1665.000,410.900,109.100,23.750,259.500,86.960,27.590,10.350,375.500,134.100,48.260,16.900,baseline
1531.000,393.000,102.600,23.870,1664.000,411.100,109.400,23.790,259.100,86.920,27.580,10.350,375.100,134.400,48.330,16.930,baseline
1532.000,393.000,102.400,23.950,1668.000,411.300,109.300,23.790,260.100,86.680,27.600,10.380,376.000,134.500,48.570,17.000,baseline
1536.000,394.500,102.800,24.010,1668.000,411.100,109.300,23.830,261.700,87.090,27.660,10.390,376.500,134.700,48.630,17.040,baseline
1540.000,395.700,103.500,24.150,1670.000,412.400,109.800,23.860,259.100,87.310,27.690,10.400,378.100,135.500,48.760,17.110,baseline
1543.000,396.800,103.700,24.190,1672.000,413.100,109.600,23.840,260.400,87.240,27.760,10.410,378.800,135.700,48.870,17.110,baseline
1537.000,393.500,102.300,23.840,1659.000,411.100,109.200,23.750,261.200,87.240,27.690,10.400,375.800,134.400,48.380,16.910,baseline
1528.000,393.700,102.000,23.710,1661.000,410.000,109.100,23.720,258.200,86.880,27.590,10.360,374.800,133.800,48.060,16.770,baseline
1522.000,389.900,101.800,23.640,1661.000,409.700,109.100,23.710,258.700,86.670,27.510,10.330,374.100,133.500,47.990,16.760,baseline
1523.000,390.300,101.600,23.610,1659.000,409.900,108.900,23.720,260.300,86.490,27.430,10.310,374.300,133.100,47.870,16.710,baseline
1523.000,392.300,102.100,23.710,1659.000,409.600,108.900,23.740,259.000,86.830,27.470,10.320,373.500,133.500,47.880,16.740,baseline
1523.000,391.300,101.700,23.720,1661.000,409.800,109.200,23.740,257.100,86.620,27.490,10.320,373.500,133.600,47.990,16.800,baseline
1526.000,391.400,102.000,23.730,1663.000,410.200,109.100,23.770,259.300,86.420,27.520,10.330,373.900,133.800,48.150,16.850,baseline
1528.000,391.600,102.100,23.930,1666.000,411.100,109.200,23.840,258.800,86.790,27.540,10.360,375.400,134.000,48.190,16.890,baseline
1533.000,394.300,102.900,24.010,1663.000,411.600,109.300,23.820,259.000,86.900,27.560,10.370,376.300,134.200,48.400,16.970,baseline
1534.000,393.600,102.600,23.840,1663.000,409.600,109.100,23.710,258.600,86.790,27.540,10.360,374.400,133.600,48.000,16.780,baseline
1523.000,391.200,101.400,23.640,1658.000,409.600,109.000,23.670,259.800,86.560,27.450,10.320,372.600,133.100,47.690,16.640,baseline
1517.000,390.500,101.200,23.520,1658.000,408.700,108.800,23.630,259.000,86.500,27.380,10.280,371.400,132.500,47.580,16.590,baseline
1516.000,389.900,100.900,23.570,1657.000,409.600,108.800,23.680,258.000,86.400,27.410,10.270,371.800,132.300,47.550,16.590,baseline
1516.000,389.200,101.300,23.510,1660.000,409.100,108.900,23.670,259.400,86.410,27.370,10.270,371.800,132.400,47.570,16.610,baseline
1516.000,390.000,101.200,23.580,1660.000,409.900,109.100,23.710,259.500,86.440,27.350,10.270,372.400,132.700,47.630,16.640,baseline
1519.000,390.600,101.400,23.670,1664.000,410.100,109.100,23.790,258.200,86.490,27.360,10.300,372.900,133.000,47.690,16.710,baseline
1522.000,391.000,101.900,23.800,1662.000,410.800,109.400,23.820,260.700,86.510,27.460,10.320,374.100,133.400,47.880,16.780,baseline
1527.000,392.700,102.200,23.870,1669.000,411.900,109.700,23.850,259.300,86.820,27.490,10.330,374.700,133.900,48.050,16.850,baseline
1532.000,394.500,102.900,23.980,1668.000,412.900,109.900,23.890,260.100,86.940,27.570,10.370,376.600,134.300,48.380,16.930,baseline
1536.000,395.700,103.100,24.080,1668.000,412.600,110.100,24.020,262.000,86.900,27.620,10.380,376.800,135.000,48.490,17.060,baseline
1541.000,395.200,103.200,24.220,1672.000,413.900,110.200,24.060,260.300,87.410,27.700,10.410,378.200,135.500,48.730,17.110,baseline
1548.000,398.400,103.700,24.220,1672.000,413.500,109.900,23.920,261.300,87.380,27.740,10.430,379.100,135.100,48.560,17.010,baseline
1532.000,393.900,102.300,23.870,1665.000,411.700,109.500,23.910,263.000,86.940,27.620,10.400,375.800,134.000,47.970,16.840,baseline
1526.000,392.700,101.900,23.770,1667.000,411.900,109.600,23.820,262.300,87.030,27.530,10.330,374.600,133.500,47.720,16.670,baseline
1522.000,391.400,101.900,23.740,1668.000,411.200,109.400,23.870,259.900,86.740,27.440,10.320,374.300,133.200,47.620,16.660,baseline
1522.000,391.500,101.800,23.700,1661.000,410.500,109.700,23.890,261.800,86.730,27.490,10.320,373.600,133.100,47.690,16.660,baseline
1524.000,391.700,102.100,23.760,1663.000,410.900,109.600,23.890,259.600,86.790,27.430,10.320,373.800,133.200,47.740,16.700,baseline
1526.000,391.900,102.300,23.800,1670.000,412.300,110.000,23.960,259.400,86.880,27.510,10.320,375.000,133.800,47.830,16.740,baseline
1530.000,393.400,102.300,23.930,1668.000,412.800,109.900,23.990,260.900,86.890,27.510,10.350,376.000,134.100,48.020,16.830,baseline
1534.000,392.700,102.800,23.970,1671.000,413.400,110.000,24.030,260.900,86.910,27.580,10.350,377.000,134.200,48.160,16.910,baseline
1537.000,395.000,103.400,24.090,1673.000,414.400,110.400,24.130,260.900,87.260,27.620,10.390,378.000,134.900,48.470,16.980,baseline
1542.000,397.500,103.600,24.270,1675.000,415.100,110.600,24.140,261.400,87.270,27.680,10.410,379.100,135.500,48.590,17.050,baseline
1548.000,398.700,104.000,24.350,1678.000,416.100,110.900,24.220,264.000,87.450,27.760,10.430,380.400,136.000,48.860,17.160,baseline
1553.000,400.100,104.500,24.540,1680.000,416.700,110.900,24.280,263.700,87.770,27.820,10.460,382.300,136.700,49.200,17.250,baseline
1560.000,400.400,104.500,24.430,1680.000,415.300,110.600,24.100,263.800,87.850,27.850,10.460,381.800,136.100,48.810,17.130,baseline
1543.000,396.200,103.300,24.130,1673.000,413.700,110.500,24.060,263.600,87.380,27.720,10.410,380.200,135.300,48.490,17.000,baseline
1538.000,395.700,103.000,23.990,1672.000,413.500,110.200,24.060,261.200,87.450,27.670,10.380,378.600,135.100,48.320,16.880,baseline
1537.000,395.000,103.100,24.040,1676.000,413.100,110.200,24.080,263.000,87.240,27.650,10.390,379.400,135.000,48.290,16.880,baseline
1538.000,395.000,103.200,24.110,1675.000,414.100,110.600,24.100,261.800,87.370,27.650,10.390,379.500,135.100,48.360,16.890,baseline
1541.000,396.200,103.300,24.120,1678.000,415.100,110.500,24.160,262.000,87.490,27.650,10.400,379.900,135.200,48.420,16.940,baseline
1544.000,396.700,103.800,24.200,1676.000,415.100,110.700,24.180,261.100,87.540,27.700,10.410,380.600,135.700,48.580,16.990,baseline
1547.000,397.200,103.900,24.320,1677.000,415.400,110.700,24.200,262.700,87.440,27.760,10.430,381.600,136.100,48.710,17.080,baseline
1551.000,398.000,104.300,24.380,1684.000,416.100,111.000,24.200,263.900,87.640,27.790,10.450,382.000,136.600,48.860,17.160,baseline
1555.000,399.600,104.800,24.530,1685.000,417.000,111.300,24.300,262.400,87.890,27.840,10.470,383.100,136.900,49.080,17.240,baseline
1560.000,401.100,104.800,24.640,1689.000,417.800,111.400,24.350,265.000,88.150,27.870,10.480,384.000,137.400,49.290,17.310,baseline
1568.000,404.100,105.600,24.740,1691.000,417.500,111.400,24.260,263.300,88.350,27.990,10.510,385.600,137.800,49.430,17.340,baseline
1558.000,399.800,104.100,24.400,1679.000,415.900,110.800,24.220,263.000,88.080,27.880,10.490,384.000,137.000,49.030,17.150,baseline
1550.000,398.800,103.800,24.300,1681.000,415.800,110.800,24.120,264.100,87.930,27.810,10.440,382.200,136.200,48.710,17.050,baseline
1546.000,398.400,103.600,24.200,1679.000,415.400,110.800,24.180,263.300,87.700,27.770,10.420,381.900,136.300,48.700,17.040,baseline
1548.000,397.400,103.900,24.290,1681.000,415.000,110.800,24.190,263.300,87.810,27.790,10.430,382.500,136.400,48.710,17.060,baseline
1549.000,397.900,103.800,24.320,1684.000,415.900,110.800,24.200,263.100,87.820,27.790,10.430,382.400,136.400,48.760,17.080,baseline
1550.000,398.000,104.200,24.410,1682.000,416.000,111.100,24.250,264.600,87.900,27.800,10.430,383.700,136.600,48.890,17.130,baseline
1554.000,398.600,104.200,24.490,1684.000,416.800,111.100,24.290,263.400,88.000,27.810,10.460,384.200,137.100,49.100,17.200,baseline
1557.000,398.300,104.800,24.550,1687.000,416.900,111.100,24.350,264.600,88.300,27.920,10.460,384.800,137.400,49.230,17.250,baseline
1562.000,400.700,105.100,24.590,1687.000,417.500,111.400,24.390,264.400,88.250,27.970,10.490,386.000,137.800,49.390,17.310,baseline
1566.000,400.400,105.400,24.720,1688.000,416.700,111.300,24.290,265.500,88.300,27.950,10.510,385.500,137.800,49.280,17.290,baseline
1556.000,398.200,104.200,24.370,1678.000,416.800,111.000,24.220,265.900,88.300,27.890,10.470,383.900,137.100,48.960,17.130,baseline
1552.000,398.500,103.800,24.300,1678.000,415.200,110.700,24.170,265.800,87.850,27.780,10.440,383.200,136.600,48.790,17.020,baseline
1549.000,398.400,103.700,24.300,1681.000,415.300,110.800,24.200,264.100,87.920,27.750,10.430,383.600,136.600,48.730,17.040,baseline
1551.000,397.000,104.000,24.310,1683.000,415.500,110.800,24.270,263.200,88.050,27.780,10.440,383.200,136.700,48.860,17.050,baseline
1551.000,398.600,104.100,24.390,1683.000,415.600,111.000,24.280,263.100,87.990,27.820,10.430,383.700,136.800,48.880,17.100,baseline
1555.000,397.900,104.100,24.450,1682.000,416.600,111.000,24.290,265.300,88.000,27.860,10.440,383.900,137.200,49.030,17.170,baseline
1558.000,400.300,104.700,24.540,1685.000,416.700,111.300,24.290,263.600,87.920,27.860,10.450,384.700,137.300,49.210,17.260,baseline
1561.000,400.600,104.800,24.610,1688.000,417.600,111.300,24.370,264.400,88.360,27.940,10.470,385.300,137.700,49.380,17.320,baseline
1565.000,402.700,105.200,24.670,1690.000,418.000,111.600,24.360,265.100,88.240,27.980,10.490,386.200,138.300,49.610,17.380,baseline
1570.000,402.200,105.600,24.820,1689.000,419.100,111.600,24.360,265.600,88.420,28.040,10.520,387.200,138.700,49.670,17.430,baseline
1565.000,400.900,104.600,24.510,1680.000,415.800,111.100,24.250,264.400,88.380,27.940,10.470,385.000,137.700,49.210,17.240,baseline
1555.000,399.200,104.100,24.340,1679.000,415.600,110.900,24.180,263.400,88.230,27.890,10.450,384.200,137.000,49.020,17.100,baseline
1550.000,396.900,103.800,24.290,1679.000,415.300,110.900,24.170,264.700,87.990,27.800,10.440,383.900,136.800,48.890,17.060,baseline
1549.000,397.700,103.800,24.350,1680.000,415.700,110.900,24.230,264.600,88.120,27.780,10.420,383.600,136.700,48.870,17.070,baseline
1550.000,398.000,103.800,24.380,1683.000,415.200,111.000,24.210,264.500,87.940,27.810,10.420,384.200,136.800,48.930,17.110,baseline
1552.000,398.900,103.900,24.410,1682.000,415.800,110.900,24.270,263.400,88.000,27.770,10.440,384.200,137.100,49.050,17.190,baseline
1555.000,399.600,104.200,24.480,1681.000,416.800,111.400,24.330,263.500,88.140,27.870,10.450,384.400,137.600,49.230,17.220,baseline
1559.000,401.400,104.800,24.560,1684.000,417.400,111.200,24.360,265.400,88.230,27.910,10.470,385.800,137.800,49.330,17.290,baseline
1562.000,400.800,105.500,24.660,1687.000,417.100,111.400,24.380,264.900,88.160,27.950,10.480,386.900,138.300,49.550,17.390,baseline
1569.000,402.600,105.500,24.790,1689.000,418.200,111.500,24.460,264.500,88.420,27.990,10.500,387.700,138.700,49.730,17.430,baseline
1573.000,404.600,106.000,24.890,1691.000,418.700,111.900,24.460,265.900,88.600,28.070,10.520,388.200,139.100,49.940,17.530,baseline
1579.000,406.200,106.600,25.050,1692.000,418.800,111.800,24.400,266.600,88.530,28.100,10.540,389.200,139.500,50.020,17.520,baseline
1570.000,402.100,105.000,24.570,1683.000,416.700,111.200,24.330,263.800,88.450,28.030,10.500,386.200,138.100,49.510,17.330,baseline
1556.000,399.000,104.000,24.430,1683.000,416.000,110.900,24.200,264.000,88.270,27.900,10.470,384.900,137.400,49.170,17.210,baseline
1552.000,397.700,103.800,24.330,1677.000,415.400,110.900,24.230,266.100,87.750,27.890,10.440,384.800,137.300,49.100,17.140,baseline
1553.000,397.800,103.700,24.380,1684.000,415.500,110.700,24.200,263.500,88.240,27.790,10.450,384.300,137.300,48.990,17.150,baseline
1551.000,398.400,104.000,24.370,1682.000,415.200,110.800,24.270,264.300,88.160,27.890,10.430,384.000,137.200,49.050,17.170,baseline
1553.000,398.800,103.900,24.430,1682.000,415.500,111.100,24.250,263.900,88.150,27.860,10.440,384.200,137.500,49.240,17.220,baseline
1556.000,399.100,104.600,24.500,1683.000,416.400,111.100,24.310,264.900,88.110,27.880,10.460,384.800,137.700,49.360,17.280,baseline
1559.000,399.500,104.800,24.620,1684.000,416.500,111.300,24.300,263.000,88.160,27.960,10.470,385.700,138.100,49.470,17.340,baseline
1563.000,400.000,105.500,24.680,1687.000,417.100,111.300,24.360,265.000,87.950,27.950,10.490,387.000,138.400,49.710,17.410,baseline
1567.000,402.500,105.500,24.790,1687.000,418.500,111.600,24.400,265.900,88.310,28.010,10.510,388.200,138.900,49.870,17.490,baseline
1572.000,403.900,105.700,24.900,1688.000,418.600,111.600,24.460,264.100,88.440,28.050,10.520,388.600,139.400,50.070,17.550,baseline
1578.000,404.800,106.100,25.020,1695.000,418.800,111.800,24.490,265.400,88.650,28.150,10.540,389.400,139.800,50.270,17.650,baseline
1579.000,405.300,105.900,24.790,1683.000,417.200,111.200,24.260,265.400,88.820,28.110,10.530,386.900,138.700,49.820,17.430,baseline
1560.000,400.700,104.400,24.510,1682.000,415.900,110.800,24.220,265.200,88.200,27.970,10.480,386.300,138.000,49.470,17.320,baseline
1554.000,398.100,104.100,24.470,1678.000,415.000,110.700,24.180,264.300,88.160,27.910,10.460,384.000,137.500,49.240,17.230,baseline
1552.000,398.800,104.200,24.450,1679.000,414.900,110.500,24.170,263.400,88.250,27.900,10.440,384.900,137.500,49.200,17.210,baseline
1552.000,398.500,103.900,24.410,1680.000,414.300,110.800,24.220,261.000,87.950,27.840,10.460,383.700,137.200,49.170,17.220,baseline
1554.000,398.300,104.200,24.500,1676.000,414.900,110.900,24.210,263.900,88.070,27.880,10.450,384.800,137.400,49.390,17.280,baseline
1555.000,400.800,104.600,24.510,1683.000,416.300,110.900,24.220,262.800,88.020,27.920,10.450,384.800,137.800,49.450,17.340,baseline
1560.000,399.900,104.800,24.670,1683.000,416.300,111.200,24.350,263.100,88.160,27.860,10.460,385.300,138.000,49.540,17.360,baseline
1563.000,401.700,105.300,24.630,1684.000,417.300,111.100,24.320,262.600,88.280,27.970,10.490,386.300,138.300,49.730,17.440,baseline
1566.000,402.200,105.400,24.810,1684.000,416.900,111.300,24.350,264.300,88.280,28.040,10.500,387.200,138.900,49.930,17.500,baseline
1573.000,403.100,106.000,24.910,1686.000,417.800,111.400,24.390,265.100,88.510,28.070,10.520,388.100,139.400,50.110,17.570,baseline
1576.000,403.900,105.700,24.840,1684.000,416.800,111.000,24.200,264.200,88.570,28.050,10.530,387.500,138.700,49.910,17.460,baseline
1559.000,400.900,104.400,24.520,1679.000,415.400,110.800,24.160,264.300,88.180,27.950,10.480,385.700,137.900,49.450,17.340,baseline
1552.000,398.700,104.100,24.380,1676.000,414.600,110.400,24.120,263.600,88.270,27.890,10.450,384.100,137.200,49.260,17.240,baseline
1549.000,398.400,104.000,24.420,1676.000,414.900,110.600,24.110,263.100,87.990,27.840,10.460,383.600,137.000,49.220,17.220,baseline
1550.000,397.100,103.700,24.310,1677.000,414.400,110.400,24.120,264.200,87.630,27.810,10.430,382.700,137.000,49.180,17.200,baseline
1549.000,398.000,104.100,24.370,1676.000,414.800,110.700,24.120,262.800,88.190,27.820,10.430,383.400,137.000,49.280,17.250,baseline
1551.000,399.800,104.400,24.490,1677.000,415.100,110.800,24.170,261.700,87.890,27.870,10.450,383.400,137.400,49.370,17.290,baseline
1555.000,398.800,104.500,24.550,1683.000,415.600,110.900,24.180,262.300,87.950,27.920,10.450,384.500,137.600,49.450,17.330,baseline
1557.000,400.200,104.900,24.560,1682.000,416.300,110.700,24.210,265.700,87.960,27.950,10.480,385.100,137.800,49.630,17.380,baseline
1562.000,401.500,105.000,24.650,1685.000,416.200,111.000,24.260,262.800,88.060,27.950,10.470,385.400,138.300,49.710,17.450,baseline
1563.000,402.200,104.900,24.560,1676.000,415.100,110.500,24.100,262.700,88.010,27.940,10.460,384.600,137.400,49.450,17.300,baseline
1548.000,396.600,103.800,24.310,1671.000,414.200,110.100,24.050,263.700,87.790,27.840,10.430,382.200,136.800,49.100,17.170,baseline
1543.000,395.100,103.300,24.200,1666.000,413.300,110.100,24.000,263.700,87.630,27.740,10.410,380.600,136.300,48.870,17.070,baseline
1540.000,395.400,103.600,24.210,1669.000,412.900,110.100,24.020,262.700,87.560,27.740,10.380,380.300,136.100,48.870,17.060,baseline
1539.000,394.300,103.500,24.120,1672.000,412.300,110.100,24.020,263.100,87.400,27.750,10.380,380.200,136.000,48.840,17.060,baseline
1540.000,396.300,103.300,24.180,1672.000,413.100,110.100,24.010,261.400,87.450,27.710,10.390,380.200,136.100,48.910,17.100,baseline
1542.000,396.300,103.600,24.210,1673.000,413.200,110.200,24.050,262.900,87.340,27.750,10.390,380.900,136.200,48.980,17.110,baseline
1546.000,397.400,103.800,24.310,1672.000,413.300,110.400,24.070,263.100,87.590,27.770,10.400,381.800,136.700,49.120,17.180,baseline
1547.000,397.000,103.700,24.310,1674.000,414.000,110.300,24.120,261.900,87.580,27.780,10.420,382.000,136.800,49.180,17.240,baseline
1552.000,397.600,104.200,24.470,1674.000,415.000,110.400,24.160,260.700,87.510,27.810,10.440,382.800,137.400,49.440,17.300,baseline
1555.000,400.400,104.500,24.560,1678.000,415.000,110.500,24.160,262.100,87.710,27.880,10.450,383.400,137.600,49.570,17.350,baseline
1553.000,399.000,103.700,24.320,1671.000,412.900,109.900,23.950,262.800,87.570,27.790,10.420,381.100,136.500,49.060,17.180,baseline
1539.000,395.000,103.000,24.080,1666.000,412.300,109.800,23.900,262.400,87.480,27.690,10.390,379.300,135.600,48.650,17.000,baseline
1533.000,393.900,102.500,23.940,1665.000,411.600,109.400,23.880,261.500,87.320,27.630,10.340,377.600,135.000,48.440,16.870,baseline
1531.000,392.500,102.300,23.950,1667.000,410.600,109.500,23.870,260.800,86.930,27.590,10.340,377.000,134.800,48.380,16.850,baseline
1529.000,392.400,102.600,23.960,1662.000,411.100,109.300,23.860,260.900,86.920,27.600,10.330,376.700,134.300,48.300,16.850,baseline
1530.000,392.500,102.200,23.950,1665.000,410.400,109.700,23.870,259.600,86.790,27.540,10.330,376.500,134.700,48.370,16.860,baseline
1532.000,394.600,102.400,24.050,1663.000,411.100,109.700,23.880,260.300,86.840,27.580,10.340,377.200,134.900,48.530,16.940,baseline
1535.000,393.700,102.600,24.090,1666.000,411.200,109.900,23.910,259.900,86.880,27.590,10.340,377.700,135.200,48.630,16.990,baseline
1538.000,395.800,103.200,24.130,1662.000,411.700,109.800,23.950,259.900,87.230,27.640,10.360,378.800,135.400,48.660,17.040,baseline
1541.000,395.100,103.400,24.210,1667.000,412.500,109.900,23.970,260.900,87.050,27.640,10.380,379.400,135.900,48.950,17.100,baseline
1544.000,397.400,104.000,24.310,1669.000,413.000,109.900,24.020,259.400,87.220,27.700,10.390,380.600,136.200,49.080,17.170,baseline
1549.000,398.400,104.000,24.440,1670.000,413.800,110.200,24.060,260.900,87.420,27.730,10.400,380.800,136.900,49.370,17.270,baseline
1554.000,398.400,104.700,24.490,1673.000,413.500,109.900,23.980,261.700,87.490,27.790,10.420,382.400,137.000,49.250,17.240,baseline
1543.000,395.300,103.300,24.090,1658.000,411.000,109.400,23.850,260.700,87.390,27.690,10.380,378.300,135.300,48.660,17.010,baseline
1533.000,392.200,102.600,23.890,1658.000,410.200,109.200,23.780,260.400,86.970,27.610,10.350,376.400,134.500,48.350,16.830,baseline
1527.000,391.800,102.000,23.850,1660.000,410.200,109.300,23.830,260.600,86.690,27.530,10.300,374.700,134.100,48.120,16.780,baseline
1527.000,392.500,102.100,23.790,1657.000,410.000,109.300,23.800,260.000,86.750,27.490,10.290,374.800,134.100,48.060,16.740,baseline
1526.000,392.500,102.100,23.840,1658.000,409.600,109.500,23.820,258.400,86.470,27.510,10.310,374.200,133.900,48.020,16.760,baseline
1526.000,392.300,102.200,23.810,1661.000,410.100,109.400,23.870,260.100,86.430,27.470,10.310,374.600,133.900,48.090,16.810,baseline
1528.000,393.000,102.300,23.900,1658.000,410.200,109.600,23.840,259.900,86.710,27.500,10.320,375.200,134.200,48.200,16.830,baseline
1531.000,393.300,102.900,23.990,1661.000,411.300,109.700,23.890,259.900,86.710,27.570,10.340,376.100,134.500,48.330,16.920,baseline
1535.000,394.300,103.100,24.040,1660.000,410.500,109.800,23.930,260.000,86.810,27.550,10.340,375.900,134.800,48.430,16.980,baseline
1538.000,394.000,103.200,24.170,1668.000,411.800,110.000,23.910,259.400,86.920,27.600,10.360,377.700,135.200,48.720,17.040,baseline
1542.000,394.500,103.700,24.210,1666.000,412.800,109.900,24.040,260.200,86.900,27.660,10.370,378.400,135.500,48.870,17.100,baseline
1546.000,397.400,104.000,24.400,1671.000,412.700,110.200,24.040,261.200,87.150,27.710,10.390,379.600,136.100,49.050,17.160,baseline
1547.000,396.700,103.900,24.100,1663.000,411.800,109.600,23.860,260.200,86.970,27.640,10.390,377.200,135.000,48.500,16.950,baseline
1531.000,393.000,102.300,23.920,1659.000,410.700,109.500,23.800,259.800,86.730,27.530,10.340,375.400,134.100,48.170,16.840,baseline
1527.000,393.100,102.000,23.840,1659.000,409.500,109.200,23.800,258.900,86.500,27.460,10.310,373.600,133.500,48.020,16.720,baseline
1524.000,392.000,102.300,23.820,1661.000,409.800,109.600,23.810,258.800,86.500,27.460,10.300,373.500,133.300,47.970,16.710,baseline
1524.000,391.200,102.000,23.750,1658.000,409.000,109.200,23.800,258.600,86.550,27.390,10.280,373.300,133.200,47.890,16.670,baseline
1524.000,392.600,102.400,23.810,1659.000,409.500,109.300,23.760,257.100,86.470,27.430,10.290,372.800,133.100,48.010,16.740,baseline
1525.000,391.600,102.600,23.870,1660.000,410.100,109.500,23.850,257.900,86.280,27.410,10.300,374.200,133.500,48.050,16.780,baseline
1528.000,393.700,102.700,23.920,1661.000,410.000,109.500,23.860,258.100,86.260,27.480,10.300,374.500,134.100,48.180,16.830,baseline
1531.000,393.900,102.500,24.030,1658.000,411.100,109.500,23.880,257.600,86.630,27.510,10.330,375.200,134.400,48.250,16.920,baseline
1535.000,393.700,103.300,24.100,1660.000,411.500,109.900,23.970,259.400,86.740,27.570,10.330,375.800,134.800,48.450,16.950,baseline
1539.000,394.900,103.600,24.170,1665.000,412.000,110.000,24.000,261.300,86.860,27.580,10.350,377.300,135.400,48.770,17.080,baseline
1545.000,397.000,104.200,24.320,1669.000,412.100,109.900,23.940,259.700,86.990,27.620,10.360,378.500,135.700,48.770,17.090,baseline
1539.000,393.900,103.000,23.960,1658.000,410.500,109.400,23.820,259.800,86.680,27.590,10.350,374.200,134.000,48.250,16.860,baseline
1527.000,391.200,102.200,23.820,1655.000,409.400,109.000,23.770,259.500,86.510,27.470,10.300,373.200,133.200,47.800,16.720,baseline
1520.000,390.300,101.600,23.690,1651.000,408.900,109.200,23.750,258.100,86.360,27.390,10.270,371.900,132.700,47.710,16.640,baseline
1521.000,389.600,102.000,23.660,1654.000,408.000,109.300,23.770,258.500,86.260,27.350,10.270,372.000,132.900,47.690,16.600,baseline
1519.000,390.500,101.500,23.690,1656.000,408.900,109.200,23.770,257.600,86.070,27.340,10.250,372.200,132.900,47.570,16.630,baseline
1520.000,391.100,102.100,23.760,1654.000,409.300,109.300,23.810,256.800,86.210,27.360,10.260,371.600,132.800,47.760,16.650,baseline
1523.000,391.800,102.400,23.830,1661.000,410.000,109.300,23.810,257.800,86.330,27.320,10.270,372.400,133.200,47.890,16.720,baseline
1526.000,391.800,102.500,23.900,1659.000,409.700,109.200,23.840,260.200,86.420,27.390,10.280,373.300,133.400,48.000,16.780,baseline
1529.000,392.400,103.100,23.950,1660.000,410.300,109.400,23.880,259.700,86.270,27.420,10.300,374.100,133.600,48.120,16.850,baseline
1534.000,394.100,103.100,24.070,1666.000,411.200,109.700,23.940,257.400,86.500,27.530,10.330,375.200,134.200,48.370,16.930,baseline
1539.000,394.200,103.500,24.190,1668.000,412.100,110.000,24.000,261.600,86.580,27.560,10.350,376.300,134.800,48.550,17.010,baseline
1544.000,397.500,103.700,24.250,1667.000,412.300,110.300,24.040,261.600,86.960,27.620,10.370,378.100,135.500,48.840,17.090,baseline
1550.000,398.100,104.400,24.330,1670.000,413.000,110.000,23.950,260.900,87.150,27.720,10.390,378.200,135.800,48.880,17.070,baseline
1536.000,394.600,102.800,23.980,1660.000,409.900,109.600,23.830,259.800,86.750,27.540,10.340,374.900,134.200,48.170,16.880,baseline
1526.000,391.300,102.200,23.820,1657.000,409.300,109.200,23.780,259.700,86.460,27.480,10.310,373.100,133.200,47.860,16.700,baseline
1521.000,391.500,102.000,23.700,1657.000,408.400,109.300,23.790,259.200,86.280,27.370,10.270,371.700,132.600,47.680,16.650,baseline
1521.000,392.300,102.200,23.700,1656.000,409.200,109.100,23.750,257.200,86.240,27.370,10.260,371.300,132.500,47.620,16.640,baseline
1520.000,390.300,102.200,23.690,1652.000,409.700,109.400,23.800,258.400,86.140,27.410,10.250,371.100,132.600,47.730,16.660,baseline
1521.000,389.700,102.300,23.750,1658.000,409.300,109.300,23.820,257.800,86.080,27.330,10.270,372.100,132.900,47.760,16.670,baseline
1523.000,391.700,102.500,23.860,1658.000,409.500,109.500,23.820,258.200,86.130,27.370,10.290,372.400,133.200,47.860,16.770,baseline
1527.000,391.200,102.800,23.910,1657.000,410.500,109.400,23.870,260.100,86.320,27.480,10.290,373.400,133.500,48.060,16.820,baseline
1531.000,393.300,102.800,23.970,1662.000,410.300,109.800,23.880,260.100,86.420,27.540,10.310,374.100,134.000,48.210,16.900,baseline
1535.000,394.200,103.200,24.090,1663.000,411.600,110.000,23.970,259.300,86.460,27.520,10.340,375.700,134.600,48.450,16.960,baseline
1540.000,395.900,103.800,24.220,1664.000,412.300,109.900,24.020,260.400,86.600,27.610,10.360,376.500,135.000,48.670,17.060,baseline
1545.000,396.500,103.800,24.330,1669.000,412.900,110.200,24.060,261.600,86.900,27.640,10.380,378.300,135.800,48.790,17.140,baseline
1552.000,398.900,104.400,24.380,1669.000,411.400,110.100,23.940,260.200,87.380,27.670,10.400,378.400,135.600,48.830,17.100,baseline
1535.000,394.800,102.700,23.940,1663.000,410.300,109.700,23.880,260.400,86.550,27.560,10.350,375.400,134.000,48.300,16.920,baseline
1528.000,392.700,102.300,23.840,1659.000,409.300,109.300,23.810,260.500,86.700,27.460,10.320,373.500,133.700,48.040,16.810,baseline
1523.000,391.100,102.100,23.790,1661.000,409.200,109.200,23.820,257.100,86.530,27.480,10.300,372.600,133.300,47.940,16.780,baseline
1525.000,392.000,102.300,23.720,1659.000,410.100,109.600,23.830,258.500,86.290,27.410,10.300,373.100,133.000,47.970,16.730,baseline
1524.000,391.700,102.400,23.810,1660.000,409.500,109.400,23.830,258.500,86.510,27.480,10.300,373.000,133.200,47.970,16.770,baseline
1527.000,392.700,102.600,23.900,1662.000,410.100,109.500,23.910,257.500,86.260,27.420,10.320,372.800,133.600,48.090,16.860,baseline
1530.000,393.500,102.600,23.990,1662.000,411.000,109.800,23.840,257.700,86.520,27.520,10.310,374.500,133.900,48.270,16.910,baseline
1533.000,394.000,103.200,24.000,1666.000,410.900,109.700,23.960,259.200,86.600,27.520,10.340,375.800,134.300,48.450,16.970,baseline
1537.000,394.800,103.400,24.120,1669.000,412.200,110.200,24.000,258.400,86.910,27.560,10.350,376.500,134.800,48.560,17.050,baseline
1542.000,396.400,103.600,24.230,1668.000,412.200,110.200,23.990,259.800,86.890,27.610,10.360,377.300,135.300,48.860,17.120,baseline
1548.000,397.800,104.100,24.370,1670.000,413.100,110.400,24.060,261.100,87.030,27.680,10.380,378.800,136.000,49.090,17.190,baseline
1551.000,398.500,103.800,24.290,1668.000,411.200,109.700,23.910,260.000,87.240,27.700,10.410,377.500,135.200,48.680,17.060,baseline
1531.000,394.300,102.300,23.940,1660.000,410.000,109.700,23.860,260.400,86.740,27.500,10.340,375.100,134.100,48.280,16.870,baseline
1527.000,392.500,102.000,23.760,1656.000,409.900,109.300,23.780,259.700,86.430,27.490,10.320,373.600,133.300,47.970,16.770,baseline
1523.000,391.800,102.300,23.790,1657.000,409.600,109.400,23.840,259.300,86.510,27.440,10.300,373.200,133.300,48.010,16.770,baseline
1522.000,392.200,102.300,23.720,1655.000,409.200,109.300,23.790,257.400,86.360,27.420,10.270,372.900,133.400,47.910,16.780,baseline
1524.000,391.300,102.500,23.820,1658.000,410.500,109.300,23.830,259.300,86.410,27.450,10.300,373.100,133.200,48.050,16.810,baseline
1525.000,392.000,102.300,23.870,1656.000,410.300,109.400,23.880,259.300,86.440,27.460,10.300,374.500,133.900,48.130,16.850,baseline
1529.000,392.400,102.600,23.930,1660.000,410.600,109.500,23.920,259.300,86.390,27.460,10.320,374.700,133.900,48.210,16.940,baseline
1534.000,393.300,103.200,24.050,1663.000,411.100,109.800,23.910,260.000,86.650,27.500,10.330,375.700,134.600,48.500,16.990,baseline
1537.000,393.900,103.500,24.160,1663.000,411.400,110.000,23.940,259.000,86.880,27.560,10.350,376.100,135.000,48.560,17.070,baseline
1542.000,396.300,103.900,24.240,1666.000,412.100,110.000,23.990,259.200,87.010,27.590,10.380,377.700,135.600,48.940,17.110,baseline
1547.000,398.700,104.300,24.410,1674.000,412.800,110.300,24.080,260.900,87.220,27.700,10.390,379.000,136.200,49.070,17.200,baseline
1552.000,399.400,104.200,24.310,1668.000,411.600,109.900,23.910,261.800,87.030,27.740,10.390,379.100,135.600,48.850,17.110,baseline
1533.000,392.900,102.800,23.980,1661.000,409.000,109.500,23.860,260.300,86.790,27.600,10.350,375.500,134.400,48.410,16.940,baseline
1526.000,391.700,102.200,23.880,1657.000,408.900,109.200,23.780,258.600,86.580,27.470,10.320,374.400,133.600,48.010,16.810,baseline
1521.000,390.100,101.800,23.790,1654.000,409.300,109.100,23.800,259.500,86.260,27.420,10.310,373.900,133.400,48.040,16.790,baseline
1521.000,390.200,102.100,23.780,1656.000,409.100,109.200,23.800,258.500,86.460,27.450,10.290,373.300,133.500,47.980,16.750,baseline
1522.000,390.500,102.500,23.780,1658.000,409.200,109.100,23.820,260.700,86.410,27.440,10.290,373.300,133.400,48.030,16.790,baseline
1523.000,391.500,102.100,23.880,1656.000,408.700,109.300,23.850,258.800,86.550,27.480,10.300,374.300,133.700,48.090,16.860,baseline
1526.000,392.300,102.800,23.920,1658.000,410.200,109.400,23.870,260.300,86.470,27.460,10.330,374.600,133.800,48.250,16.900,baseline
1530.000,391.900,102.700,23.960,1660.000,409.600,109.800,23.850,258.100,86.690,27.570,10.330,374.800,134.200,48.370,16.940,baseline
1533.000,392.300,102.900,24.020,1660.000,410.500,109.700,23.920,259.000,86.900,27.570,10.340,376.300,134.600,48.520,17.020,baseline
1537.000,395.200,103.300,24.190,1665.000,411.000,109.800,24.000,261.000,86.820,27.630,10.360,377.100,135.200,48.740,17.100,baseline
1541.000,395.500,103.900,24.260,1666.000,411.600,110.000,23.950,259.000,86.980,27.650,10.370,378.200,135.600,48.880,17.150,baseline
1541.000,395.600,103.300,24.040,1659.000,409.600,109.400,23.820,260.700,86.850,27.630,10.380,376.500,134.500,48.460,16.960,baseline
1527.000,392.200,102.600,23.890,1660.000,408.700,109.200,23.790,260.700,86.640,27.500,10.340,374.600,133.800,48.110,16.850,baseline
1521.000,390.400,101.900,23.720,1654.000,408.100,109.000,23.780,258.300,86.650,27.460,10.300,373.800,133.300,47.910,16.750,baseline
1520.000,390.600,102.100,23.690,1654.000,408.200,109.100,23.760,259.500,86.290,27.420,10.290,373.600,133.100,47.950,16.750,baseline
1519.000,390.600,101.900,23.750,1653.000,408.700,109.000,23.770,260.400,86.170,27.450,10.270,373.400,133.400,47.900,16.770,baseline
1520.000,389.800,101.900,23.720,1654.000,408.900,109.100,23.760,257.100,86.300,27.410,10.290,373.400,133.200,48.030,16.790,baseline
1521.000,390.900,102.000,23.770,1655.000,408.500,109.200,23.750,259.700,86.330,27.450,10.300,373.600,133.600,48.160,16.810,baseline
1523.000,391.800,102.500,23.870,1652.000,408.400,109.300,23.830,260.300,86.490,27.500,10.310,374.800,134.100,48.250,16.900,baseline
1528.000,392.500,102.700,23.990,1657.000,409.400,109.300,23.860,259.100,86.630,27.470,10.320,375.100,134.400,48.360,16.940,baseline
1530.000,393.200,103.100,24.010,1655.000,409.200,109.400,23.810,260.000,86.600,27.510,10.340,376.200,134.400,48.390,16.940,baseline
1523.000,389.600,102.100,23.760,1652.000,407.700,108.700,23.670,259.100,86.380,27.480,10.300,374.300,133.200,48.010,16.770,baseline
1515.000,388.800,101.800,23.620,1647.000,407.100,108.800,23.610,257.900,86.450,27.350,10.270,372.000,132.700,47.720,16.640,baseline
1510.000,386.600,101.000,23.470,1652.000,406.900,108.500,23.660,259.600,86.090,27.330,10.240,371.400,132.300,47.610,16.610,baseline
1511.000,387.200,101.300,23.520,1649.000,406.800,108.600,23.620,257.900,86.140,27.300,10.240,371.800,132.300,47.620,16.610,baseline
1510.000,387.600,101.200,23.490,1651.000,407.500,108.500,23.640,259.300,85.960,27.330,10.250,371.500,132.600,47.540,16.640,baseline
1511.000,388.200,101.400,23.590,1651.000,406.700,108.500,23.700,259.100,86.090,27.290,10.250,372.000,132.600,47.720,16.670,baseline
1515.000,388.900,101.800,23.640,1652.000,407.400,108.700,23.690,258.500,86.170,27.300,10.280,372.500,132.700,47.730,16.720,baseline
1517.000,390.000,101.900,23.710,1650.000,407.600,108.900,23.740,259.800,86.090,27.390,10.280,372.800,133.300,47.910,16.800,baseline
1521.000,390.400,101.800,23.800,1654.000,408.500,109.000,23.780,258.000,86.480,27.420,10.300,373.700,133.700,48.080,16.860,baseline
1525.000,391.700,102.800,23.930,1655.000,408.400,109.300,23.780,259.400,86.370,27.460,10.300,374.700,134.000,48.190,16.910,baseline
1524.000,389.600,102.200,23.650,1648.000,407.200,108.600,23.650,260.400,86.380,27.440,10.310,372.800,133.000,47.670,16.720,baseline
1510.000,389.000,101.300,23.520,1642.000,406.300,108.400,23.570,257.700,86.290,27.300,10.260,370.600,132.100,47.470,16.560,baseline
1505.000,385.600,100.600,23.360,1646.000,405.200,108.500,23.620,257.300,85.870,27.230,10.210,369.800,131.700,47.210,16.470,baseline
1503.000,385.100,100.700,23.370,1643.000,405.200,108.100,23.550,256.100,85.880,27.230,10.210,369.200,131.500,47.160,16.480,baseline
1502.000,384.900,100.900,23.360,1640.000,405.500,108.100,23.550,256.500,85.780,27.250,10.210,369.000,131.300,47.160,16.480,baseline
1503.000,385.400,100.800,23.420,1643.000,405.800,108.400,23.600,257.800,85.820,27.150,10.210,369.000,131.800,47.210,16.520,baseline
1506.000,386.600,100.900,23.400,1642.000,406.100,108.500,23.580,258.600,85.740,27.210,10.230,369.600,131.900,47.400,16.560,baseline
1508.000,386.100,101.600,23.540,1645.000,406.700,108.700,23.670,257.000,85.810,27.270,10.250,370.800,132.100,47.440,16.650,baseline
1512.000,387.300,101.500,23.580,1648.000,407.000,108.600,23.710,258.300,86.080,27.260,10.260,371.100,132.500,47.550,16.700,baseline
1516.000,389.600,101.800,23.760,1645.000,407.800,108.700,23.710,258.500,86.000,27.300,10.260,372.300,133.000,47.860,16.740,baseline
1520.000,390.600,102.200,23.850,1653.000,407.800,109.000,23.820,258.700,86.310,27.350,10.300,373.400,133.500,48.030,16.870,baseline
1526.000,392.500,103.000,23.970,1656.000,408.900,109.400,23.830,259.300,86.450,27.420,10.310,374.500,134.100,48.230,16.930,baseline
1532.000,394.700,103.000,24.130,1658.000,409.500,109.700,23.870,261.100,86.760,27.520,10.320,375.400,134.500,48.390,16.970,baseline
1529.000,391.700,102.300,23.750,1653.000,407.600,108.800,23.710,259.200,86.540,27.490,10.320,374.100,133.100,47.810,16.760,baseline
1514.000,389.900,101.100,23.580,1647.000,406.400,108.500,23.630,256.800,86.150,27.350,10.280,370.900,132.200,47.530,16.600,baseline
1507.000,386.400,100.700,23.380,1641.000,405.700,108.400,23.620,256.400,85.910,27.240,10.230,370.000,131.500,47.240,16.480,baseline
1505.000,387.400,100.900,23.380,1648.000,405.700,108.400,23.580,258.900,86.040,27.190,10.220,369.900,131.500,47.160,16.460,baseline
1504.000,387.400,100.800,23.420,1642.000,405.800,108.300,23.620,257.100,85.700,27.180,10.220,369.300,131.500,47.120,16.460,baseline
1507.000,388.400,101.000,23.450,1644.000,405.900,108.600,23.570,257.500,85.940,27.210,10.210,370.000,131.400,47.220,16.490,baseline
1509.000,387.100,101.500,23.510,1646.000,406.600,108.500,23.650,258.400,85.710,27.220,10.230,370.000,131.800,47.380,16.590,baseline
1511.000,390.100,101.600,23.550,1648.000,407.200,108.600,23.660,257.300,85.870,27.260,10.240,371.100,132.200,47.510,16.620,baseline
1514.000,388.700,101.800,23.670,1650.000,407.200,109.000,23.700,258.400,86.110,27.280,10.260,371.500,132.300,47.640,16.650,baseline
1518.000,389.800,102.000,23.720,1656.000,408.300,109.300,23.790,258.800,86.080,27.320,10.270,372.100,132.900,47.790,16.740,baseline
1523.000,391.400,102.600,23.870,1652.000,409.000,109.200,23.800,258.900,86.220,27.390,10.310,373.100,133.600,48.010,16.820,baseline
1528.000,393.500,102.700,24.010,1655.000,409.400,109.400,23.810,258.600,86.460,27.430,10.320,374.900,133.900,48.110,16.860,baseline
1525.000,391.800,101.800,23.640,1651.000,407.500,108.800,23.670,259.800,86.550,27.390,10.310,373.000,132.700,47.670,16.710,baseline
1512.000,388.500,101.600,23.530,1645.000,406.400,108.400,23.580,258.000,86.240,27.330,10.260,371.200,132.100,47.350,16.550,baseline
1507.000,387.400,101.000,23.440,1644.000,405.700,108.500,23.630,256.300,85.990,27.210,10.230,370.300,131.700,47.110,16.490,baseline
1507.000,387.300,101.400,23.490,1644.000,406.000,108.500,23.580,258.400,85.990,27.230,10.220,370.000,131.500,47.140,16.500,baseline
1508.000,387.500,101.300,23.470,1645.000,405.800,108.600,23.650,259.100,85.840,27.220,10.220,370.400,131.400,47.250,16.490,baseline
1508.000,387.400,101.500,23.520,1647.000,406.200,108.900,23.720,256.800,86.150,27.190,10.240,369.600,131.800,47.330,16.510,baseline
1513.000,389.000,101.600,23.560,1646.000,406.700,108.800,23.680,256.300,85.910,27.280,10.240,370.100,132.000,47.350,16.600,baseline
1514.000,388.100,101.800,23.650,1650.000,407.300,108.700,23.700,258.300,85.940,27.270,10.260,371.800,132.300,47.470,16.640,baseline
1517.000,389.700,101.700,23.720,1651.000,408.000,109.000,23.760,257.100,85.980,27.320,10.280,372.000,132.700,47.730,16.720,baseline
1522.000,390.800,102.100,23.830,1652.000,408.600,109.000,23.740,259.900,86.270,27.390,10.290,372.900,133.000,47.800,16.770,baseline
1520.000,390.000,101.900,23.600,1648.000,406.800,108.700,23.660,259.200,86.260,27.380,10.280,371.900,132.200,47.390,16.610,baseline
1510.000,386.400,100.900,23.450,1649.000,405.800,108.400,23.620,257.300,86.070,27.260,10.250,370.100,131.500,47.080,16.460,baseline
1505.000,387.000,100.800,23.400,1642.000,404.800,108.600,23.590,257.900,85.960,27.160,10.220,369.200,130.900,47.000,16.400,baseline
1506.000,385.700,101.000,23.380,1644.000,406.100,108.300,23.610,257.100,85.780,27.200,10.200,368.500,131.000,46.960,16.410,baseline
1504.000,386.300,100.700,23.430,1646.000,405.500,108.500,23.600,258.600,85.690,27.140,10.200,368.800,131.200,47.000,16.410,baseline
1506.000,386.600,100.900,23.430,1646.000,406.200,108.500,23.650,256.800,85.670,27.170,10.210,369.200,131.300,47.100,16.460,baseline
1509.000,387.300,101.300,23.430,1648.000,406.100,108.800,23.650,257.400,85.670,27.210,10.230,369.400,131.700,47.240,16.550,baseline
1514.000,388.000,101.400,23.600,1647.000,407.100,108.700,23.750,258.600,85.960,27.250,10.250,370.900,132.100,47.370,16.590,baseline
1517.000,390.200,101.800,23.730,1648.000,407.800,108.900,23.760,257.200,86.080,27.280,10.260,371.300,132.400,47.590,16.680,baseline
1521.000,391.000,102.300,23.770,1654.000,408.300,109.400,23.810,259.700,86.060,27.360,10.280,372.500,133.000,47.790,16.770,baseline
1527.000,392.500,102.700,23.870,1653.000,409.000,109.200,23.780,259.900,86.540,27.400,10.300,373.900,133.400,47.880,16.790,baseline
1521.000,390.200,101.600,23.590,1651.000,406.800,108.900,23.670,258.700,86.290,27.320,10.280,371.500,132.000,47.310,16.590,baseline
1511.000,388.000,101.200,23.470,1641.000,406.200,108.800,23.600,259.100,85.970,27.190,10.230,370.000,131.100,47.050,16.410,baseline
1505.000,387.100,100.600,23.350,1646.000,406.300,108.500,23.570,258.900,85.900,27.150,10.200,368.800,131.000,46.860,16.360,baseline
1506.000,387.400,100.800,23.320,1646.000,405.500,108.700,23.630,258.200,85.960,27.090,10.200,368.200,130.900,46.860,16.360,baseline
1506.000,387.800,100.900,23.390,1647.000,406.700,108.700,23.640,257.500,85.550,27.190,10.210,368.900,130.800,46.920,16.390,baseline
1508.000,386.400,101.100,23.430,1648.000,406.800,108.700,23.650,259.200,85.720,27.130,10.210,369.400,130.900,46.990,16.420,baseline
1510.000,387.600,101.300,23.500,1648.000,407.500,108.700,23.660,257.300,85.920,27.200,10.230,369.400,131.500,47.040,16.530,baseline
1514.000,390.200,101.600,23.600,1650.000,407.100,109.000,23.730,257.600,86.000,27.230,10.240,371.100,132.000,47.220,16.560,baseline
1517.000,391.200,102.100,23.690,1655.000,408.000,109.300,23.750,258.600,85.980,27.260,10.260,371.100,132.300,47.390,16.630,baseline
1522.000,390.900,102.500,23.840,1655.000,408.700,109.500,23.850,259.700,86.160,27.310,10.290,372.900,132.600,47.620,16.700,baseline
1526.000,391.800,102.600,23.960,1658.000,409.500,109.500,23.910,258.200,86.300,27.330,10.310,373.700,133.300,47.930,16.820,baseline
1533.000,393.300,102.900,24.030,1663.000,410.000,109.800,23.860,261.000,86.600,27.430,10.320,375.500,134.000,48.140,16.870,baseline
1533.000,392.300,102.500,23.800,1652.000,407.500,109.200,23.740,260.200,86.330,27.470,10.320,373.200,133.000,47.670,16.700,baseline
1519.000,389.100,101.700,23.610,1654.000,408.200,109.000,23.680,257.500,86.190,27.320,10.270,371.300,131.900,47.310,16.540,baseline
1514.000,389.000,101.400,23.500,1651.000,407.200,108.900,23.720,259.500,86.050,27.280,10.230,369.800,131.200,47.100,16.420,baseline
1512.000,387.600,101.600,23.580,1651.000,406.800,108.900,23.740,258.300,85.940,27.210,10.230,369.900,131.300,47.110,16.410,baseline
1511.000,388.300,101.300,23.480,1649.000,407.300,108.900,23.730,258.800,85.940,27.220,10.240,369.500,131.500,47.090,16.450,baseline
1512.000,388.500,101.400,23.580,1649.000,407.900,109.000,23.750,257.300,85.950,27.230,10.230,370.500,131.400,47.100,16.500,baseline
1516.000,389.700,102.100,23.640,1650.000,408.300,109.300,23.750,259.400,86.240,27.300,10.250,370.900,131.900,47.290,16.550,baseline
1519.000,389.700,101.900,23.710,1656.000,408.600,109.400,23.850,258.900,86.130,27.290,10.270,371.600,132.300,47.500,16.640,baseline
1522.000,391.600,102.100,23.790,1655.000,409.100,109.600,23.840,258.500,86.260,27.310,10.290,372.300,132.900,47.590,16.690,baseline
1526.000,392.600,102.700,23.890,1660.000,409.500,109.700,23.880,259.900,86.430,27.370,10.310,373.400,133.000,47.790,16.790,baseline
1531.000,392.700,103.300,24.030,1661.000,410.000,109.900,23.930,260.100,86.680,27.410,10.320,374.600,133.600,48.080,16.850,baseline
1535.000,395.600,103.200,23.930,1658.000,408.700,109.300,23.780,259.200,86.670,27.500,10.340,373.600,133.300,47.910,16.750,baseline
1522.000,389.500,102.300,23.720,1653.000,408.500,109.100,23.760,259.300,86.290,27.390,10.300,372.900,132.100,47.520,16.600,baseline
1517.000,389.500,101.900,23.650,1650.000,407.500,109.100,23.750,258.500,86.180,27.330,10.270,371.100,131.900,47.280,16.510,baseline
1515.000,389.800,101.700,23.650,1654.000,407.700,108.900,23.760,258.700,86.250,27.290,10.280,370.900,131.900,47.340,16.520,baseline
1515.000,389.100,101.800,23.590,1651.000,407.600,109.000,23.790,258.100,86.190,27.270,10.270,370.800,131.800,47.250,16.540,baseline
1516.000,389.100,101.600,23.650,1651.000,408.400,109.300,23.760,258.600,86.070,27.270,10.250,371.300,132.100,47.360,16.550,baseline
1519.000,389.300,102.100,23.730,1656.000,407.500,109.200,23.860,258.100,86.410,27.340,10.290,372.100,132.400,47.500,16.630,baseline
1523.000,391.000,102.400,23.770,1651.000,408.200,109.100,23.850,260.300,86.300,27.380,10.300,372.800,132.900,47.590,16.700,baseline
1525.000,392.000,102.600,23.890,1659.000,409.700,109.600,23.880,259.900,86.430,27.390,10.310,373.300,133.100,47.820,16.810,baseline
1530.000,393.200,103.100,24.030,1658.000,409.900,109.800,23.950,259.500,86.510,27.520,10.340,375.100,133.600,47.990,16.860,baseline
1534.000,393.500,103.400,24.060,1661.000,409.800,109.800,23.880,259.000,86.800,27.560,10.340,375.600,133.800,48.040,16.830,baseline
1525.000,391.200,102.000,23.800,1653.000,408.300,109.400,23.810,259.400,86.690,27.400,10.320,373.100,132.700,47.600,16.680,baseline
1519.000,390.600,101.800,23.640,1650.000,407.600,109.000,23.790,259.800,86.330,27.350,10.300,371.400,131.900,47.350,16.550,baseline
1514.000,389.800,101.300,23.570,1653.000,407.300,109.300,23.760,258.200,86.200,27.300,10.260,371.900,131.900,47.380,16.530,baseline
1516.000,389.400,101.800,23.600,1650.000,407.700,109.100,23.760,258.900,86.250,27.340,10.270,371.400,131.800,47.290,16.540,baseline
1515.000,389.600,101.700,23.700,1651.000,407.400,109.200,23.810,259.700,86.300,27.310,10.270,371.500,132.200,47.370,16.590,baseline
1519.000,390.600,102.000,23.730,1653.000,408.200,109.400,23.860,259.100,86.410,27.350,10.290,372.100,132.400,47.610,16.650,baseline
1539.000,396.200,103.500,24.160,1665.000,410.300,109.900,23.910,261.700,86.870,27.590,10.380,376.800,134.600,48.230,16.920,hard
1528.000,391.100,102.000,23.840,1657.000,408.700,109.700,23.800,260.300,86.640,27.540,10.340,374.100,133.100,47.820,16.730,hard
1521.000,390.000,102.000,23.710,1652.000,408.100,109.200,23.790,259.400,86.450,27.480,10.310,372.700,132.400,47.610,16.600,hard
1516.000,389.000,101.700,23.610,1652.000,408.300,109.100,23.810,259.100,86.230,27.410,10.270,372.300,132.200,47.440,16.560,hard
1517.000,389.100,101.800,23.700,1651.000,407.400,109.100,23.780,257.900,86.280,27.350,10.280,371.500,132.100,47.400,16.570,hard
1516.000,389.300,102.000,23.690,1650.000,407.200,109.100,23.790,259.600,86.270,27.390,10.270,372.200,132.200,47.450,16.640,hard
1517.000,390.000,101.900,23.780,1652.000,407.900,109.300,23.830,259.700,86.340,27.360,10.270,373.300,132.400,47.610,16.670,hard
1520.000,391.300,102.200,23.800,1657.000,408.900,109.200,23.880,257.300,86.430,27.400,10.310,373.500,132.900,47.710,16.730,hard
1524.000,390.700,102.400,23.900,1654.000,407.900,109.500,23.910,259.400,86.730,27.460,10.320,374.600,133.300,47.960,16.800,hard
1526.000,392.200,102.700,23.890,1655.000,410.100,109.600,23.940,260.200,86.630,27.520,10.340,375.000,133.700,48.120,16.880,hard
1532.000,393.800,103.200,24.060,1660.000,410.300,109.900,24.000,259.000,86.910,27.580,10.370,375.800,134.200,48.270,16.980,hard
1537.000,395.000,103.900,24.200,1661.000,410.400,110.200,24.010,259.400,86.960,27.600,10.390,377.300,134.900,48.510,17.030,hard
1538.000,394.500,103.000,24.090,1655.000,408.700,109.700,23.860,261.500,87.160,27.620,10.380,376.200,133.900,48.250,16.880,hard
1523.000,390.600,102.300,23.840,1649.000,407.800,109.300,23.870,260.400,86.590,27.510,10.340,374.000,133.100,47.810,16.770,hard
1518.000,390.200,101.500,23.700,1648.000,407.400,109.200,23.790,259.900,86.590,27.440,10.330,372.900,132.500,47.570,16.650,hard
1515.000,388.800,101.700,23.770,1651.000,407.500,109.100,23.780,260.100,86.520,27.440,10.300,372.500,132.600,47.670,16.640,hard
1517.000,388.400,101.900,23.700,1651.000,407.600,109.200,23.820,261.100,86.370,27.390,10.320,372.500,132.600,47.570,16.650,hard
1517.000,390.000,101.700,23.740,1649.000,408.600,109.100,23.820,260.400,86.590,27.390,10.320,373.100,132.700,47.610,16.690,hard
1519.000,389.600,102.200,23.770,1651.000,408.400,109.400,23.830,260.100,86.440,27.450,10.320,373.100,133.000,47.870,16.770,hard
1522.000,390.800,102.700,23.890,1654.000,408.200,109.300,23.910,259.800,86.600,27.480,10.340,374.100,133.600,47.930,16.810,hard
1525.000,391.900,102.900,24.000,1655.000,409.100,109.400,23.910,258.900,86.680,27.510,10.350,374.300,133.800,48.160,16.900,hard
1529.000,391.800,103.100,24.070,1659.000,408.500,109.600,23.910,262.200,86.590,27.560,10.370,375.900,134.100,48.310,16.980,hard
1533.000,393.400,103.400,24.160,1659.000,410.200,109.800,24.000,261.000,86.720,27.590,10.390,376.400,134.800,48.460,17.030,hard
1535.000,394.200,103.100,24.020,1655.000,408.200,109.500,23.860,260.100,87.000,27.600,10.380,375.400,133.900,48.130,16.870,hard
1521.000,390.500,102.500,23.850,1650.000,408.300,109.000,23.810,259.400,86.540,27.490,10.350,373.600,133.100,47.830,16.750,hard
1518.000,389.300,101.900,23.700,1647.000,407.100,109.100,23.800,258.800,86.560,27.450,10.330,372.500,132.500,47.640,16.680,hard
1516.000,389.400,101.700,23.780,1646.000,407.600,109.000,23.760,258.500,86.700,27.400,10.310,372.000,132.500,47.730,16.670,hard
1515.000,388.600,101.700,23.750,1652.000,406.600,109.000,23.810,258.300,86.420,27.420,10.310,372.000,132.500,47.650,16.680,hard
1516.000,389.200,102.100,23.780,1652.000,407.200,109.000,23.850,259.800,86.360,27.410,10.310,372.100,132.700,47.740,16.760,hard
1519.000,389.400,102.100,23.870,1649.000,407.600,109.300,23.850,259.500,86.390,27.490,10.330,373.100,133.100,47.850,16.790,hard
1523.000,391.500,102.800,23.910,1653.000,408.600,109.300,23.890,259.300,86.580,27.500,10.350,374.000,133.600,48.040,16.880,hard
1526.000,391.000,103.000,23.960,1655.000,409.000,109.700,23.970,259.100,87.050,27.550,10.370,375.300,133.800,48.270,16.940,hard
1531.000,393.400,103.100,24.130,1656.000,409.100,109.600,23.970,260.000,86.790,27.590,10.360,376.000,134.600,48.480,17.000,hard
1534.000,394.000,103.500,24.130,1652.000,409.400,109.500,23.890,260.800,87.190,27.620,10.400,376.100,134.400,48.320,16.960,hard
1522.000,390.000,101.900,23.810,1653.000,407.500,109.100,23.840,260.500,86.780,27.540,10.350,373.400,132.900,47.890,16.790,hard
1516.000,390.600,101.900,23.720,1647.000,406.700,109.100,23.750,259.900,86.490,27.450,10.320,372.600,132.500,47.590,16.660,hard
1514.000,388.600,101.500,23.750,1649.000,406.700,109.000,23.740,259.400,86.380,27.400,10.310,372.000,132.500,47.550,16.650,hard
1513.000,388.000,101.800,23.690,1646.000,407.400,109.000,23.750,258.500,86.470,27.420,10.290,371.500,132.400,47.560,16.640,hard
1514.000,388.000,101.400,23.690,1649.000,406.700,109.000,23.780,260.300,86.250,27.440,10.310,371.400,132.500,47.580,16.690,hard
1516.000,389.200,101.900,23.770,1649.000,407.400,109.100,23.810,259.500,86.450,27.340,10.320,371.400,132.800,47.760,16.740,hard
1519.000,389.400,102.000,23.880,1655.000,407.700,109.000,23.810,258.000,86.670,27.440,10.330,372.500,133.200,47.930,16.810,hard
1523.000,390.600,102.700,23.930,1652.000,408.300,109.200,23.870,260.000,86.470,27.520,10.340,373.800,133.600,48.120,16.870,hard
1527.000,390.900,103.000,24.060,1654.000,408.500,109.500,23.940,258.600,86.650,27.540,10.360,374.600,134.100,48.200,16.940,hard
1532.000,392.400,103.300,24.180,1656.000,409.700,109.600,23.970,260.500,86.910,27.600,10.380,376.100,134.500,48.510,16.990,hard
1535.000,393.900,103.100,24.070,1653.000,408.000,109.400,23.830,259.300,86.940,27.620,10.400,375.600,134.000,48.180,16.900,hard
1519.000,388.900,102.100,23.800,1651.000,406.800,108.900,23.810,261.700,86.460,27.460,10.360,373.400,132.900,47.820,16.750,hard
1515.000,388.900,101.500,23.770,1650.000,406.200,108.800,23.750,259.600,86.440,27.370,10.320,371.900,132.100,47.580,16.660,hard
1512.000,388.100,101.400,23.730,1650.000,407.400,108.900,23.770,259.300,86.300,27.380,10.290,371.800,132.200,47.550,16.630,hard
1513.000,388.300,101.800,23.710,1646.000,406.000,108.900,23.730,258.000,86.310,27.410,10.300,371.000,132.200,47.550,16.650,hard
1514.000,389.000,101.700,23.690,1647.000,407.100,108.900,23.740,258.600,86.350,27.360,10.300,371.000,132.400,47.620,16.690,hard
1517.000,388.200,101.900,23.770,1651.000,407.000,109.200,23.820,258.600,86.680,27.370,10.310,371.800,132.700,47.750,16.750,hard
1520.000,390.700,102.300,23.900,1654.000,407.100,109.200,23.820,258.200,86.680,27.460,10.330,372.700,133.200,47.960,16.830,hard
1523.000,390.500,103.200,23.960,1655.000,407.800,109.200,23.880,258.400,86.550,27.480,10.340,374.000,133.500,48.060,16.880,hard
1528.000,392.800,103.000,24.010,1656.000,408.700,109.500,23.930,259.800,86.690,27.570,10.340,374.700,133.900,48.270,16.960,hard
1532.000,394.000,103.600,24.060,1656.000,409.300,109.200,23.800,258.700,86.790,27.560,10.380,375.400,134.300,48.310,16.940,hard
1523.000,390.100,102.300,23.810,1647.000,407.200,109.000,23.690,258.800,86.560,27.490,10.340,372.500,133.000,47.820,16.760,hard
1514.000,389.700,101.700,23.700,1643.000,407.000,108.800,23.680,258.200,86.390,27.400,10.320,371.200,132.500,47.590,16.650,hard
1511.000,389.700,101.800,23.650,1645.000,406.200,108.900,23.680,258.400,86.170,27.370,10.290,371.000,132.200,47.480,16.620,hard
1513.000,387.400,101.500,23.670,1647.000,406.800,108.800,23.680,258.800,86.050,27.360,10.290,370.700,131.900,47.570,16.640,hard
1513.000,389.200,101.600,23.700,1644.000,406.000,108.900,23.700,257.600,86.220,27.360,10.300,371.100,132.200,47.650,16.680,hard
1515.000,388.200,101.800,23.730,1648.000,407.600,108.800,23.730,259.100,86.400,27.410,10.320,371.200,132.600,47.700,16.750,hard
1519.000,390.400,102.000,23.830,1649.000,407.600,109.000,23.800,257.900,86.380,27.430,10.310,372.400,132.900,47.840,16.790,hard
1521.000,392.000,102.600,23.910,1651.000,407.400,109.200,23.810,258.400,86.360,27.470,10.340,373.000,133.400,47.960,16.870,hard
1525.000,391.600,102.900,24.000,1654.000,409.000,109.400,23.870,259.500,86.590,27.480,10.360,374.500,133.800,48.230,16.920,hard
1532.000,392.600,103.100,24.090,1655.000,408.600,109.200,23.810,261.000,86.630,27.550,10.380,375.400,134.200,48.310,16.930,hard
1524.000,390.300,102.100,23.760,1648.000,406.800,108.800,23.700,257.700,86.530,27.480,10.350,372.200,132.500,47.810,16.780,hard
1515.000,387.900,101.800,23.600,1645.000,405.900,108.600,23.620,257.300,86.160,27.410,10.310,371.000,132.100,47.520,16.640,hard
1511.000,387.600,101.400,23.560,1644.000,406.400,108.700,23.640,258.700,86.200,27.320,10.270,369.600,131.900,47.470,16.590,hard
1511.000,387.800,101.800,23.560,1643.000,405.900,108.600,23.630,257.300,86.000,27.290,10.280,370.000,131.800,47.340,16.600,hard
1511.000,387.400,101.600,23.610,1643.000,406.000,108.600,23.680,257.200,86.120,27.300,10.270,369.900,131.600,47.510,16.630,hard
1513.000,389.300,101.800,23.660,1648.000,406.400,109.000,23.660,258.400,86.010,27.310,10.290,370.000,131.900,47.540,16.670,hard
1516.000,390.700,101.800,23.760,1647.000,406.300,108.900,23.720,258.800,86.200,27.350,10.310,371.100,132.700,47.680,16.750,hard
1519.000,391.400,102.300,23.860,1651.000,407.400,109.000,23.750,257.300,86.620,27.380,10.320,372.100,133.100,47.890,16.830,hard
1523.000,391.700,102.700,23.950,1656.000,407.300,109.200,23.830,258.700,86.420,27.400,10.340,373.300,133.400,48.060,16.910,hard
1527.000,392.200,102.900,23.970,1650.000,408.100,109.400,23.860,260.300,86.610,27.530,10.360,374.200,133.900,48.230,16.950,hard
1530.000,392.200,102.800,23.840,1649.000,406.300,108.900,23.710,259.500,86.800,27.500,10.340,372.700,133.100,47.930,16.800,hard
1515.000,388.200,101.800,23.600,1648.000,405.500,108.500,23.640,258.800,86.170,27.430,10.310,370.500,132.000,47.600,16.660,hard
1511.000,387.200,101.300,23.570,1640.000,405.300,108.600,23.610,259.300,85.930,27.330,10.270,369.200,131.500,47.360,16.580,hard
1510.000,387.400,101.800,23.610,1638.000,404.500,108.400,23.620,258.900,86.130,27.270,10.280,369.500,131.800,47.440,16.570,hard
1510.000,387.700,101.400,23.570,1644.000,405.200,108.700,23.620,257.900,86.030,27.300,10.270,369.300,131.600,47.340,16.590,hard
1512.000,388.000,101.700,23.620,1643.000,406.300,108.700,23.630,257.400,86.040,27.340,10.270,369.700,132.000,47.500,16.650,hard
1515.000,387.800,101.800,23.750,1647.000,406.400,108.800,23.670,257.500,86.110,27.310,10.290,371.300,132.300,47.570,16.700,hard
1518.000,390.000,101.900,23.780,1648.000,406.700,109.000,23.720,257.400,86.150,27.330,10.310,371.600,132.500,47.800,16.770,hard
1521.000,391.700,102.100,23.890,1651.000,406.700,109.000,23.790,258.100,86.290,27.400,10.320,372.000,133.100,47.980,16.840,hard
1526.000,392.700,102.700,23.940,1654.000,407.600,109.200,23.800,257.000,86.480,27.450,10.350,372.900,133.600,48.180,16.910,hard
1526.000,391.300,102.700,23.840,1643.000,405.700,108.700,23.650,259.200,86.560,27.460,10.350,372.700,132.500,47.780,16.760,hard
1513.000,388.000,101.900,23.610,1642.000,405.100,108.600,23.600,258.500,85.910,27.350,10.290,370.100,131.700,47.440,16.590,hard
1508.000,387.000,101.400,23.560,1642.000,404.600,108.200,23.590,258.200,85.930,27.270,10.270,368.900,131.500,47.220,16.520,hard
1508.000,387.300,101.400,23.620,1641.000,405.200,108.500,23.570,258.600,85.990,27.260,10.260,369.300,131.500,47.350,16.550,hard
1508.000,386.400,101.300,23.560,1639.000,404.900,108.500,23.550,258.100,85.900,27.270,10.260,368.700,131.400,47.260,16.570,hard
1510.000,387.000,101.700,23.630,1641.000,405.800,108.500,23.610,256.600,85.790,27.260,10.280,368.700,131.700,47.400,16.600,hard
1513.000,389.000,101.700,23.680,1645.000,405.700,108.700,23.650,257.000,86.010,27.340,10.290,370.000,131.900,47.590,16.670,hard
1515.000,388.200,101.800,23.790,1645.000,405.600,108.900,23.720,257.200,85.970,27.390,10.320,371.000,132.300,47.740,16.750,hard
1519.000,390.400,102.200,23.860,1649.000,407.300,109.100,23.770,258.500,86.400,27.410,10.340,371.700,132.700,47.930,16.830,hard
1524.000,391.400,102.700,23.980,1653.000,407.700,109.200,23.770,257.900,86.330,27.440,10.350,373.000,133.500,48.110,16.900,hard
1526.000,391.200,102.400,23.770,1644.000,406.100,108.600,23.600,260.400,86.360,27.490,10.340,371.700,132.500,47.750,16.760,hard
1511.000,388.300,101.600,23.630,1645.000,404.800,108.300,23.560,258.400,86.020,27.310,10.300,369.600,131.600,47.390,16.620,hard
1506.000,387.900,101.100,23.480,1639.000,404.100,108.400,23.540,256.500,85.910,27.260,10.270,368.200,131.200,47.210,16.500,hard
1506.000,386.200,101.200,23.500,1636.000,404.700,108.000,23.530,256.700,85.730,27.210,10.270,368.000,131.000,47.210,16.540,hard
1505.000,386.600,101.100,23.520,1642.000,404.900,108.400,23.550,257.700,85.810,27.280,10.270,367.800,131.300,47.260,16.560,hard
1508.000,386.500,101.100,23.570,1636.000,405.200,108.300,23.570,256.800,85.890,27.250,10.270,368.500,131.500,47.360,16.630,hard
1509.000,387.400,101.700,23.620,1642.000,405.500,108.700,23.600,258.500,86.010,27.280,10.300,369.900,132.000,47.570,16.700,hard
1514.000,389.200,102.000,23.760,1643.000,405.700,108.800,23.650,258.900,86.150,27.370,10.330,370.500,132.500,47.710,16.760,hard
1518.000,390.400,102.300,23.840,1648.000,406.200,108.900,23.640,258.000,86.180,27.360,10.330,371.700,132.800,47.920,16.850,hard
1522.000,391.800,102.500,23.930,1646.000,406.200,109.100,23.730,258.800,86.420,27.410,10.350,372.700,133.300,48.050,16.930,hard
1528.000,393.000,103.200,24.080,1651.000,407.600,109.400,23.800,258.200,86.370,27.490,10.370,373.900,133.900,48.440,17.000,hard
1531.000,392.700,103.000,23.860,1642.000,405.700,108.900,23.620,259.800,86.590,27.460,10.380,372.200,132.900,47.910,16.830,hard
1514.000,389.400,101.800,23.640,1642.000,405.100,108.500,23.550,257.000,86.380,27.390,10.310,370.200,132.200,47.680,16.710,hard
1508.000,387.600,101.500,23.560,1642.000,404.200,108.400,23.540,258.500,86.030,27.310,10.310,369.300,131.700,47.390,16.640,hard
1508.000,388.600,101.700,23.590,1640.000,404.700,108.200,23.580,257.300,85.910,27.320,10.310,369.200,131.800,47.470,16.640,hard
1508.000,387.900,101.600,23.630,1642.000,404.800,108.300,23.580,257.500,86.240,27.320,10.300,369.600,131.700,47.420,16.650,hard
1510.000,388.500,101.900,23.590,1641.000,404.700,108.400,23.600,257.500,85.870,27.320,10.310,370.400,131.800,47.560,16.700,hard
1512.000,387.300,102.000,23.740,1645.000,405.600,108.600,23.650,258.500,86.010,27.360,10.330,371.100,132.400,47.680,16.760,hard
1516.000,388.400,102.300,23.790,1644.000,406.200,108.700,23.620,259.000,86.360,27.400,10.330,371.300,132.900,47.890,16.820,hard
1520.000,391.100,102.600,23.920,1645.000,406.900,109.000,23.680,258.400,86.340,27.420,10.360,372.200,133.100,48.080,16.910,hard
1524.000,391.200,102.900,23.940,1646.000,406.500,108.700,23.630,259.000,86.600,27.490,10.370,373.000,133.300,48.110,16.910,hard
1515.000,389.900,101.700,23.690,1642.000,404.800,108.300,23.560,258.700,86.190,27.410,10.330,370.500,132.100,47.670,16.730,hard
1508.000,387.100,101.200,23.550,1640.000,404.000,108.300,23.490,260.100,86.140,27.350,10.290,370.300,131.600,47.550,16.620,hard
1503.000,385.700,101.400,23.450,1635.000,403.800,108.200,23.540,257.300,85.940,27.290,10.280,369.300,131.500,47.450,16.630,hard
1504.000,385.100,101.100,23.530,1636.000,404.400,108.100,23.510,258.600,86.010,27.270,10.280,369.200,131.500,47.410,16.650,hard
1506.000,386.300,101.800,23.530,1637.000,404.100,108.200,23.500,256.300,86.030,27.270,10.300,369.400,131.900,47.430,16.680,hard
1508.000,386.100,101.500,23.650,1643.000,403.800,108.400,23.580,258.300,85.900,27.310,10.310,371.000,132.100,47.650,16.750,hard
1511.000,388.000,101.900,23.690,1643.000,405.200,108.500,23.600,258.400,86.250,27.380,10.330,371.000,132.700,47.840,16.820,hard
1515.000,389.600,102.000,23.780,1640.000,405.800,108.600,23.620,257.800,86.380,27.410,10.340,372.200,132.900,47.970,16.890,hard
1520.000,389.100,102.700,23.890,1646.000,405.500,108.900,23.670,259.000,86.450,27.470,10.370,373.200,133.500,48.180,16.970,hard
1524.000,391.000,102.800,23.950,1644.000,406.300,108.700,23.570,258.900,86.510,27.510,10.390,373.700,133.500,48.150,16.950,hard
1512.000,387.600,101.600,23.660,1638.000,404.300,108.200,23.500,258.000,86.420,27.400,10.350,371.000,132.200,47.750,16.750,hard
1506.000,385.500,101.200,23.560,1636.000,403.500,108.000,23.430,258.500,85.900,27.290,10.310,369.600,131.800,47.440,16.610,hard
1501.000,385.300,101.000,23.460,1637.000,402.900,107.900,23.450,258.800,85.720,27.250,10.290,369.200,131.700,47.350,16.610,hard
1503.000,386.300,100.800,23.460,1633.000,402.600,108.000,23.420,256.700,85.990,27.300,10.290,369.300,131.900,47.340,16.620,hard
1502.000,385.200,101.000,23.500,1636.000,403.500,108.000,23.440,258.000,85.690,27.310,10.290,369.300,131.600,47.450,16.630,hard
1504.000,386.400,101.200,23.580,1635.000,403.200,108.300,23.510,257.400,85.820,27.320,10.290,370.800,132.200,47.600,16.740,hard
1508.000,387.700,101.300,23.640,1637.000,404.800,108.100,23.530,258.000,86.230,27.350,10.320,371.300,132.600,47.690,16.780,hard
1513.000,388.600,102.200,23.800,1643.000,405.300,108.400,23.570,257.700,86.140,27.360,10.350,372.700,132.800,47.900,16.860,hard
1516.000,390.700,102.400,23.850,1642.000,405.200,108.800,23.630,258.900,86.490,27.440,10.350,373.200,133.700,48.170,16.960,hard
1522.000,392.200,102.900,24.010,1642.000,406.400,108.800,23.640,259.000,86.730,27.510,10.370,374.200,134.300,48.430,17.020,hard
1521.000,390.100,102.200,23.720,1641.000,403.400,108.200,23.470,260.200,86.340,27.480,10.350,372.600,132.800,47.910,16.820,hard
1506.000,385.400,101.500,23.610,1638.000,403.000,108.000,23.410,259.000,86.230,27.380,10.320,371.200,132.100,47.590,16.700,hard
1503.000,387.000,100.700,23.490,1636.000,403.200,107.900,23.370,257.200,86.110,27.310,10.290,369.800,131.900,47.490,16.670,hard
1503.000,385.500,101.000,23.540,1631.000,403.300,107.900,23.380,258.100,86.160,27.290,10.300,370.800,132.000,47.450,16.670,hard
1502.000,385.800,101.100,23.540,1636.000,402.800,108.100,23.440,257.700,85.900,27.290,10.290,369.900,132.000,47.470,16.680,hard
1505.000,387.600,101.100,23.630,1637.000,403.100,108.100,23.460,258.000,85.960,27.290,10.300,370.600,132.200,47.620,16.770,hard
1509.000,388.100,101.700,23.660,1638.000,403.900,108.300,23.480,256.600,86.060,27.340,10.320,371.800,132.800,47.760,16.840,hard
1513.000,386.500,101.600,23.770,1640.000,404.000,108.200,23.480,259.000,86.120,27.390,10.330,372.300,133.000,47.990,16.880,hard
1516.000,388.900,102.400,23.800,1640.000,405.400,108.600,23.600,258.500,86.270,27.490,10.340,373.100,133.500,48.090,16.970,hard
1520.000,390.300,102.600,23.840,1641.000,404.300,108.000,23.450,259.500,86.520,27.430,10.360,373.900,133.300,48.040,16.860,hard
1506.000,385.900,101.500,23.520,1629.000,403.200,107.900,23.370,260.400,85.890,27.370,10.330,371.200,132.200,47.690,16.740,hard
1502.000,385.100,100.800,23.460,1631.000,402.600,107.700,23.360,259.000,85.770,27.300,10.280,369.700,131.800,47.430,16.630,hard
1501.000,385.000,100.900,23.440,1632.000,402.900,107.500,23.360,257.100,86.000,27.240,10.270,370.700,131.900,47.390,16.660,hard
1501.000,385.200,100.600,23.460,1632.000,401.600,107.700,23.340,258.200,85.960,27.280,10.260,370.900,131.900,47.420,16.650,hard
1501.000,385.900,101.000,23.490,1632.000,401.900,107.600,23.380,258.000,86.130,27.260,10.290,370.400,131.900,47.520,16.700,hard
1504.000,386.700,101.100,23.560,1636.000,402.900,108.000,23.430,257.100,86.000,27.260,10.310,371.300,132.500,47.650,16.770,hard
1508.000,386.700,100.900,23.600,1633.000,403.100,108.000,23.420,257.800,86.100,27.330,10.310,372.300,132.800,47.870,16.840,hard
1512.000,388.100,102.000,23.780,1637.000,403.000,108.100,23.490,258.400,86.170,27.400,10.320,373.500,133.100,48.000,16.910,hard
1515.000,387.700,101.800,23.800,1639.000,403.500,108.400,23.520,258.800,86.150,27.390,10.340,373.700,133.800,48.230,16.960,hard
1520.000,388.400,102.600,23.860,1643.000,403.800,107.900,23.400,258.700,86.490,27.480,10.370,374.900,133.700,48.250,16.920,hard
1507.000,387.900,101.300,23.510,1631.000,402.300,107.800,23.320,259.500,86.010,27.390,10.320,371.500,132.400,47.660,16.780,hard
1501.000,384.500,101.100,23.410,1630.000,401.100,107.500,23.240,257.400,86.030,27.320,10.280,371.100,132.000,47.440,16.620,hard
1497.000,384.400,100.800,23.380,1631.000,401.600,107.500,23.280,256.600,85.850,27.260,10.270,370.200,132.100,47.450,16.650,hard
1500.000,384.000,100.700,23.390,1633.000,401.000,107.500,23.310,258.900,85.840,27.260,10.260,370.800,131.700,47.400,16.630,hard
1501.000,385.000,100.700,23.420,1627.000,402.200,107.600,23.310,257.600,85.770,27.200,10.270,370.400,131.900,47.410,16.670,hard
1503.000,384.600,100.800,23.540,1632.000,402.600,107.700,23.360,257.200,86.010,27.270,10.280,371.500,132.400,47.670,16.720,hard
1505.000,386.000,101.300,23.570,1635.000,402.700,107.800,23.370,258.000,85.860,27.290,10.300,373.000,132.600,47.850,16.810,hard
1509.000,388.000,101.800,23.650,1637.000,402.900,108.100,23.440,259.100,85.900,27.320,10.310,373.000,133.300,47.960,16.880,hard
1514.000,389.000,102.200,23.830,1638.000,403.400,108.200,23.450,257.500,86.360,27.440,10.340,374.100,133.900,48.160,16.960,hard
1519.000,390.400,102.900,23.880,1641.000,404.800,108.300,23.460,258.600,86.290,27.420,10.360,375.300,134.100,48.350,17.040,hard
1520.000,388.400,102.100,23.710,1636.000,403.000,107.800,23.330,261.100,86.350,27.470,10.350,373.800,133.100,47.910,16.870,hard
1505.000,386.100,101.300,23.560,1635.000,402.500,107.600,23.310,258.300,86.220,27.340,10.320,372.500,132.600,47.670,16.740,hard
1502.000,385.500,100.800,23.440,1630.000,402.000,107.500,23.290,258.300,85.900,27.260,10.270,370.800,132.100,47.510,16.680,hard
1503.000,385.700,101.200,23.480,1628.000,402.200,107.500,23.300,258.400,86.060,27.280,10.260,371.800,132.500,47.540,16.680,hard
1502.000,385.000,100.900,23.490,1628.000,402.000,107.600,23.310,257.300,86.080,27.290,10.280,371.500,132.300,47.520,16.710,hard
1504.000,386.400,101.100,23.530,1632.000,402.000,107.700,23.350,258.100,85.850,27.280,10.290,371.500,132.700,47.720,16.760,hard
1507.000,387.100,101.500,23.640,1633.000,402.500,107.900,23.350,258.100,86.030,27.280,10.320,373.300,132.900,47.860,16.830,hard
1511.000,387.900,101.600,23.690,1635.000,403.400,108.000,23.450,257.200,86.110,27.360,10.320,373.400,133.300,48.050,16.910,hard
1515.000,389.500,102.000,23.810,1641.000,403.500,108.100,23.410,257.500,86.200,27.400,10.340,374.500,133.900,48.160,16.960,hard
1519.000,390.700,102.500,23.900,1638.000,403.200,107.900,23.350,259.600,86.600,27.430,10.350,374.600,134.000,48.260,16.930,hard
1512.000,387.900,101.700,23.540,1637.000,402.300,107.600,23.270,257.300,86.340,27.370,10.320,373.200,132.800,47.730,16.790,hard
1504.000,385.900,101.000,23.410,1630.000,401.900,107.200,23.240,256.000,85.940,27.280,10.280,371.300,132.400,47.550,16.680,hard
1500.000,383.900,100.600,23.410,1633.000,402.000,107.300,23.250,257.200,85.810,27.240,10.270,371.900,132.000,47.530,16.680,hard
1501.000,385.100,100.800,23.410,1631.000,401.400,107.300,23.260,256.900,85.870,27.230,10.280,371.400,132.200,47.540,16.670,hard
1501.000,383.700,100.700,23.460,1628.000,401.700,107.500,23.290,256.600,85.820,27.230,10.280,371.300,132.300,47.520,16.720,hard
1503.000,386.300,101.200,23.470,1630.000,401.900,107.600,23.250,257.000,85.750,27.310,10.270,371.900,132.700,47.740,16.780,hard
1508.000,387.700,101.400,23.550,1631.000,403.100,107.800,23.300,258.400,85.880,27.350,10.290,372.700,132.700,47.930,16.850,hard
1510.000,387.400,101.500,23.660,1634.000,402.600,107.800,23.380,258.700,85.980,27.380,10.310,373.100,133.300,47.980,16.910,hard
1514.000,389.500,102.000,23.790,1635.000,403.800,108.000,23.370,257.800,86.150,27.400,10.340,374.400,133.800,48.290,16.980,hard
1517.000,389.400,102.100,23.660,1634.000,401.300,107.400,23.240,258.900,86.210,27.410,10.340,373.300,133.100,47.950,16.860,hard
1503.000,385.000,100.800,23.410,1631.000,400.400,107.300,23.180,257.000,85.830,27.290,10.300,371.800,132.300,47.650,16.720,hard
1497.000,384.300,100.600,23.290,1628.000,400.200,107.200,23.170,257.400,85.860,27.250,10.270,371.000,131.900,47.330,16.610,hard
1496.000,382.400,100.400,23.290,1625.000,400.900,107.300,23.170,256.900,85.750,27.200,10.260,371.200,132.100,47.440,16.630,hard
1497.000,384.400,100.400,23.320,1631.000,400.700,107.100,23.240,257.300,85.870,27.200,10.250,370.700,131.800,47.420,16.620,hard
1499.000,384.500,100.600,23.450,1629.000,400.900,107.300,23.270,256.400,85.690,27.190,10.270,371.300,132.200,47.570,16.720,hard
1502.000,385.200,101.000,23.530,1628.000,401.100,107.500,23.250,257.000,85.780,27.240,10.280,371.800,132.500,47.720,16.790,hard
1507.000,385.500,101.100,23.580,1631.000,402.400,107.400,23.330,259.900,85.870,27.290,10.290,373.000,133.100,47.900,16.830,hard
1510.000,387.300,101.800,23.650,1633.000,401.700,107.700,23.340,257.800,86.020,27.300,10.320,373.700,133.300,48.050,16.910,hard
1514.000,388.300,102.100,23.750,1637.000,402.900,108.000,23.420,258.100,86.010,27.410,10.330,374.900,133.900,48.250,17.000,hard
1519.000,390.100,102.000,23.760,1630.000,402.300,107.400,23.250,258.700,86.370,27.430,10.360,374.400,133.700,48.100,16.880,hard
1505.000,384.700,101.300,23.490,1628.000,402.000,107.400,23.210,257.600,85.930,27.280,10.300,372.100,132.800,47.710,16.760,hard
1499.000,384.400,100.700,23.380,1629.000,400.300,107.300,23.160,258.200,85.850,27.230,10.270,371.300,132.100,47.430,16.610,hard
1496.000,384.100,100.600,23.330,1626.000,400.900,107.100,23.150,257.000,85.840,27.180,10.240,370.300,132.100,47.500,16.640,hard
1497.000,384.700,100.800,23.310,1626.000,401.100,107.100,23.180,257.600,85.740,27.210,10.240,370.600,131.900,47.380,16.650,hard
1498.000,384.100,101.000,23.410,1630.000,400.500,107.300,23.240,257.400,85.920,27.180,10.250,370.900,132.200,47.500,16.710,hard
1501.000,384.900,101.100,23.430,1629.000,400.600,107.100,23.250,257.400,85.770,27.240,10.270,371.200,132.300,47.740,16.750,hard
1504.000,385.400,101.400,23.530,1632.000,401.300,107.300,23.260,257.800,85.590,27.240,10.300,371.800,132.700,47.870,16.820,hard
1507.000,386.900,101.500,23.610,1631.000,403.000,107.500,23.280,258.800,85.960,27.340,10.290,372.300,133.200,48.010,16.880,hard
1511.000,387.100,101.800,23.750,1635.000,403.000,107.800,23.320,257.600,86.140,27.330,10.330,373.300,133.600,48.160,16.970,hard
1515.000,387.700,101.800,23.580,1633.000,401.100,107.200,23.210,258.100,86.050,27.360,10.320,372.700,132.900,47.820,16.820,hard
1500.000,384.700,100.700,23.340,1629.000,400.400,107.100,23.150,257.600,85.850,27.230,10.280,370.700,132.100,47.540,16.670,hard
1495.000,383.500,100.500,23.300,1629.000,400.000,107.100,23.160,257.800,85.750,27.170,10.250,369.900,131.600,47.430,16.610,hard
1494.000,384.000,100.400,23.320,1625.000,400.600,107.000,23.120,256.100,85.500,27.220,10.230,370.000,131.700,47.310,16.610,hard
1493.000,381.500,100.600,23.290,1628.000,400.700,107.100,23.160,256.100,85.770,27.150,10.210,369.600,131.500,47.360,16.620,hard
1494.000,384.300,100.600,23.320,1627.000,400.100,107.300,23.200,257.100,85.620,27.190,10.230,369.600,132.000,47.430,16.670,hard
1498.000,385.200,101.100,23.420,1628.000,400.900,107.100,23.220,256.900,85.490,27.200,10.250,370.800,132.300,47.610,16.720,hard
1502.000,384.900,101.200,23.490,1633.000,401.500,107.300,23.270,254.600,85.730,27.290,10.260,371.200,132.700,47.710,16.810,hard
1505.000,385.900,101.600,23.570,1630.000,401.400,107.600,23.270,255.600,85.900,27.290,10.290,372.400,132.900,47.930,16.880,hard
1509.000,388.100,102.000,23.710,1632.000,402.000,107.600,23.320,258.400,85.980,27.340,10.320,373.400,133.400,48.110,16.900,hard
1506.000,385.200,100.900,23.480,1627.000,401.400,107.400,23.180,255.300,85.730,27.270,10.290,370.700,132.300,47.630,16.750,hard
1496.000,384.100,100.500,23.240,1624.000,399.600,106.900,23.140,256.900,85.650,27.170,10.250,369.500,131.600,47.240,16.580,hard
1492.000,382.200,100.300,23.230,1626.000,399.800,106.900,23.140,257.700,85.350,27.140,10.200,368.200,131.400,47.230,16.570,hard
1492.000,382.500,100.100,23.190,1620.000,400.600,106.900,23.170,256.100,85.360,27.100,10.210,368.400,131.200,47.210,16.530,hard
1491.000,383.900,100.100,23.250,1624.000,399.400,107.000,23.150,257.200,85.340,27.120,10.210,368.400,131.200,47.240,16.580,hard
1494.000,383.400,100.500,23.260,1627.000,400.300,107.200,23.190,256.100,85.280,27.180,10.220,369.100,131.500,47.390,16.660,hard
1497.000,384.800,100.800,23.400,1626.000,400.700,107.200,23.230,256.300,85.480,27.150,10.250,369.800,132.100,47.520,16.720,hard
1500.000,385.200,101.000,23.480,1627.000,401.200,107.200,23.260,256.400,85.560,27.190,10.260,371.100,132.400,47.700,16.790,hard
1505.000,387.000,101.700,23.590,1631.000,402.100,107.400,23.310,256.900,85.530,27.260,10.270,371.800,132.900,47.910,16.870,hard
1509.000,388.200,101.600,23.700,1636.000,403.000,107.700,23.360,258.300,85.780,27.330,10.300,373.600,133.300,48.150,16.940,hard
1514.000,386.700,101.600,23.600,1630.000,400.700,107.300,23.200,258.600,86.120,27.350,10.300,372.700,132.800,47.800,16.840,hard
1498.000,383.400,100.800,23.400,1626.000,400.800,107.300,23.160,258.200,85.720,27.210,10.270,370.200,131.700,47.550,16.670,hard
1494.000,384.400,100.500,23.220,1624.000,399.700,106.900,23.140,256.000,85.430,27.150,10.220,369.200,131.400,47.290,16.580,hard
1493.000,382.600,100.300,23.330,1623.000,399.600,107.000,23.160,256.700,85.690,27.170,10.210,369.600,131.500,47.290,16.570,hard
1493.000,383.200,100.300,23.310,1626.000,400.200,107.100,23.200,256.600,85.210,27.160,10.220,369.100,131.000,47.300,16.590,hard
1494.000,383.800,100.800,23.330,1625.000,399.900,107.100,23.170,258.000,85.380,27.130,10.220,368.600,131.600,47.360,16.650,hard
1497.000,383.600,100.800,23.430,1629.000,401.000,107.200,23.260,257.000,85.350,27.130,10.240,369.800,132.000,47.580,16.720,hard
1501.000,384.400,101.300,23.550,1627.000,401.200,107.300,23.220,256.800,85.670,27.180,10.250,370.800,132.300,47.660,16.780,hard
1503.000,386.700,101.400,23.550,1630.000,401.500,107.600,23.310,258.100,85.810,27.280,10.270,371.200,132.700,47.870,16.880,hard
1508.000,388.200,101.800,23.680,1635.000,402.300,107.600,23.270,258.700,85.920,27.260,10.290,372.300,133.200,48.000,16.900,hard
1505.000,387.000,101.100,23.420,1626.000,400.900,107.200,23.190,256.400,85.940,27.230,10.270,370.700,132.000,47.540,16.720,hard
1495.000,384.300,100.600,23.300,1622.000,400.700,106.900,23.140,257.100,85.430,27.120,10.220,368.400,131.400,47.260,16.560,hard
1491.000,382.300,100.500,23.150,1622.000,400.400,107.000,23.130,257.200,85.390,27.130,10.200,367.800,131.300,47.110,16.550,hard
1491.000,383.400,100.200,23.250,1622.000,399.600,107.100,23.140,255.000,85.410,27.090,10.210,367.900,131.300,47.180,16.530,hard
1492.000,382.700,100.700,23.340,1624.000,400.300,107.000,23.180,256.000,85.260,27.100,10.200,368.200,131.100,47.140,16.550,hard
1493.000,384.900,100.600,23.390,1628.000,400.500,107.100,23.220,256.800,85.330,27.120,10.210,367.800,131.500,47.310,16.630,hard
1498.000,385.100,100.800,23.440,1626.000,400.600,107.400,23.240,257.100,85.490,27.120,10.240,369.100,131.900,47.450,16.700,hard
1501.000,386.900,101.200,23.430,1629.000,400.900,107.300,23.250,256.700,85.600,27.150,10.250,370.200,132.300,47.730,16.790,hard
1504.000,387.600,101.600,23.620,1631.000,400.400,107.600,23.320,257.000,85.650,27.260,10.270,371.400,132.700,47.840,16.850,hard
1509.000,388.200,102.100,23.670,1631.000,401.400,107.400,23.240,257.500,85.990,27.310,10.280,372.200,132.800,47.850,16.840,hard
1500.000,384.600,100.900,23.340,1629.000,399.800,107.200,23.160,257.200,85.600,27.210,10.250,369.200,131.600,47.410,16.660,hard
1493.000,382.600,100.500,23.310,1622.000,400.100,107.100,23.110,256.400,85.340,27.120,10.210,368.000,131.300,47.180,16.500,hard
1488.000,382.600,100.300,23.220,1622.000,400.100,107.100,23.120,255.200,85.300,27.040,10.170,368.200,130.800,47.140,16.520,hard
1490.000,382.600,100.400,23.290,1623.000,400.800,107.100,23.170,256.100,85.110,27.080,10.180,366.800,130.700,47.090,16.520,hard
1491.000,381.300,100.600,23.290,1624.000,400.200,107.000,23.150,256.800,85.190,27.050,10.200,368.000,131.000,47.180,16.560,hard
1493.000,384.100,100.400,23.350,1626.000,400.600,107.200,23.190,254.700,85.530,27.090,10.210,368.600,131.300,47.300,16.640,hard
1497.000,384.600,100.800,23.420,1629.000,400.700,107.400,23.270,256.500,85.260,27.130,10.230,369.500,131.800,47.530,16.720,hard
1500.000,386.000,101.400,23.530,1627.000,401.000,107.700,23.290,256.800,85.390,27.190,10.250,370.300,132.200,47.740,16.770,hard
1505.000,387.300,101.500,23.570,1632.000,402.400,107.700,23.360,256.200,85.590,27.200,10.250,371.300,132.900,47.820,16.870,hard
1511.000,389.000,102.100,23.740,1634.000,401.800,107.600,23.270,256.300,86.140,27.260,10.290,372.500,133.200,48.020,16.850,hard
1502.000,386.200,101.200,23.420,1628.000,399.900,107.200,23.130,257.900,85.580,27.210,10.240,369.000,131.800,47.430,16.680,hard
1494.000,383.000,100.800,23.320,1625.000,399.700,107.200,23.140,257.800,85.310,27.140,10.220,368.300,131.200,47.200,16.590,hard
1490.000,382.700,100.600,23.270,1624.000,399.300,107.200,23.190,256.900,85.220,27.040,10.170,368.400,130.900,47.190,16.570,hard
1493.000,383.500,100.600,23.260,1628.000,399.700,107.200,23.180,256.300,85.310,27.060,10.180,368.000,131.000,47.180,16.560,hard
1492.000,382.800,100.700,23.410,1624.000,400.600,107.300,23.200,256.900,85.240,27.070,10.180,368.700,131.400,47.330,16.570,hard
1495.000,385.200,100.900,23.450,1629.000,400.800,107.500,23.250,254.500,85.320,27.080,10.220,369.400,131.600,47.340,16.670,hard
1500.000,385.700,100.900,23.510,1631.000,401.800,107.700,23.290,257.000,85.520,27.140,10.230,369.700,132.100,47.590,16.750,hard
1504.000,388.200,101.400,23.620,1629.000,401.600,107.800,23.320,257.600,85.410,27.170,10.250,370.500,132.200,47.840,16.810,hard
1508.000,386.800,102.100,23.680,1633.000,402.500,107.800,23.360,256.900,86.050,27.220,10.280,371.400,133.000,48.000,16.910,hard
1513.000,389.300,102.300,23.760,1636.000,402.500,107.800,23.350,257.700,85.950,27.320,10.290,373.000,133.400,48.120,16.930,hard
1504.000,384.900,101.400,23.470,1630.000,400.600,107.400,23.230,259.000,85.690,27.210,10.260,370.500,131.900,47.610,16.730,hard
1496.000,385.000,100.800,23.380,1624.000,400.200,107.300,23.190,255.700,85.640,27.140,10.230,369.000,131.400,47.430,16.590,hard
1493.000,384.300,100.800,23.370,1624.000,400.100,107.300,23.220,256.200,85.320,27.090,10.210,368.800,131.400,47.350,16.620,hard
1494.000,384.100,100.800,23.360,1629.000,400.900,107.200,23.260,256.100,85.300,27.120,10.200,368.700,131.300,47.360,16.610,hard
1495.000,384.200,100.900,23.420,1629.000,400.800,107.400,23.260,256.300,85.390,27.110,10.210,369.200,131.500,47.360,16.660,hard
1498.000,383.800,101.400,23.520,1631.000,400.800,107.500,23.300,255.100,85.410,27.130,10.220,369.500,131.700,47.500,16.720,hard
1500.000,385.400,101.300,23.540,1631.000,401.600,107.600,23.280,257.200,85.250,27.180,10.250,370.000,132.400,47.810,16.790,hard
1505.000,386.500,101.800,23.690,1630.000,402.200,107.700,23.360,258.000,85.710,27.250,10.270,371.300,132.700,47.990,16.880,hard
1510.000,388.900,102.000,23.760,1635.000,402.600,108.000,23.350,258.000,86.010,27.290,10.270,372.400,133.200,48.050,16.930,hard
1508.000,385.900,101.400,23.530,1627.000,400.400,107.400,23.230,258.000,85.810,27.280,10.270,370.900,132.000,47.720,16.780,hard
1498.000,384.200,100.700,23.380,1627.000,400.500,107.300,23.230,256.400,85.450,27.140,10.230,369.600,131.600,47.400,16.640,hard
1494.000,385.000,100.700,23.340,1625.000,399.900,107.200,23.220,254.500,85.440,27.100,10.200,368.700,131.400,47.380,16.630,hard
1494.000,384.700,100.700,23.380,1627.000,399.900,107.300,23.200,255.700,85.660,27.100,10.210,368.600,131.600,47.340,16.630,hard
1495.000,382.800,101.100,23.440,1627.000,401.000,107.400,23.250,256.800,85.340,27.090,10.210,368.500,131.400,47.470,16.690,hard
1497.000,386.000,101.500,23.460,1628.000,400.600,107.500,23.260,257.000,85.440,27.130,10.220,369.600,131.900,47.530,16.750,hard
1500.000,384.800,101.400,23.570,1627.000,401.300,107.700,23.310,256.700,85.560,27.130,10.240,370.800,132.300,47.760,16.810,hard
1503.000,386.500,101.600,23.590,1632.000,402.500,107.700,23.390,258.500,85.740,27.220,10.260,371.500,132.600,47.980,16.890,hard
1507.000,387.000,101.700,23.730,1635.000,402.200,107.900,23.370,257.600,85.750,27.260,10.260,372.100,133.300,48.110,16.950,hard
1511.000,389.500,102.300,23.780,1636.000,402.700,108.200,23.410,256.300,86.040,27.310,10.290,373.700,133.600,48.310,17.020,hard
1511.000,387.500,101.700,23.620,1630.000,401.500,107.400,23.250,258.200,85.950,27.300,10.270,371.600,132.500,47.950,16.850,hard
1498.000,385.400,100.700,23.470,1628.000,400.600,107.300,23.240,255.700,85.800,27.180,10.250,370.000,131.900,47.620,16.730,hard
1494.000,384.600,100.700,23.330,1629.000,400.200,107.500,23.220,256.100,85.600,27.160,10.210,369.000,131.700,47.460,16.710,hard
1495.000,385.700,100.700,23.370,1626.000,400.500,107.500,23.240,257.100,85.550,27.130,10.210,370.000,131.700,47.480,16.690,hard
1494.000,385.600,101.000,23.430,1627.000,400.600,107.400,23.220,257.300,85.370,27.150,10.210,370.000,131.700,47.570,16.730,hard
1496.000,384.200,101.100,23.500,1632.000,401.000,107.400,23.280,257.200,85.650,27.180,10.220,370.400,132.000,47.610,16.780,hard
1500.000,385.000,101.500,23.550,1633.000,401.100,107.500,23.320,257.400,85.700,27.180,10.240,371.400,132.600,47.930,16.830,hard
1504.000,387.000,101.800,23.620,1632.000,401.700,107.800,23.290,257.200,85.810,27.260,10.270,372.100,133.100,48.070,16.920,hard
1509.000,386.700,102.000,23.770,1637.000,403.100,107.900,23.390,256.500,85.950,27.310,10.280,373.400,133.400,48.180,16.970,hard
1512.000,387.300,102.000,23.840,1638.000,402.500,108.300,23.440,257.700,85.950,27.360,10.290,374.300,134.200,48.490,17.070,hard
1517.000,388.200,102.300,23.740,1632.000,402.300,107.700,23.260,258.200,86.180,27.370,10.300,374.100,133.300,48.200,16.980,hard
1501.000,386.200,101.400,23.500,1627.000,400.600,107.500,23.230,257.300,85.790,27.200,10.260,372.000,132.400,47.850,16.850,hard
1498.000,385.900,100.900,23.450,1629.000,400.900,107.400,23.240,257.400,85.900,27.180,10.230,370.600,132.100,47.800,16.770,hard
1497.000,385.800,101.200,23.480,1631.000,400.800,107.500,23.230,257.200,85.440,27.180,10.210,370.600,132.200,47.730,16.770,hard
1497.000,384.200,100.900,23.430,1631.000,400.500,107.400,23.180,257.800,85.540,27.140,10.230,370.400,132.000,47.840,16.780,hard
1499.000,385.400,101.100,23.470,1631.000,401.100,107.700,23.280,255.700,85.670,27.210,10.230,371.400,132.700,47.770,16.790,hard
1502.000,385.400,101.100,23.530,1630.000,401.800,107.600,23.300,257.300,85.700,27.240,10.240,372.800,132.800,47.970,16.880,hard
1504.000,385.500,101.600,23.630,1635.000,401.100,107.800,23.340,256.200,85.800,27.240,10.280,373.200,133.500,48.110,16.950,hard
1508.000,386.800,102.100,23.720,1636.000,401.800,107.900,23.390,257.800,86.220,27.320,10.280,374.200,133.700,48.390,17.020,hard
1512.000,387.900,102.500,23.820,1634.000,401.600,107.500,23.340,258.300,86.270,27.360,10.290,374.000,133.900,48.350,17.000,hard
1504.000,386.100,101.400,23.480,1629.000,400.900,107.300,23.230,256.800,85.820,27.270,10.250,373.000,132.900,47.910,16.860,hard
1497.000,385.400,100.800,23.400,1627.000,399.600,107.300,23.190,257.400,85.610,27.200,10.240,371.200,132.300,47.720,16.730,hard
1493.000,383.200,100.800,23.350,1624.000,400.600,107.100,23.220,257.100,85.580,27.160,10.220,370.500,132.100,47.620,16.700,hard
1495.000,383.500,100.500,23.420,1627.000,400.500,107.200,23.210,257.200,85.630,27.150,10.200,370.000,132.200,47.680,16.720,hard
1496.000,384.400,101.100,23.400,1627.000,401.300,107.200,23.250,256.100,85.630,27.190,10.210,371.000,132.400,47.700,16.790,hard
1498.000,385.100,101.200,23.480,1633.000,400.500,107.700,23.280,255.500,85.850,27.190,10.240,371.400,132.600,47.890,16.840,hard
1502.000,384.900,101.300,23.600,1629.000,400.900,107.500,23.290,257.100,85.790,27.250,10.250,372.700,133.200,48.020,16.870,hard
1504.000,387.600,101.300,23.690,1629.000,401.900,107.700,23.300,256.800,86.080,27.270,10.270,373.300,133.700,48.350,16.980,hard
1508.000,387.900,101.700,23.790,1631.000,401.700,107.900,23.350,256.800,85.960,27.340,10.280,374.700,134.000,48.410,17.050,hard
1512.000,386.900,102.100,23.600,1633.000,400.800,107.300,23.210,258.600,86.010,27.280,10.280,373.200,133.000,48.110,16.910,hard
1497.000,384.800,101.200,23.400,1624.000,400.100,106.900,23.140,256.800,85.690,27.180,10.230,372.200,132.400,47.780,16.820,hard
1494.000,382.500,100.400,23.330,1621.000,398.700,107.100,23.140,256.700,85.600,27.100,10.190,370.400,132.100,47.610,16.690,hard
1492.000,382.200,100.300,23.360,1624.000,399.500,107.000,23.100,258.600,85.410,27.090,10.190,370.100,132.000,47.550,16.680,hard
1492.000,382.400,100.400,23.340,1622.000,398.800,107.100,23.140,256.900,85.460,27.120,10.190,370.200,132.000,47.610,16.740,hard
1493.000,383.100,100.500,23.390,1622.000,399.400,107.200,23.180,256.300,85.380,27.140,10.190,371.100,132.500,47.710,16.760,hard
1497.000,384.100,101.300,23.460,1625.000,400.100,107.500,23.210,255.900,85.560,27.140,10.210,371.900,132.700,47.890,16.840,hard
1500.000,385.200,101.100,23.510,1627.000,401.200,107.400,23.290,257.900,85.710,27.170,10.240,372.600,133.200,48.010,16.890,hard
1503.000,386.200,101.600,23.610,1632.000,400.200,107.400,23.300,257.300,85.780,27.220,10.240,373.800,133.300,48.300,16.970,hard
1508.000,387.800,101.900,23.740,1633.000,401.800,107.600,23.310,258.700,86.030,27.270,10.270,375.100,134.000,48.500,17.040,hard
1507.000,385.000,101.500,23.510,1627.000,399.900,107.100,23.180,258.100,85.880,27.220,10.250,372.300,132.600,47.980,16.860,hard
1496.000,383.600,101.000,23.360,1627.000,398.800,107.200,23.120,257.700,85.680,27.160,10.220,371.100,132.300,47.760,16.740,hard
1492.000,382.400,100.600,23.270,1624.000,398.800,107.100,23.140,256.400,85.480,27.100,10.170,370.800,132.100,47.610,16.680,hard
1492.000,381.800,100.400,23.340,1624.000,398.500,107.100,23.170,259.100,85.430,27.140,10.180,371.100,131.900,47.530,16.680,hard
1491.000,382.500,100.600,23.310,1624.000,398.600,106.800,23.150,256.600,85.490,27.120,10.200,370.000,132.200,47.550,16.710,hard
1494.000,382.200,100.700,23.390,1622.000,399.100,107.200,23.150,255.900,85.640,27.150,10.190,371.100,132.500,47.730,16.750,hard
1497.000,384.000,100.900,23.520,1625.000,400.000,107.200,23.190,256.800,85.690,27.170,10.220,372.400,132.700,47.900,16.840,hard
1500.000,385.000,101.100,23.580,1628.000,399.900,107.300,23.200,257.100,85.770,27.200,10.230,372.600,133.100,47.980,16.890,hard
1503.000,386.300,101.500,23.610,1630.000,400.600,107.500,23.250,257.700,85.880,27.210,10.240,373.500,133.100,48.180,16.950,hard
1507.000,388.100,101.700,23.640,1629.000,400.200,107.300,23.190,257.000,85.800,27.250,10.250,373.700,133.300,48.170,16.900,hard
1496.000,382.700,100.800,23.370,1624.000,399.100,106.900,23.110,256.700,85.780,27.170,10.210,371.200,132.100,47.650,16.740,hard
1497.000,383.800,101.100,23.460,1626.000,399.900,107.000,23.200,255.100,85.430,27.130,10.200,372.200,132.900,47.920,16.880,bogus
1501.000,385.400,101.300,23.560,1627.000,400.000,107.200,23.220,258.100,85.460,27.190,10.230,373.200,133.300,48.140,16.940,bogus
1504.000,386.900,101.200,23.540,1622.000,398.700,107.100,23.100,257.800,85.710,27.170,10.220,372.700,132.800,47.890,16.810,bogus
1492.000,382.900,100.300,23.310,1619.000,398.600,106.700,23.030,256.600,85.460,27.080,10.190,370.000,131.800,47.500,16.630,bogus
1486.000,382.000,100.000,23.160,1619.000,397.000,106.700,23.050,256.600,85.240,27.000,10.130,369.200,131.200,47.260,16.560,bogus
1472.000,377.100,99.200,22.940,1613.000,395.700,106.500,23.080,253.300,84.430,26.750,10.070,364.000,129.500,46.840,16.470,hard
1474.000,378.400,99.370,23.040,1615.000,396.600,106.600,23.110,254.800,84.680,26.770,10.070,364.600,130.000,47.000,16.560,hard
1478.000,380.000,99.860,23.170,1619.000,396.500,106.900,23.130,252.800,84.530,26.850,10.080,366.300,130.600,47.100,16.620,hard
1483.000,380.700,100.000,23.230,1618.000,397.200,107.000,23.200,255.000,84.630,26.890,10.130,367.300,131.100,47.280,16.680,hard
1486.000,382.100,100.200,23.280,1621.000,397.700,107.400,23.230,253.700,85.050,26.880,10.150,368.700,131.600,47.580,16.780,hard
1492.000,384.100,101.200,23.410,1625.000,399.600,107.500,23.310,254.700,85.180,26.990,10.170,370.100,132.400,47.810,16.870,hard
1497.000,382.700,100.900,23.310,1621.000,397.200,107.100,23.190,257.700,85.200,27.060,10.170,369.200,131.700,47.540,16.730,hard
1480.000,379.500,99.950,23.110,1615.000,396.900,106.700,23.140,255.400,84.820,26.900,10.120,367.100,130.600,47.090,16.540,hard
1476.000,377.900,99.560,23.000,1617.000,396.800,106.700,23.110,254.400,84.790,26.870,10.080,366.200,130.000,46.850,16.470,hard
1475.000,378.200,99.570,23.000,1620.000,396.600,106.800,23.140,256.100,84.520,26.880,10.080,366.400,130.200,46.920,16.450,hard
1475.000,377.700,99.610,23.030,1618.000,395.700,107.000,23.130,255.400,84.730,26.820,10.070,366.400,130.000,46.910,16.490,hard
1477.000,379.300,99.720,23.050,1616.000,397.400,106.900,23.150,255.000,84.870,26.770,10.090,366.800,130.400,47.040,16.540,hard
1480.000,379.100,99.680,23.120,1620.000,397.600,107.000,23.180,256.200,84.820,26.900,10.100,367.600,130.800,47.200,16.600,hard
1483.000,380.800,99.960,23.200,1621.000,397.300,107.500,23.280,257.300,85.030,26.910,10.130,368.800,131.500,47.350,16.690,hard
1486.000,381.900,100.500,23.310,1623.000,398.100,107.400,23.310,256.100,85.110,26.960,10.140,369.500,131.700,47.500,16.770,hard
1491.000,382.600,100.700,23.390,1629.000,398.400,107.700,23.330,256.400,85.220,27.010,10.160,370.900,132.200,47.850,16.890,hard
1495.000,383.800,101.000,23.530,1629.000,399.600,107.700,23.380,256.900,85.460,27.030,10.190,372.500,132.900,48.020,16.930,hard
1500.000,385.400,101.600,23.590,1633.000,400.300,108.000,23.400,256.600,85.660,27.130,10.210,372.700,133.600,48.300,17.000,hard
1506.000,387.600,102.200,23.650,1630.000,399.700,107.700,23.300,257.800,85.820,27.170,10.220,374.000,133.600,48.140,16.980,hard
1492.000,382.500,100.800,23.300,1625.000,398.900,107.500,23.250,257.100,85.260,27.050,10.200,371.300,132.300,47.740,16.810,hard
1487.000,381.600,99.990,23.230,1619.000,397.800,107.100,23.240,256.700,85.330,27.010,10.160,371.100,132.000,47.550,16.720,hard
1484.000,380.900,100.500,23.270,1623.000,398.800,107.200,23.230,256.400,85.260,26.970,10.140,370.900,131.900,47.550,16.710,hard
1485.000,381.000,100.500,23.260,1621.000,398.300,107.300,23.230,258.700,85.250,26.990,10.130,370.900,132.000,47.520,16.690,hard
1486.000,381.900,100.300,23.330,1623.000,398.400,107.200,23.250,255.100,85.300,26.930,10.140,371.100,132.100,47.650,16.740,hard
1488.000,382.000,100.400,23.390,1625.000,398.700,107.500,23.300,253.800,85.380,27.060,10.160,372.000,132.500,47.770,16.830,hard
1491.000,383.300,100.800,23.420,1629.000,399.100,107.800,23.340,256.400,85.540,27.090,10.170,372.800,132.900,47.870,16.880,hard
1495.000,384.000,100.800,23.530,1627.000,399.600,107.600,23.360,257.800,85.500,27.120,10.200,373.000,133.300,48.190,16.930,hard
1498.000,384.400,101.200,23.600,1629.000,399.600,107.900,23.430,257.000,85.940,27.160,10.200,374.600,133.700,48.280,17.030,hard
1503.000,386.300,101.600,23.680,1633.000,401.400,108.000,23.450,258.300,85.760,27.240,10.240,375.900,134.400,48.470,17.110,hard
1505.000,386.800,101.400,23.540,1626.000,399.500,107.500,23.310,257.500,85.950,27.250,10.230,374.600,133.600,48.250,16.970,hard
1491.000,383.200,100.500,23.340,1626.000,398.800,107.200,23.290,255.700,85.590,27.160,10.200,373.100,132.800,47.890,16.860,hard
1487.000,381.800,100.300,23.360,1623.000,397.900,107.300,23.280,257.200,85.600,27.080,10.170,372.500,132.400,47.780,16.750,hard
1486.000,380.500,100.400,23.360,1622.000,398.400,107.200,23.290,258.400,85.530,27.090,10.160,373.000,132.600,47.770,16.790,hard
1486.000,381.300,100.200,23.340,1620.000,397.900,107.300,23.260,256.400,85.520,27.050,10.170,372.500,132.600,47.780,16.780,hard
1487.000,382.500,100.500,23.350,1625.000,398.300,107.500,23.280,257.100,85.640,27.090,10.170,373.000,133.000,47.960,16.870,hard
1491.000,381.500,100.400,23.450,1627.000,399.200,107.600,23.330,258.100,85.410,27.130,10.180,374.100,133.200,48.020,16.890,hard
1494.000,383.200,100.600,23.580,1626.000,399.300,107.600,23.350,257.900,85.940,27.130,10.200,374.800,133.900,48.220,16.960,hard
1496.000,384.700,101.200,23.570,1630.000,400.400,107.800,23.370,259.600,85.850,27.210,10.220,375.800,134.000,48.420,17.050,hard
1501.000,385.300,101.400,23.710,1630.000,400.500,107.900,23.450,256.800,86.050,27.250,10.250,376.300,134.500,48.590,17.140,hard
1506.000,387.000,101.800,23.770,1633.000,401.400,108.200,23.520,258.600,86.100,27.350,10.260,376.600,135.200,48.770,17.200,hard
1511.000,387.900,102.200,23.860,1635.000,400.200,107.900,23.360,258.900,86.270,27.410,10.270,378.400,135.200,48.760,17.160,hard
1497.000,384.600,100.700,23.470,1627.000,399.300,107.500,23.280,258.900,85.920,27.270,10.230,375.400,133.700,48.270,16.970,hard
1491.000,381.900,100.800,23.380,1624.000,398.500,107.000,23.250,257.300,85.960,27.210,10.200,374.000,133.000,48.000,16.860,hard
1486.000,381.800,100.300,23.260,1625.000,398.300,107.100,23.290,257.900,85.670,27.120,10.170,374.300,133.300,47.920,16.860,hard
1487.000,380.600,100.500,23.300,1621.000,398.200,107.200,23.240,259.200,85.570,27.130,10.190,373.600,133.100,47.960,16.850,hard
1487.000,380.500,100.100,23.330,1621.000,398.600,107.300,23.300,257.400,85.910,27.120,10.170,373.600,133.200,47.980,16.890,hard
1488.000,383.000,100.400,23.410,1626.000,398.900,107.200,23.270,256.900,85.850,27.120,10.190,374.400,133.400,48.080,16.940,hard
1492.000,384.200,100.700,23.440,1626.000,398.700,107.400,23.290,258.300,85.840,27.180,10.200,374.900,133.800,48.240,16.990,hard
1496.000,384.400,101.000,23.550,1625.000,399.800,107.700,23.350,257.600,85.920,27.180,10.220,376.100,134.200,48.460,17.040,hard
1500.000,386.300,101.400,23.640,1630.000,399.100,107.700,23.420,257.300,86.070,27.240,10.240,376.000,134.600,48.610,17.100,hard
1502.000,385.600,101.600,23.700,1636.000,400.200,107.900,23.350,257.200,86.010,27.310,10.250,377.100,134.900,48.760,17.190,hard
1508.000,387.000,102.200,23.810,1636.000,399.800,107.900,23.330,258.600,86.280,27.370,10.260,377.800,135.200,48.780,17.170,hard
1498.000,384.100,100.900,23.430,1626.000,398.900,107.200,23.220,257.500,86.190,27.200,10.240,375.300,133.800,48.350,17.020,hard
1490.000,381.900,100.500,23.350,1623.000,398.300,107.100,23.190,257.800,85.730,27.220,10.190,374.500,133.300,48.110,16.910,hard
1486.000,380.900,100.400,23.340,1622.000,397.900,107.200,23.210,257.400,85.810,27.190,10.190,373.900,133.200,48.060,16.900,hard
1487.000,380.900,100.400,23.290,1622.000,397.500,107.100,23.260,257.300,85.670,27.140,10.180,373.400,133.200,47.950,16.870,hard
1487.000,381.100,100.400,23.310,1622.000,397.400,107.200,23.240,258.000,85.680,27.110,10.180,374.000,133.400,48.080,16.890,hard
1489.000,382.400,100.400,23.380,1623.000,397.900,107.200,23.280,257.300,85.800,27.170,10.190,374.100,133.400,48.180,16.950,hard
1491.000,383.400,100.400,23.460,1623.000,398.600,107.300,23.260,257.000,85.800,27.210,10.210,374.500,133.900,48.300,16.990,hard
1493.000,384.100,100.900,23.510,1627.000,398.400,107.400,23.270,258.000,85.950,27.220,10.210,375.000,133.900,48.430,17.020,hard
1496.000,384.200,101.000,23.560,1622.000,398.800,107.600,23.320,258.400,85.780,27.200,10.230,375.400,134.500,48.640,17.100,hard
1497.000,383.700,101.000,23.460,1619.000,398.200,107.100,23.230,258.700,85.840,27.270,10.240,375.000,133.800,48.250,16.950,hard
1486.000,382.400,100.000,23.250,1620.000,397.000,106.800,23.160,256.500,85.660,27.130,10.190,373.400,133.000,47.940,16.850,hard
1482.000,379.700,99.630,23.140,1617.000,397.200,106.900,23.130,257.800,85.430,27.050,10.150,372.000,132.500,47.770,16.740,hard
1480.000,380.200,99.770,23.230,1617.000,396.000,106.700,23.150,255.400,85.560,27.050,10.140,371.900,132.500,47.750,16.740,hard
1480.000,378.300,99.940,23.160,1615.000,395.700,106.500,23.130,254.800,85.330,27.010,10.130,371.500,132.400,47.720,16.750,hard
1480.000,380.600,100.100,23.220,1615.000,396.800,106.700,23.180,257.700,85.450,27.050,10.130,372.200,132.500,47.750,16.760,hard
1483.000,381.000,100.200,23.240,1614.000,396.500,106.800,23.140,257.000,85.340,27.120,10.150,371.600,132.900,47.950,16.830,hard
1484.000,381.400,100.100,23.330,1617.000,397.900,106.900,23.170,256.200,85.620,27.100,10.160,373.000,133.200,48.070,16.870,hard
1488.000,382.000,100.300,23.380,1619.000,397.700,107.100,23.190,256.000,85.400,27.090,10.180,373.400,133.400,48.120,16.950,hard
1493.000,382.900,101.100,23.460,1623.000,397.800,107.400,23.190,256.500,85.720,27.180,10.190,373.800,133.800,48.430,17.010,hard
1492.000,383.100,100.200,23.280,1618.000,396.200,106.800,23.110,257.300,85.610,27.120,10.170,372.500,132.700,47.820,16.830,hard
1481.000,379.800,99.690,23.160,1612.000,395.100,106.500,23.010,256.900,85.140,27.010,10.120,370.700,132.100,47.590,16.670,hard
1475.000,378.800,99.370,23.020,1613.000,395.200,106.400,23.040,256.400,85.080,26.940,10.090,369.800,131.600,47.450,16.630,hard
1476.000,379.300,99.370,23.070,1609.000,394.300,106.200,23.010,254.800,85.170,26.890,10.090,368.800,131.800,47.350,16.560,hard
1473.000,378.100,99.100,23.020,1610.000,395.100,106.500,23.030,254.000,85.070,26.930,10.080,369.200,131.700,47.380,16.600,hard
1474.000,378.000,99.450,23.030,1616.000,395.400,106.300,22.980,255.500,84.760,26.920,10.080,370.200,131.600,47.490,16.650,hard
1477.000,378.500,99.350,23.120,1610.000,395.700,106.600,23.070,254.300,85.010,26.950,10.120,370.000,132.000,47.580,16.700,hard
1480.000,379.500,99.700,23.200,1612.000,395.700,106.600,23.130,254.500,85.200,26.920,10.100,370.500,132.300,47.680,16.770,hard
1482.000,379.300,100.100,23.260,1616.000,396.000,106.800,23.150,256.100,85.200,26.990,10.140,371.200,132.700,47.920,16.860,hard
1486.000,381.600,100.500,23.320,1618.000,397.200,106.900,23.210,255.800,85.350,27.030,10.150,372.000,133.000,47.980,16.910,hard
1492.000,383.800,100.600,23.420,1615.000,396.800,106.700,23.020,255.700,85.430,27.110,10.170,372.300,133.000,47.980,16.880,hard
1480.000,379.600,99.550,23.090,1611.000,395.000,106.400,23.020,256.000,85.010,27.010,10.130,370.500,131.900,47.530,16.670,hard
1475.000,378.200,99.300,23.030,1609.000,394.900,106.300,22.960,256.000,84.990,26.890,10.090,368.500,131.100,47.210,16.540,hard
1471.000,378.600,99.510,22.960,1612.000,394.800,106.200,23.000,254.400,84.690,26.830,10.070,367.800,131.100,47.230,16.530,hard
1472.000,378.300,99.420,22.940,1612.000,394.600,106.200,22.960,255.500,84.660,26.820,10.050,368.100,130.800,47.170,16.500,hard
1472.000,377.400,99.320,22.950,1610.000,393.800,106.500,23.040,253.900,84.720,26.780,10.070,367.900,130.900,47.180,16.540,hard
1473.000,378.800,99.530,23.020,1610.000,395.200,106.300,23.030,254.200,84.520,26.790,10.070,368.200,131.200,47.270,16.610,hard
1476.000,378.600,99.800,23.090,1613.000,395.400,106.400,23.020,253.700,84.610,26.860,10.080,368.700,131.500,47.410,16.640,hard
1479.000,380.500,99.820,23.150,1613.000,395.700,106.500,23.040,255.100,84.780,26.880,10.100,369.100,131.800,47.520,16.710,hard
1482.000,380.300,99.890,23.180,1615.000,396.700,106.600,23.090,256.200,85.020,26.950,10.120,369.800,132.200,47.710,16.760,hard
1485.000,381.400,100.400,23.250,1616.000,396.400,106.600,22.980,254.400,84.980,26.950,10.120,370.200,132.100,47.650,16.720,hard
1476.000,379.500,99.670,23.000,1608.000,394.300,106.300,22.910,256.500,84.630,26.890,10.080,367.700,131.000,47.170,16.560,hard
1472.000,378.000,99.130,22.910,1607.000,393.400,106.100,22.870,253.300,84.590,26.780,10.050,366.800,130.300,46.860,16.400,hard
1469.000,377.200,99.080,22.870,1608.000,394.000,106.100,22.920,252.600,84.420,26.740,10.040,365.700,130.200,46.860,16.430,hard
1468.000,376.600,98.890,22.810,1605.000,393.700,106.200,22.940,253.900,84.410,26.740,10.020,365.500,129.800,46.880,16.380,hard
1468.000,376.500,98.770,22.890,1608.000,393.500,105.900,22.930,253.800,84.280,26.720,10.030,365.300,130.000,46.800,16.420,hard
1468.000,376.800,98.950,22.850,1606.000,393.800,106.000,22.920,252.200,84.390,26.760,10.040,365.700,130.400,46.990,16.470,hard
1472.000,377.200,99.520,22.980,1606.000,394.300,106.100,22.970,254.200,84.370,26.770,10.050,366.300,130.600,47.080,16.540,hard
1473.000,378.200,99.570,23.010,1606.000,395.000,106.300,22.990,255.200,84.380,26.760,10.060,366.800,130.800,47.220,16.610,hard
1478.000,379.000,99.680,23.110,1614.000,395.100,106.500,23.030,253.000,84.490,26.850,10.080,367.600,131.400,47.380,16.660,hard
1480.000,379.600,100.300,23.190,1614.000,396.700,106.600,23.050,255.100,84.610,26.820,10.080,368.500,131.600,47.580,16.690,hard
1480.000,378.800,99.690,23.020,1608.000,394.700,106.100,23.000,255.700,84.670,26.860,10.090,367.200,130.700,47.040,16.510,hard
1470.000,376.200,98.870,22.900,1602.000,393.400,105.900,22.880,252.200,84.390,26.730,10.030,364.800,129.800,46.730,16.360,hard
1465.000,376.800,98.540,22.740,1605.000,393.800,105.900,22.910,252.200,84.250,26.710,10.010,364.200,129.200,46.600,16.310,hard
1465.000,375.500,98.450,22.780,1603.000,393.500,106.100,22.880,253.200,83.980,26.670,9.994,363.700,129.100,46.500,16.280,hard
1464.000,376.300,98.640,22.780,1602.000,393.600,106.000,22.920,252.600,84.210,26.600,9.998,362.900,129.000,46.580,16.310,hard
1466.000,375.700,98.830,22.850,1608.000,393.600,105.900,22.920,251.500,84.020,26.610,10.010,363.700,129.300,46.590,16.360,hard
1468.000,377.900,99.130,22.860,1611.000,393.800,106.000,22.970,253.000,83.940,26.690,10.010,363.600,129.600,46.730,16.410,hard
1471.000,377.900,99.180,22.890,1610.000,394.200,106.200,23.000,252.700,84.170,26.690,10.020,365.400,130.000,46.780,16.460,hard
1473.000,379.100,99.690,23.020,1612.000,394.600,106.300,22.980,253.900,84.260,26.740,10.050,365.700,130.400,47.010,16.510,hard
1476.000,379.500,99.860,23.070,1613.000,395.500,106.600,23.090,255.200,84.380,26.780,10.060,366.500,130.800,47.240,16.610,hard
1482.000,381.200,100.300,23.220,1613.000,395.600,107.000,23.120,254.400,84.640,26.820,10.080,367.700,131.300,47.450,16.670,hard
1487.000,382.600,100.700,23.330,1612.000,396.800,107.000,23.150,253.700,84.610,26.880,10.100,368.800,131.800,47.670,16.780,hard
1491.000,384.200,101.100,23.430,1618.000,398.100,107.300,23.180,254.400,84.770,27.000,10.140,370.300,132.400,47.910,16.840,hard
1491.000,382.200,100.200,23.170,1614.000,396.000,106.700,23.020,256.500,84.950,27.020,10.130,367.600,131.200,47.270,16.610,hard
1477.000,381.600,99.850,23.040,1608.000,394.500,106.500,22.970,252.500,84.400,26.820,10.070,365.800,130.300,46.920,16.470,hard
1473.000,379.200,99.010,22.900,1612.000,394.300,106.500,23.010,253.700,84.140,26.750,10.050,365.200,129.700,46.750,16.390,hard
1473.000,379.000,99.230,22.950,1613.000,394.600,106.600,22.960,253.900,84.320,26.730,10.030,364.900,129.800,46.740,16.390,hard
1474.000,377.800,99.400,22.940,1610.000,394.900,106.700,23.010,254.600,84.440,26.720,10.030,364.600,129.700,46.770,16.410,hard
1473.000,379.600,99.750,22.990,1613.000,395.200,106.500,23.030,252.700,84.310,26.730,10.040,365.400,129.900,46.840,16.440,hard
1476.000,378.500,100.100,23.070,1612.000,396.000,106.800,23.060,252.700,84.340,26.730,10.040,365.700,130.300,46.970,16.500,hard
1480.000,380.100,100.000,23.140,1614.000,395.700,106.800,23.110,252.300,84.420,26.810,10.060,366.800,130.700,47.170,16.600,hard
1484.000,381.400,100.600,23.210,1615.000,396.700,107.000,23.110,253.600,84.620,26.900,10.090,366.800,131.000,47.330,16.650,hard
1486.000,381.200,100.700,23.240,1616.000,396.900,107.000,23.190,255.100,84.770,26.900,10.110,368.600,131.500,47.490,16.710,hard
1491.000,382.700,101.100,23.370,1621.000,397.100,107.100,23.150,255.200,85.010,26.920,10.130,369.000,131.900,47.690,16.760,hard
1489.000,382.400,100.500,23.170,1615.000,396.100,106.700,23.070,252.800,84.870,26.910,10.110,367.700,130.900,47.220,16.590,hard
1478.000,381.100,99.920,23.090,1614.000,395.700,106.700,22.990,254.700,84.360,26.780,10.080,366.800,130.200,46.870,16.450,hard
1476.000,380.700,99.520,23.000,1615.000,395.800,106.600,23.020,253.100,84.690,26.750,10.050,364.700,129.900,46.920,16.420,hard
1476.000,378.900,99.780,23.040,1614.000,396.100,106.700,22.990,252.000,84.440,26.760,10.040,365.400,130.000,46.890,16.420,hard
1476.000,380.700,99.650,23.040,1614.000,395.600,106.900,23.060,253.800,84.420,26.700,10.070,365.400,130.000,46.940,16.470,hard
1478.000,379.900,100.100,23.120,1616.000,396.300,107.000,23.080,252.900,84.630,26.770,10.070,365.700,130.000,47.000,16.530,hard
1481.000,381.700,100.600,23.150,1619.000,396.900,106.900,23.150,253.400,84.410,26.770,10.080,366.300,130.600,47.160,16.580,hard
1485.000,380.400,100.600,23.220,1618.000,397.600,107.000,23.170,253.900,84.640,26.840,10.100,367.600,131.000,47.320,16.670,hard
1487.000,381.500,100.600,23.310,1618.000,397.800,107.200,23.170,255.300,84.740,26.930,10.120,368.500,131.400,47.460,16.720,hard
1491.000,384.500,101.000,23.380,1619.000,397.900,107.500,23.240,255.300,85.040,26.920,10.150,369.500,131.800,47.730,16.790,hard
1496.000,384.400,101.500,23.510,1620.000,398.200,107.400,23.190,255.400,85.070,26.990,10.160,370.600,132.200,47.800,16.790,hard
1489.000,382.600,100.500,23.170,1618.000,396.300,107.000,23.080,255.600,84.960,26.980,10.120,367.400,131.100,47.300,16.660,hard
1481.000,381.100,99.840,23.100,1616.000,395.900,106.900,23.070,254.800,84.870,26.840,10.090,366.500,130.200,46.990,16.490,hard
1478.000,380.000,99.770,23.050,1616.000,395.400,106.900,23.070,253.200,84.730,26.770,10.070,366.400,130.300,46.950,16.470,hard
1479.000,379.900,99.820,23.020,1614.000,395.300,106.900,23.060,254.100,84.590,26.830,10.070,366.500,130.100,47.030,16.480,hard
1478.000,380.400,99.790,23.090,1616.000,395.800,106.700,23.080,254.000,84.670,26.790,10.070,366.300,130.200,46.980,16.520,hard
1480.000,381.400,100.200,23.160,1616.000,396.600,106.900,23.100,254.200,84.530,26.830,10.080,367.300,130.500,47.060,16.540,hard
1482.000,381.700,100.700,23.230,1616.000,396.500,107.100,23.130,254.700,84.730,26.850,10.100,367.400,130.900,47.250,16.610,hard
1485.000,381.700,100.600,23.220,1620.000,396.700,107.100,23.120,255.700,84.860,26.920,10.120,368.400,131.300,47.440,16.700,hard
1488.000,382.900,100.900,23.330,1618.000,398.000,107.200,23.210,255.200,85.020,26.960,10.150,369.000,131.800,47.490,16.750,hard
1491.000,382.700,101.200,23.430,1619.000,398.300,107.500,23.190,254.900,84.930,26.990,10.150,370.000,132.100,47.830,16.800,hard
1497.000,385.200,101.800,23.560,1625.000,398.700,107.500,23.210,255.400,85.380,27.030,10.160,370.800,132.600,47.920,16.910,hard
1495.000,384.300,100.900,23.270,1615.000,397.000,107.200,23.130,256.200,85.330,27.050,10.150,369.500,131.600,47.550,16.720,hard
1485.000,381.100,100.500,23.170,1617.000,396.700,106.900,23.070,255.300,84.860,26.960,10.130,367.900,131.000,47.190,16.580,hard
1480.000,381.300,100.200,23.120,1617.000,395.800,107.000,23.070,255.400,84.800,26.900,10.090,367.300,130.600,47.140,16.500,hard
1482.000,381.300,100.000,23.140,1612.000,396.200,107.000,23.080,255.000,84.690,26.820,10.070,367.300,130.600,47.050,16.540,hard
1480.000,381.000,100.200,23.140,1613.000,395.800,106.900,23.090,255.700,84.630,26.850,10.090,367.500,130.600,47.150,16.540,hard
1483.000,380.500,100.500,23.180,1617.000,396.000,107.100,23.150,254.200,84.750,26.870,10.100,368.000,130.800,47.180,16.610,hard
1485.000,381.900,100.700,23.280,1620.000,397.000,107.000,23.150,254.700,84.850,26.910,10.120,368.600,131.200,47.350,16.660,hard
1488.000,383.800,101.000,23.310,1622.000,396.900,107.400,23.170,254.700,84.920,26.930,10.130,369.800,131.500,47.520,16.720,hard
1490.000,383.500,101.000,23.400,1619.000,397.400,107.200,23.190,256.100,84.970,26.990,10.140,370.600,131.900,47.660,16.790,hard
1493.000,383.600,101.600,23.420,1622.000,398.200,107.400,23.230,255.300,85.150,27.070,10.150,370.900,132.400,47.900,16.850,hard
1496.000,384.500,101.500,23.450,1621.000,397.300,107.000,23.120,256.500,85.330,27.090,10.170,370.400,131.900,47.650,16.760,hard
1486.000,381.900,100.600,23.210,1616.000,396.400,107.000,23.090,256.600,85.080,26.930,10.140,369.300,131.000,47.360,16.620,hard
1482.000,381.000,100.400,23.120,1617.000,396.400,106.900,23.090,255.500,84.680,26.920,10.080,368.200,130.900,47.110,16.530,hard
1481.000,380.600,100.500,23.190,1617.000,396.200,107.000,23.010,253.500,84.860,26.910,10.090,368.000,130.700,47.160,16.540,hard
1481.000,381.800,100.200,23.190,1618.000,395.700,106.900,23.100,255.900,84.830,26.860,10.090,368.200,130.500,47.160,16.560,hard
1483.000,382.600,100.400,23.170,1617.000,396.300,106.900,23.100,256.100,84.730,26.880,10.100,368.700,130.700,47.200,16.620,hard
1484.000,381.900,100.700,23.250,1618.000,396.000,107.000,23.130,254.800,85.000,26.870,10.110,369.100,131.400,47.340,16.660,hard
1487.000,381.600,100.700,23.280,1623.000,397.200,107.000,23.130,255.500,85.190,26.930,10.120,369.800,131.700,47.540,16.700,hard
1489.000,383.300,101.500,23.420,1619.000,397.300,107.200,23.190,255.200,85.210,26.980,10.140,370.900,132.000,47.640,16.800,hard
1493.000,383.600,101.200,23.480,1620.000,397.900,107.300,23.200,255.100,84.980,27.010,10.160,371.900,132.600,47.870,16.860,hard
1495.000,384.300,101.400,23.350,1619.000,397.500,106.800,23.140,255.800,85.470,27.080,10.160,370.900,131.700,47.530,16.730,hard
1483.000,381.800,100.500,23.150,1615.000,396.400,106.800,23.060,255.200,84.940,26.960,10.100,369.200,131.100,47.280,16.580,hard
1480.000,379.000,100.000,23.060,1610.000,395.500,106.700,23.070,254.900,84.800,26.870,10.080,368.100,130.700,47.010,16.520,hard
1478.000,380.600,100.100,23.100,1612.000,395.400,106.700,23.030,254.100,84.800,26.880,10.090,367.900,130.700,47.050,16.520,hard
1479.000,378.500,100.300,23.130,1615.000,395.000,106.700,23.020,255.600,84.690,26.900,10.080,368.200,130.700,47.120,16.530,hard
1480.000,381.300,100.100,23.200,1615.000,395.700,106.700,23.070,252.900,84.810,26.870,10.100,368.300,130.900,47.160,16.580,hard
1481.000,380.900,100.200,23.250,1615.000,395.500,106.900,23.090,253.600,84.960,26.920,10.090,369.000,131.200,47.410,16.660,hard
1485.000,382.800,100.700,23.260,1617.000,396.300,107.000,23.080,254.900,84.790,26.980,10.110,369.500,131.500,47.400,16.690,hard
1486.000,382.700,100.700,23.340,1618.000,396.900,107.000,23.160,256.200,84.920,26.980,10.140,370.700,132.000,47.610,16.730,hard
1489.000,384.800,100.800,23.450,1620.000,397.500,107.300,23.210,254.400,85.240,27.030,10.140,371.300,132.300,47.790,16.840,hard
1495.000,385.200,101.400,23.510,1623.000,397.900,107.400,23.230,255.300,85.360,27.080,10.190,372.600,132.800,48.030,16.880,hard
1498.000,385.400,101.800,23.560,1622.000,396.900,107.100,23.130,257.600,85.390,27.130,10.180,373.000,132.900,47.950,16.860,hard
1486.000,382.900,100.300,23.230,1615.000,396.300,106.900,23.060,256.100,85.520,26.980,10.160,370.900,131.700,47.500,16.700,hard
1483.000,381.000,100.200,23.180,1615.000,395.200,106.700,23.050,256.400,84.910,26.970,10.120,370.500,131.300,47.200,16.530,hard
1479.000,379.700,100.100,23.140,1612.000,396.100,106.600,23.050,256.500,84.750,26.910,10.090,369.300,131.200,47.190,16.560,hard
1479.000,381.400,100.200,23.180,1613.000,395.500,106.700,23.010,255.300,84.880,26.890,10.110,368.900,131.000,47.120,16.530,hard
1480.000,380.800,99.850,23.210,1613.000,395.800,106.800,23.060,255.100,84.920,26.890,10.100,369.200,131.200,47.240,16.570,hard
1481.000,382.000,100.100,23.260,1613.000,396.100,106.800,23.070,255.900,84.940,26.890,10.120,370.200,131.700,47.390,16.650,hard
1485.000,383.500,100.700,23.350,1617.000,396.400,106.900,23.100,255.400,85.150,26.990,10.130,370.400,132.100,47.560,16.730,hard
1487.000,384.000,100.900,23.380,1619.000,396.900,106.900,23.110,254.300,85.180,27.010,10.140,371.000,132.200,47.760,16.750,hard
1491.000,383.500,101.200,23.460,1620.000,396.800,107.000,23.210,257.500,85.170,27.020,10.160,372.800,132.700,47.960,16.850,hard
1495.000,386.000,101.300,23.610,1624.000,397.800,107.200,23.230,257.300,85.410,27.080,10.180,373.900,133.200,48.050,16.940,hard
1499.000,386.100,101.700,23.510,1618.000,397.000,107.000,23.060,256.000,85.610,27.120,10.190,373.400,133.000,47.930,16.830,hard
1486.000,381.900,100.800,23.310,1617.000,395.800,106.500,23.080,257.400,85.170,27.040,10.140,372.400,131.900,47.490,16.700,hard
1483.000,381.300,100.500,23.230,1613.000,395.500,106.700,23.050,255.000,85.190,26.960,10.120,370.600,131.400,47.360,16.610,hard
1481.000,380.000,100.400,23.230,1614.000,396.100,106.600,23.020,254.900,85.060,26.920,10.110,370.500,131.900,47.310,16.620,hard
1482.000,380.800,100.300,23.200,1614.000,395.100,106.600,23.010,256.400,84.830,26.900,10.110,370.700,131.600,47.390,16.620,hard
1482.000,381.200,100.500,23.290,1615.000,395.700,106.800,23.020,255.800,85.060,26.970,10.110,371.200,131.800,47.400,16.660,hard
1484.000,382.000,100.500,23.320,1612.000,396.500,106.900,23.060,254.600,85.080,27.000,10.130,371.700,132.300,47.650,16.720,hard
1487.000,383.200,100.500,23.340,1617.000,396.600,106.800,23.070,256.600,85.300,27.030,10.140,371.600,132.500,47.710,16.790,hard
1489.000,383.100,100.500,23.450,1617.000,396.400,107.000,23.130,257.100,85.650,27.090,10.170,373.100,132.800,47.870,16.860,hard
1493.000,384.800,101.400,23.530,1621.000,396.700,107.200,23.170,255.700,85.690,27.060,10.180,373.400,133.400,48.090,16.940,hard
1493.000,384.200,101.000,23.390,1616.000,396.000,106.600,23.060,257.900,85.460,27.090,10.170,372.700,132.500,47.770,16.750,hard
1483.000,380.500,100.500,23.250,1613.000,394.400,106.400,22.970,257.100,84.990,26.990,10.140,371.600,131.800,47.440,16.620,hard
1479.000,380.100,100.200,23.170,1613.000,395.100,106.400,23.020,256.300,85.060,26.940,10.100,370.300,131.600,47.340,16.570,hard
1479.000,379.700,100.300,23.160,1617.000,394.600,106.500,22.960,255.700,85.340,26.990,10.110,370.400,131.800,47.350,16.600,hard
1478.000,379.600,100.000,23.150,1612.000,393.800,106.400,23.020,256.000,85.010,26.920,10.110,370.600,131.600,47.380,16.620,hard
1479.000,381.000,100.200,23.230,1614.000,394.700,106.400,22.960,255.000,85.020,26.950,10.130,370.600,132.000,47.450,16.650,hard
1481.000,381.700,100.700,23.270,1613.000,395.800,106.600,23.010,256.900,85.370,26.970,10.140,371.500,132.300,47.660,16.740,hard
1485.000,383.100,101.000,23.330,1609.000,395.400,107.000,23.030,256.300,85.500,27.000,10.150,372.500,132.600,47.750,16.800,hard
1489.000,382.500,101.000,23.400,1616.000,395.600,106.800,23.070,257.100,85.530,27.030,10.170,372.700,133.200,47.950,16.860,hard
1492.000,384.800,101.400,23.550,1617.000,396.100,106.900,23.100,256.100,85.510,27.100,10.190,374.100,133.400,48.160,16.940,hard
1490.000,384.500,100.800,23.280,1615.000,394.400,106.600,22.990,257.500,85.590,27.100,10.170,372.500,132.600,47.670,16.770,hard
1480.000,381.100,100.500,23.150,1609.000,394.900,106.300,22.950,257.700,85.100,26.950,10.130,371.400,131.900,47.440,16.610,hard
1476.000,378.700,99.990,23.060,1608.000,394.500,106.200,22.930,253.800,85.190,26.910,10.100,370.800,131.700,47.300,16.580,hard
1475.000,380.300,100.200,23.110,1609.000,393.800,106.300,22.950,255.600,84.930,26.910,10.100,370.600,131.500,47.370,16.550,hard
1476.000,379.500,100.100,23.070,1609.000,394.100,106.300,22.940,256.300,84.900,26.900,10.100,370.000,131.700,47.260,16.600,hard
1476.000,380.300,100.200,23.200,1608.000,394.200,106.400,22.930,254.600,84.970,26.950,10.130,369.900,132.000,47.390,16.640,hard
1479.000,380.200,100.500,23.190,1610.000,394.600,106.600,22.970,256.700,85.100,26.960,10.130,370.400,132.400,47.580,16.720,hard
1482.000,380.500,100.500,23.300,1608.000,395.200,106.600,23.010,257.100,85.190,27.010,10.160,371.700,132.500,47.830,16.770,hard
1486.000,380.500,100.900,23.400,1611.000,395.000,106.600,23.060,258.200,85.450,27.040,10.160,372.600,133.000,47.920,16.860,hard
1490.000,383.100,101.200,23.450,1614.000,395.900,107.100,23.090,255.500,85.570,27.090,10.180,373.200,133.400,48.100,16.920,hard
1494.000,384.700,101.500,23.510,1616.000,397.000,106.900,23.100,256.700,85.630,27.150,10.200,374.300,133.900,48.380,16.990,hard
1493.000,384.400,101.000,23.330,1611.000,394.900,106.500,23.030,255.300,85.450,27.130,10.180,373.100,133.000,47.880,16.830,hard
1481.000,381.500,100.500,23.150,1609.000,394.000,106.500,22.930,254.600,85.280,27.030,10.170,371.400,132.300,47.620,16.690,hard
1477.000,380.800,100.000,23.070,1612.000,394.400,106.300,22.930,256.200,85.160,26.990,10.130,370.700,131.700,47.430,16.610,hard
1477.000,380.300,100.200,23.120,1610.000,394.500,106.200,22.910,257.000,85.130,26.980,10.110,370.500,131.800,47.400,16.600,hard
1475.000,380.200,100.000,23.150,1612.000,394.800,106.300,22.940,254.500,85.140,26.920,10.120,370.600,131.900,47.420,16.600,hard
1477.000,379.900,100.200,23.190,1610.000,394.300,106.200,22.930,255.900,85.080,27.000,10.130,371.100,132.000,47.630,16.680,hard
1480.000,380.000,100.300,23.240,1612.000,394.900,106.300,22.980,255.300,85.310,26.990,10.140,371.900,132.600,47.800,16.770,hard
1483.000,382.200,100.500,23.250,1610.000,394.900,106.500,22.990,255.800,85.380,27.040,10.150,372.300,132.800,47.910,16.820,hard
1486.000,382.700,100.900,23.400,1611.000,395.000,106.500,23.000,256.000,85.490,27.080,10.180,372.700,133.200,47.990,16.850,hard
1489.000,382.700,101.100,23.420,1612.000,395.700,106.800,23.040,257.800,85.390,27.120,10.190,374.000,133.500,48.210,16.970,hard
1491.000,384.200,101.100,23.400,1613.000,394.900,106.400,22.910,257.200,85.770,27.150,10.180,372.300,133.200,47.900,16.840,hard
1480.000,381.600,100.200,23.180,1610.000,393.100,106.200,22.910,254.800,85.360,27.020,10.160,371.200,132.100,47.550,16.690,hard
