A-DC1,A-DC2,A-DC3,A-DC4,A-DC5,A-DC6,A-DC7,A-DC8,B-DC1,B-DC2,B-DC3,B-DC4,B-DC5,B-DC6,B-DC7,B-DC8,condition
1204.000,302.600,79.760,15.850,1421.000,295.100,75.310,14.190,450.900,106.900,31.300,9.819,614.300,156.200,44.410,13.150,baseline
1206.000,303.500,80.090,15.880,1424.000,295.600,75.430,14.180,453.000,106.900,31.290,9.821,614.300,156.500,44.440,13.190,baseline
1209.000,303.000,80.280,15.950,1427.000,295.400,75.780,14.160,454.400,106.800,31.350,9.828,616.200,156.900,44.440,13.250,baseline
1213.000,305.100,80.280,16.000,1425.000,295.800,75.830,14.200,449.800,106.800,31.360,9.843,618.400,157.400,44.780,13.290,baseline
1215.000,305.500,80.340,16.040,1427.000,295.500,75.750,14.210,452.500,106.800,31.350,9.841,617.500,157.700,44.770,13.340,baseline
1217.000,305.600,80.570,16.060,1428.000,296.900,75.850,14.240,450.700,107.000,31.390,9.879,617.100,157.700,44.960,13.370,baseline
1219.000,306.700,80.730,16.020,1427.000,295.400,75.730,14.170,455.200,107.500,31.330,9.847,617.100,157.200,44.640,13.270,baseline
1208.000,303.300,79.890,15.910,1423.000,295.900,75.860,14.170,455.100,107.000,31.270,9.826,615.100,156.600,44.600,13.220,baseline
1207.000,302.600,79.640,15.890,1421.000,295.600,75.650,14.220,452.800,106.600,31.280,9.779,615.500,156.900,44.410,13.200,baseline
1209.000,304.900,79.950,15.940,1424.000,295.900,75.760,14.200,450.200,107.100,31.190,9.795,615.700,157.100,44.660,13.210,baseline
1209.000,304.000,79.730,15.920,1424.000,296.300,75.740,14.230,452.100,107.000,31.180,9.806,617.100,156.700,44.540,13.250,baseline
1211.000,303.100,80.020,15.970,1428.000,296.000,75.590,14.200,452.200,107.000,31.220,9.790,616.900,157.000,44.680,13.300,baseline
1213.000,305.000,80.520,15.980,1427.000,295.700,75.880,14.240,451.800,107.000,31.340,9.810,617.100,157.300,44.880,13.340,baseline
1216.000,305.500,80.720,16.010,1429.000,296.200,75.870,14.220,454.900,106.900,31.230,9.814,618.500,157.700,44.890,13.370,baseline
1220.000,305.100,80.740,16.070,1428.000,296.600,76.080,14.260,454.500,106.900,31.370,9.821,619.400,158.000,44.870,13.420,baseline
1216.000,304.700,80.180,15.930,1421.000,295.900,75.580,14.140,455.400,106.900,31.320,9.802,617.300,157.300,44.620,13.250,baseline
1208.000,302.800,79.900,15.930,1422.000,295.100,75.560,14.150,454.000,107.100,31.210,9.779,617.000,157.000,44.560,13.250,baseline
1207.000,302.800,79.940,15.870,1420.000,294.800,75.300,14.170,451.800,106.600,31.190,9.766,615.900,157.100,44.710,13.260,baseline
1208.000,304.000,79.890,15.890,1422.000,294.400,75.480,14.160,453.000,106.900,31.250,9.770,616.600,157.100,44.540,13.270,baseline
1207.000,302.900,79.780,15.860,1420.000,293.600,75.430,14.120,450.700,106.800,31.230,9.763,617.900,157.000,44.670,13.270,baseline
1208.000,304.200,80.100,15.910,1422.000,293.900,75.470,14.120,452.500,107.200,31.190,9.787,616.200,157.600,44.870,13.350,baseline
1210.000,304.100,80.060,15.930,1420.000,294.600,75.290,14.150,455.200,107.000,31.290,9.802,618.600,158.000,45.050,13.380,baseline
1214.000,305.300,80.280,16.000,1425.000,294.700,75.410,14.130,455.700,107.200,31.310,9.834,620.300,158.400,45.050,13.360,baseline
1209.000,303.300,79.700,15.820,1416.000,293.600,75.230,14.100,451.400,106.900,31.330,9.781,617.500,157.200,44.490,13.260,baseline
1199.000,300.200,79.450,15.780,1417.000,293.900,75.030,14.050,455.200,107.000,31.150,9.765,615.600,156.900,44.600,13.210,baseline
1203.000,301.000,79.490,15.810,1419.000,293.400,75.180,14.120,454.100,107.000,31.130,9.751,616.700,157.000,44.620,13.220,baseline
1207.000,302.100,79.490,15.870,1423.000,293.900,75.410,14.130,454.800,106.900,31.250,9.739,617.800,157.400,44.690,13.220,baseline
1211.000,303.800,79.950,15.870,1426.000,293.600,75.420,14.100,453.900,107.100,31.120,9.756,618.100,157.400,44.660,13.270,baseline
1210.000,303.200,80.060,15.900,1423.000,293.400,75.460,14.150,453.800,106.800,31.150,9.776,618.200,157.300,44.720,13.300,baseline
1213.000,304.200,80.350,15.960,1423.000,294.000,75.320,14.150,451.900,106.800,31.170,9.794,617.800,157.900,44.860,13.360,baseline
1215.000,304.200,80.180,15.990,1422.000,294.400,75.380,14.100,452.400,107.200,31.210,9.785,619.100,157.800,44.870,13.310,baseline
1209.000,302.700,79.500,15.830,1413.000,293.200,74.970,14.060,455.600,106.700,31.200,9.740,617.300,156.700,44.470,13.200,baseline
1198.000,300.300,78.910,15.760,1408.000,291.400,74.850,14.040,453.400,106.800,31.150,9.746,615.200,156.400,44.260,13.140,baseline
1194.000,299.800,79.210,15.750,1409.000,290.800,75.040,14.060,453.400,106.400,31.070,9.744,614.500,156.200,44.390,13.130,baseline
1195.000,299.600,79.000,15.750,1410.000,291.100,74.940,14.020,453.700,106.500,31.170,9.746,615.200,156.400,44.400,13.190,baseline
1196.000,299.000,79.200,15.810,1406.000,291.600,74.780,14.030,453.700,106.500,31.140,9.752,615.400,156.700,44.510,13.220,baseline
1199.000,299.500,79.450,15.810,1410.000,291.800,74.840,14.090,455.600,106.700,31.150,9.767,616.100,157.100,44.560,13.260,baseline
1203.000,301.200,79.610,15.830,1415.000,292.500,75.190,14.100,451.600,106.600,31.160,9.796,617.300,157.200,44.730,13.270,baseline
1206.000,302.400,79.560,15.840,1414.000,292.900,75.120,14.110,451.300,106.500,31.230,9.802,618.800,157.400,44.730,13.320,baseline
1206.000,303.200,79.420,15.830,1409.000,291.700,74.850,14.020,451.100,106.700,31.220,9.774,616.400,156.700,44.310,13.150,baseline
1195.000,299.900,78.650,15.720,1406.000,289.200,74.700,14.060,450.400,106.500,31.090,9.744,613.900,156.000,44.230,13.110,baseline
1180.000,296.900,79.180,15.730,1388.000,287.300,74.550,13.960,451.500,106.400,31.140,9.740,613.300,155.600,44.130,13.090,baseline
1177.000,296.800,78.740,15.680,1395.000,287.700,74.150,13.910,451.800,106.100,31.090,9.758,613.700,156.000,44.290,13.130,baseline
1180.000,297.600,78.910,15.650,1392.000,287.800,74.340,13.950,451.800,106.500,31.090,9.795,613.800,156.200,44.340,13.160,baseline
1186.000,297.700,78.830,15.710,1401.000,289.400,74.650,14.010,453.000,106.500,31.160,9.803,615.300,156.200,44.410,13.170,baseline
1194.000,299.800,79.250,15.740,1407.000,290.100,74.820,14.020,450.000,106.500,31.170,9.809,615.200,156.700,44.430,13.200,baseline
1199.000,299.800,79.300,15.740,1409.000,290.900,74.940,14.050,451.600,106.700,31.220,9.832,616.200,156.700,44.620,13.270,baseline
1203.000,302.300,80.050,15.790,1415.000,290.600,74.850,14.060,452.700,106.700,31.200,9.836,617.400,157.400,44.790,13.310,baseline
1206.000,303.000,79.570,15.790,1408.000,290.700,74.750,14.000,451.700,106.600,31.300,9.828,615.100,156.700,44.460,13.180,baseline
1193.000,298.700,78.640,15.710,1406.000,290.400,74.650,14.000,453.900,106.300,31.160,9.775,613.700,155.800,44.260,13.070,baseline
1192.000,297.900,78.580,15.600,1405.000,289.700,74.450,13.970,453.100,106.300,31.180,9.766,612.400,156.100,44.170,13.080,baseline
1191.000,298.500,78.570,15.640,1408.000,290.300,74.530,14.010,449.600,106.300,31.050,9.786,613.200,156.100,44.240,13.130,baseline
1195.000,299.200,79.010,15.600,1410.000,290.300,74.660,14.020,452.200,106.400,31.190,9.828,614.600,156.200,44.090,13.140,baseline
1196.000,298.800,78.910,15.710,1410.000,290.300,74.830,14.020,454.900,106.400,31.280,9.798,614.900,156.200,44.370,13.180,baseline
1200.000,299.700,79.090,15.730,1410.000,290.200,74.960,14.020,452.100,106.700,31.200,9.823,616.300,156.800,44.480,13.190,baseline
1202.000,301.100,79.240,15.800,1414.000,290.900,74.950,14.020,450.300,106.700,31.320,9.859,617.200,157.000,44.790,13.280,baseline
1206.000,302.700,79.520,15.810,1418.000,290.900,74.730,14.030,457.600,107.100,31.340,9.843,619.400,157.500,44.790,13.310,baseline
1208.000,301.800,79.830,15.850,1418.000,291.300,75.080,14.050,454.600,107.000,31.300,9.868,620.300,157.700,44.840,13.360,baseline
1212.000,304.000,79.970,15.840,1412.000,291.200,74.900,14.010,453.700,107.200,31.350,9.877,620.800,157.200,44.710,13.250,baseline
1200.000,299.400,78.990,15.680,1410.000,290.500,74.740,14.000,455.400,106.900,31.250,9.818,618.400,157.000,44.530,13.190,baseline
1199.000,298.900,78.770,15.640,1410.000,290.900,74.850,14.030,455.700,106.800,31.220,9.813,616.900,156.700,44.460,13.200,baseline
1199.000,299.400,79.010,15.700,1413.000,290.700,74.590,14.020,452.700,106.800,31.200,9.790,617.700,156.700,44.600,13.230,baseline
1201.000,299.600,79.130,15.710,1408.000,290.800,74.960,14.050,455.400,107.000,31.300,9.841,618.800,157.200,44.690,13.230,baseline
1202.000,300.500,79.220,15.720,1411.000,290.300,74.970,14.000,452.100,107.200,31.340,9.832,618.300,156.900,44.710,13.300,baseline
1205.000,301.200,79.440,15.810,1417.000,291.700,74.950,14.030,452.100,107.200,31.350,9.875,620.300,157.700,44.840,13.320,baseline
1207.000,302.100,79.580,15.870,1416.000,291.900,75.150,14.080,453.900,106.700,31.410,9.889,620.400,158.100,44.980,13.370,baseline
1210.000,303.400,79.680,15.880,1416.000,291.800,75.160,14.100,458.200,107.000,31.390,9.883,623.000,158.200,45.080,13.390,baseline
1211.000,302.000,79.680,15.830,1415.000,291.700,74.860,14.070,452.500,107.400,31.420,9.849,619.600,157.800,44.820,13.310,baseline
1201.000,300.200,79.240,15.730,1412.000,291.700,74.790,14.020,455.300,107.000,31.360,9.836,619.400,157.400,44.680,13.230,baseline
1200.000,300.700,79.070,15.700,1414.000,290.700,74.750,14.030,455.900,107.000,31.290,9.828,618.800,157.100,44.520,13.240,baseline
1201.000,300.200,79.130,15.750,1415.000,291.900,74.960,14.060,454.600,106.900,31.310,9.826,618.900,157.700,44.680,13.280,baseline
1203.000,301.100,79.350,15.740,1417.000,291.700,74.940,14.040,456.600,106.900,31.290,9.850,620.300,157.800,44.750,13.290,baseline
1204.000,300.800,79.300,15.820,1415.000,292.000,75.090,14.080,455.100,107.200,31.380,9.866,621.100,157.800,45.070,13.350,baseline
1208.000,301.100,79.390,15.810,1418.000,292.600,75.150,14.100,456.200,106.900,31.460,9.877,621.500,158.200,44.970,13.390,baseline
1210.000,302.100,79.940,15.900,1421.000,292.700,75.300,14.110,456.100,107.100,31.390,9.887,622.600,158.700,45.060,13.440,baseline
1212.000,304.600,79.910,15.900,1420.000,292.600,75.510,14.120,453.300,107.400,31.440,9.893,623.200,158.700,45.190,13.510,baseline
1215.000,304.900,80.520,15.970,1425.000,294.200,75.420,14.120,457.900,107.500,31.470,9.896,623.500,158.500,45.280,13.420,baseline
1204.000,301.700,79.580,15.820,1417.000,293.400,75.410,14.150,455.500,107.300,31.370,9.866,619.500,157.700,44.960,13.330,baseline
1201.000,300.300,79.180,15.800,1417.000,293.300,75.240,14.150,455.200,107.200,31.260,9.836,620.400,157.400,44.880,13.320,baseline
1200.000,300.600,79.240,15.770,1421.000,293.400,75.340,14.150,450.200,107.100,31.350,9.828,619.200,157.600,44.810,13.360,baseline
1205.000,302.300,79.720,15.850,1421.000,293.300,75.580,14.170,450.500,107.500,31.460,9.858,619.200,158.000,44.930,13.370,baseline
1206.000,302.200,79.550,15.920,1422.000,294.000,75.780,14.180,453.800,107.300,31.400,9.871,621.300,158.200,45.070,13.440,baseline
1211.000,303.200,79.980,15.950,1426.000,294.400,75.600,14.220,451.800,107.300,31.340,9.871,621.900,158.300,45.270,13.410,baseline
1214.000,304.600,80.170,15.950,1426.000,295.300,75.690,14.240,452.000,107.500,31.450,9.899,622.100,158.600,45.290,13.500,baseline
1216.000,304.700,80.480,15.970,1428.000,295.100,75.910,14.260,455.600,107.500,31.550,9.900,623.000,159.100,45.290,13.520,baseline
1220.000,305.600,80.680,16.060,1428.000,295.500,75.970,14.220,454.400,107.600,31.540,9.939,624.000,159.500,45.390,13.490,baseline
1213.000,303.900,79.610,15.920,1424.000,294.900,75.760,14.190,457.100,107.600,31.400,9.870,621.800,158.100,45.040,13.370,baseline
1208.000,303.800,79.550,15.840,1423.000,294.800,75.720,14.200,455.400,107.000,31.340,9.865,621.100,158.100,44.930,13.380,baseline
1206.000,302.500,79.640,15.840,1422.000,294.500,75.890,14.170,455.500,107.300,31.410,9.863,620.800,158.200,45.100,13.380,baseline
1209.000,303.800,79.800,15.860,1425.000,295.100,75.840,14.200,453.700,107.100,31.350,9.855,621.200,158.100,45.200,13.390,baseline
1210.000,304.400,79.850,15.930,1427.000,295.400,75.940,14.220,455.200,107.100,31.330,9.884,620.900,158.700,45.150,13.420,baseline
1212.000,304.200,80.040,15.930,1430.000,295.400,75.820,14.230,453.100,107.100,31.400,9.896,622.200,158.800,45.310,13.500,baseline
1215.000,304.300,80.690,16.000,1430.000,295.700,75.750,14.270,455.000,107.200,31.400,9.880,623.000,159.000,45.450,13.510,baseline
1218.000,304.100,80.640,16.030,1429.000,296.300,76.090,14.300,455.000,107.500,31.420,9.891,623.800,159.100,45.440,13.550,baseline
1220.000,305.600,80.920,16.080,1431.000,296.800,76.020,14.270,454.800,107.500,31.560,9.911,624.400,159.700,45.650,13.600,baseline
1221.000,306.100,80.480,15.990,1426.000,296.100,75.930,14.190,453.600,107.800,31.460,9.893,623.100,158.900,45.380,13.480,baseline
1209.000,302.200,79.700,15.900,1426.000,295.800,75.940,14.200,452.400,107.300,31.360,9.848,621.100,158.400,45.210,13.440,baseline
1209.000,303.600,79.760,15.880,1424.000,295.000,75.900,14.180,455.100,107.200,31.340,9.848,620.600,158.000,45.200,13.420,baseline
1210.000,303.200,80.000,15.930,1426.000,295.800,75.720,14.190,455.800,107.100,31.330,9.858,622.100,158.700,45.160,13.460,baseline
1212.000,305.100,79.950,15.930,1428.000,295.900,75.910,14.230,453.400,107.200,31.310,9.848,622.000,158.600,45.210,13.460,baseline
1213.000,305.200,80.210,15.970,1431.000,296.600,75.990,14.220,452.400,107.100,31.300,9.869,622.900,158.800,45.280,13.530,baseline
1215.000,304.900,80.060,16.000,1429.000,296.900,76.070,14.220,456.200,107.100,31.400,9.858,623.200,159.000,45.450,13.570,baseline
1217.000,305.900,80.480,15.970,1428.000,297.000,76.100,14.270,450.800,107.300,31.410,9.863,623.900,159.200,45.500,13.570,baseline
1220.000,306.400,80.160,16.050,1434.000,297.100,76.350,14.280,450.400,107.500,31.380,9.880,625.000,159.700,45.560,13.630,baseline
1219.000,305.900,80.270,15.930,1424.000,296.100,75.900,14.210,458.600,106.900,31.340,9.863,623.100,158.700,45.240,13.470,baseline
1209.000,304.300,79.940,15.900,1426.000,295.700,75.960,14.210,455.000,107.100,31.280,9.828,621.200,158.000,45.100,13.420,baseline
1206.000,303.900,79.730,15.850,1425.000,295.500,75.850,14.200,453.600,106.800,31.200,9.786,619.400,158.300,45.020,13.420,baseline
1208.000,303.800,79.900,15.850,1429.000,296.100,75.870,14.210,452.600,107.100,31.190,9.802,620.600,158.100,44.990,13.470,baseline
1209.000,303.800,79.610,15.860,1425.000,295.300,75.770,14.230,452.400,106.900,31.190,9.792,621.800,157.800,45.140,13.450,baseline
1210.000,304.000,79.810,15.880,1423.000,296.100,75.910,14.190,451.700,106.700,31.270,9.826,622.200,158.400,45.250,13.510,baseline
1212.000,304.800,80.170,15.940,1428.000,296.400,75.870,14.210,448.700,107.200,31.290,9.828,622.700,158.600,45.260,13.560,baseline
1215.000,305.700,80.310,16.010,1426.000,297.000,76.010,14.220,453.400,107.200,31.280,9.828,624.600,158.600,45.360,13.560,baseline
1218.000,306.800,80.630,16.020,1430.000,296.600,76.180,14.260,455.200,107.100,31.270,9.836,623.600,159.100,45.450,13.630,baseline
1220.000,306.000,80.940,16.040,1430.000,296.100,76.070,14.210,452.300,107.100,31.320,9.840,625.100,158.800,45.300,13.510,baseline
1208.000,303.100,79.860,15.840,1423.000,296.300,75.810,14.170,454.400,106.900,31.150,9.787,621.000,158.100,45.050,13.410,baseline
1207.000,301.900,79.770,15.830,1423.000,296.000,75.630,14.170,452.800,106.600,31.210,9.770,619.000,157.700,44.870,13.370,baseline
1204.000,301.900,79.730,15.810,1421.000,295.000,75.790,14.210,452.900,106.400,31.060,9.787,619.200,157.700,44.940,13.420,baseline
1206.000,302.800,79.660,15.810,1423.000,295.700,75.980,14.170,453.500,106.900,31.130,9.783,619.300,157.800,44.940,13.420,baseline
1208.000,304.300,80.260,15.830,1422.000,295.900,75.690,14.190,452.700,106.200,31.140,9.788,619.500,158.000,44.970,13.460,baseline
1210.000,304.700,80.030,15.900,1425.000,296.500,75.960,14.230,452.400,106.400,31.120,9.788,621.000,158.200,45.160,13.510,baseline
1213.000,305.300,80.100,15.940,1428.000,295.900,76.030,14.240,452.400,106.500,31.210,9.803,621.400,158.500,45.150,13.540,baseline
1216.000,305.400,80.580,16.020,1426.000,296.700,76.280,14.250,451.300,106.600,31.080,9.811,623.700,158.400,45.290,13.600,baseline
1218.000,305.300,80.760,15.990,1427.000,296.500,76.210,14.280,452.400,106.800,31.170,9.816,623.200,159.100,45.500,13.590,baseline
1218.000,306.100,80.400,15.890,1425.000,295.600,75.810,14.190,450.500,106.700,31.160,9.798,622.100,158.500,45.020,13.480,baseline
1208.000,303.600,79.690,15.830,1423.000,296.300,75.900,14.210,449.600,106.800,31.000,9.749,620.100,157.800,44.900,13.390,baseline
1206.000,303.200,79.580,15.810,1420.000,296.500,75.720,14.190,453.100,106.400,31.050,9.730,619.700,157.600,44.770,13.410,baseline
1206.000,302.800,79.960,15.820,1424.000,296.000,75.860,14.200,452.700,106.000,31.070,9.731,620.000,157.300,45.050,13.450,baseline
1206.000,303.700,79.820,15.780,1424.000,295.900,75.880,14.190,449.500,106.200,31.080,9.763,619.100,157.800,45.010,13.450,baseline
1208.000,303.000,80.110,15.810,1422.000,296.400,76.020,14.220,451.000,106.500,31.080,9.755,620.500,157.900,44.980,13.460,baseline
1210.000,303.000,80.050,15.890,1425.000,296.200,75.910,14.210,451.200,106.400,31.120,9.770,622.000,157.800,45.160,13.510,baseline
1213.000,304.600,80.130,15.920,1427.000,296.000,75.800,14.250,451.900,106.500,31.170,9.778,623.100,158.400,45.280,13.560,baseline
1215.000,306.400,80.170,15.970,1425.000,296.500,76.030,14.240,452.600,106.600,31.160,9.768,623.700,158.600,45.330,13.570,baseline
1215.000,306.800,80.120,15.920,1418.000,295.800,75.650,14.200,449.400,106.500,31.140,9.760,621.500,157.900,44.980,13.420,baseline
1204.000,302.200,79.660,15.810,1418.000,295.600,75.850,14.190,452.000,106.300,30.990,9.740,620.900,157.500,44.940,13.400,baseline
1204.000,303.000,79.850,15.770,1415.000,295.800,75.810,14.170,453.000,106.200,30.980,9.723,619.300,157.700,44.900,13.420,baseline
1205.000,303.200,79.610,15.820,1422.000,295.700,75.710,14.200,451.300,106.600,31.010,9.743,620.300,157.700,44.930,13.440,baseline
1205.000,301.900,79.800,15.820,1420.000,295.200,75.740,14.240,453.800,106.300,30.970,9.740,621.700,157.700,45.010,13.440,baseline
1207.000,303.900,79.800,15.880,1421.000,296.000,75.740,14.190,452.100,106.400,31.030,9.743,621.600,158.100,45.130,13.480,baseline
1209.000,305.200,80.490,15.850,1424.000,295.600,75.950,14.240,448.500,106.200,31.090,9.744,621.700,158.300,45.180,13.550,baseline
1212.000,304.300,80.750,15.950,1423.000,296.100,76.030,14.250,452.600,106.400,31.110,9.759,622.600,158.700,45.260,13.560,baseline
1214.000,305.200,80.500,15.950,1422.000,296.000,75.890,14.210,450.600,106.400,31.120,9.766,623.400,158.200,45.120,13.490,baseline
1204.000,303.500,79.550,15.790,1416.000,294.900,75.780,14.160,449.800,106.200,31.040,9.704,619.300,157.500,44.790,13.430,baseline
1201.000,301.700,79.400,15.760,1417.000,295.500,75.740,14.190,450.700,106.200,31.000,9.717,619.500,157.200,44.690,13.400,baseline
1201.000,301.400,79.470,15.750,1419.000,294.900,75.530,14.190,450.200,106.200,30.930,9.726,619.300,157.500,44.710,13.390,baseline
1204.000,302.100,79.700,15.780,1418.000,295.200,75.790,14.170,451.100,106.100,31.010,9.714,620.200,157.200,44.830,13.390,baseline
1204.000,301.400,79.750,15.840,1422.000,295.500,75.650,14.220,447.400,106.300,31.020,9.736,619.800,157.900,44.920,13.420,baseline
1206.000,302.700,79.590,15.840,1422.000,295.800,75.830,14.220,453.300,106.400,31.080,9.731,621.200,157.900,45.090,13.490,baseline
1208.000,303.300,79.780,15.900,1422.000,295.400,75.930,14.230,452.600,106.300,31.080,9.767,622.100,158.400,45.100,13.500,baseline
1211.000,303.900,80.250,15.910,1421.000,296.300,75.970,14.230,453.200,106.500,31.110,9.765,622.600,158.400,45.220,13.560,baseline
1213.000,304.900,80.340,15.920,1425.000,296.600,75.870,14.220,452.600,106.500,31.150,9.777,623.300,158.600,45.150,13.500,baseline
1202.000,301.800,79.500,15.760,1419.000,294.900,75.680,14.190,451.200,106.700,31.030,9.738,620.300,157.800,44.900,13.390,baseline
1199.000,301.400,79.120,15.740,1416.000,294.300,75.640,14.180,451.400,106.400,31.040,9.727,620.000,157.300,44.810,13.340,baseline
1197.000,300.500,79.350,15.700,1414.000,295.300,75.800,14.190,448.900,106.000,30.950,9.707,619.800,157.000,44.760,13.390,baseline
1199.000,301.300,79.310,15.740,1417.000,295.200,76.010,14.220,451.400,106.400,30.930,9.718,619.900,157.400,44.750,13.390,baseline
1200.000,301.500,79.170,15.750,1416.000,295.100,75.800,14.230,450.000,106.400,30.940,9.743,619.900,157.500,44.830,13.360,baseline
1203.000,301.000,79.510,15.780,1420.000,295.900,75.840,14.240,452.100,106.500,30.990,9.734,619.800,157.800,44.940,13.440,baseline
1205.000,302.100,79.720,15.840,1421.000,295.500,75.910,14.240,451.300,106.200,31.080,9.746,621.600,157.900,44.970,13.480,baseline
1206.000,303.900,79.780,15.870,1425.000,296.300,76.010,14.240,453.100,106.400,31.100,9.755,622.400,158.400,45.180,13.540,baseline
1208.000,303.600,79.930,15.860,1422.000,296.300,75.930,14.250,453.000,106.100,31.130,9.771,624.300,158.500,45.060,13.470,baseline
1200.000,302.500,79.180,15.690,1414.000,295.200,75.510,14.180,449.800,106.700,31.050,9.740,620.600,157.500,44.740,13.370,baseline
1197.000,301.700,78.950,15.680,1417.000,294.700,75.490,14.180,451.400,106.100,30.950,9.708,618.200,157.500,44.710,13.330,baseline
1194.000,300.700,78.920,15.620,1412.000,294.700,75.490,14.190,450.100,106.300,30.970,9.701,619.700,157.400,44.680,13.350,baseline
1196.000,299.000,79.510,15.700,1419.000,294.600,75.580,14.180,452.100,106.400,30.960,9.703,619.700,157.800,44.680,13.330,baseline
1196.000,300.700,79.140,15.720,1416.000,294.900,75.730,14.210,450.900,106.500,31.020,9.723,619.300,157.800,44.790,13.400,baseline
1200.000,300.700,79.270,15.780,1419.000,295.200,75.760,14.220,452.300,106.800,31.000,9.755,620.800,157.600,44.900,13.400,baseline
1202.000,301.900,79.630,15.820,1420.000,295.700,75.890,14.250,452.400,106.500,31.010,9.759,622.400,158.200,45.000,13.470,baseline
1204.000,303.500,79.680,15.860,1419.000,295.300,75.900,14.230,448.700,106.400,31.110,9.768,621.900,158.700,45.050,13.510,baseline
1207.000,303.500,80.370,15.870,1424.000,295.300,75.890,14.240,455.200,106.500,31.060,9.789,623.900,158.700,45.250,13.530,baseline
1205.000,303.200,79.240,15.750,1416.000,295.700,75.700,14.200,450.800,106.600,31.080,9.751,621.600,157.800,44.850,13.380,baseline
1196.000,301.300,79.020,15.650,1418.000,294.500,75.760,14.190,444.600,106.500,31.000,9.731,619.700,157.800,44.740,13.340,baseline
1194.000,300.500,78.990,15.620,1416.000,295.300,75.520,14.210,447.900,106.300,31.010,9.711,618.800,157.200,44.710,13.320,baseline
1195.000,301.000,79.190,15.690,1416.000,294.900,75.830,14.240,451.400,106.400,31.010,9.715,618.300,157.500,44.830,13.350,baseline
1197.000,300.700,79.040,15.710,1419.000,295.100,75.900,14.240,447.800,106.200,31.010,9.746,620.200,157.700,44.700,13.380,baseline
1198.000,301.100,79.370,15.730,1420.000,295.300,75.930,14.250,452.600,106.200,31.010,9.744,621.800,157.700,44.940,13.430,baseline
1201.000,302.600,79.370,15.740,1420.000,295.700,75.610,14.220,454.300,106.500,31.060,9.757,622.100,158.200,45.040,13.480,baseline
1203.000,302.600,79.490,15.820,1419.000,296.100,75.780,14.250,451.300,106.500,31.100,9.756,622.800,158.500,45.110,13.510,baseline
1206.000,302.700,79.730,15.840,1421.000,296.100,76.110,14.260,452.400,106.800,31.120,9.781,623.600,158.700,45.220,13.520,baseline
1207.000,303.900,79.800,15.830,1419.000,295.800,75.850,14.240,452.200,106.400,31.120,9.768,621.900,158.400,44.970,13.420,baseline
1198.000,300.200,79.150,15.710,1416.000,295.900,75.570,14.180,452.500,106.100,31.080,9.752,620.800,157.800,44.740,13.360,baseline
1196.000,299.900,79.010,15.720,1421.000,295.200,75.860,14.200,448.300,106.600,31.070,9.713,621.100,157.500,44.730,13.340,baseline
1197.000,301.400,79.410,15.710,1420.000,295.600,75.880,14.230,451.300,106.300,30.990,9.754,620.400,157.700,44.810,13.340,baseline
1198.000,300.800,79.370,15.770,1418.000,295.900,75.880,14.240,451.300,106.600,31.040,9.750,621.000,157.900,44.950,13.380,baseline
1200.000,302.100,79.400,15.810,1422.000,295.500,75.760,14.220,450.900,106.800,31.060,9.778,622.400,157.900,45.050,13.430,baseline
1201.000,302.600,79.390,15.860,1422.000,296.000,75.930,14.280,450.400,106.300,31.120,9.779,623.700,158.500,45.170,13.500,baseline
1204.000,303.000,79.770,15.860,1421.000,295.800,76.060,14.320,449.500,106.900,31.080,9.772,624.200,158.500,45.200,13.500,baseline
1208.000,303.600,80.070,15.910,1422.000,296.000,76.150,14.250,449.000,106.900,31.200,9.789,625.200,158.800,45.180,13.440,baseline
1201.000,302.100,79.270,15.720,1418.000,296.200,76.130,14.230,451.300,106.500,31.020,9.731,621.800,157.900,44.790,13.360,baseline
1197.000,300.700,79.020,15.710,1416.000,295.900,75.940,14.230,452.700,106.500,31.030,9.734,620.400,158.100,44.820,13.350,baseline
1196.000,299.700,78.980,15.670,1421.000,296.000,75.970,14.240,452.300,106.500,31.050,9.730,621.700,157.800,44.770,13.360,baseline
1198.000,301.600,79.310,15.700,1422.000,296.400,75.940,14.270,453.000,106.400,31.070,9.739,623.000,157.600,44.940,13.390,baseline
1199.000,301.800,79.060,15.750,1419.000,294.900,75.940,14.230,448.700,106.400,31.070,9.751,622.300,158.000,44.940,13.410,baseline
1201.000,302.100,79.520,15.790,1420.000,296.400,75.960,14.270,448.400,106.500,31.140,9.769,623.500,158.400,45.100,13.410,baseline
1204.000,303.600,79.650,15.820,1426.000,297.000,76.170,14.250,449.200,106.500,31.110,9.783,623.700,159.100,45.280,13.500,baseline
1206.000,302.600,79.760,15.830,1425.000,296.300,76.130,14.310,448.000,106.500,31.100,9.777,624.800,159.300,45.290,13.550,baseline
1207.000,303.400,79.660,15.790,1421.000,296.300,75.840,14.260,452.900,106.700,31.150,9.783,623.100,158.200,45.000,13.390,baseline
1196.000,300.600,79.320,15.690,1418.000,296.200,75.840,14.220,452.500,106.500,31.080,9.732,621.100,157.700,44.730,13.340,baseline
1193.000,300.200,79.050,15.660,1418.000,295.300,75.750,14.250,450.700,106.700,31.040,9.724,621.500,157.600,44.830,13.300,baseline
1194.000,300.400,79.210,15.610,1417.000,296.000,75.840,14.250,452.800,106.300,31.030,9.732,622.600,157.700,44.820,13.350,baseline
1197.000,300.600,79.290,15.700,1421.000,296.200,75.960,14.260,449.100,106.300,31.010,9.734,621.100,157.700,44.800,13.360,baseline
1197.000,301.300,79.410,15.730,1422.000,296.400,75.940,14.270,452.800,106.100,31.070,9.740,621.900,158.500,44.950,13.350,baseline
1201.000,301.300,79.310,15.800,1421.000,296.200,75.980,14.280,450.700,107.000,31.120,9.785,623.000,158.500,45.040,13.430,baseline
1203.000,302.900,79.530,15.780,1423.000,296.100,76.230,14.320,451.200,106.500,31.160,9.785,623.800,158.200,45.180,13.460,baseline
1205.000,303.000,79.920,15.860,1424.000,296.700,76.030,14.240,453.800,106.800,31.210,9.788,623.600,159.000,45.160,13.440,baseline
1198.000,302.000,79.360,15.700,1419.000,295.600,75.960,14.260,452.100,106.100,31.070,9.729,621.700,157.900,44.680,13.330,baseline
1193.000,300.700,78.880,15.640,1416.000,294.900,75.710,14.200,449.300,106.300,31.030,9.735,619.300,156.900,44.710,13.280,baseline
1191.000,298.900,78.670,15.640,1420.000,294.900,75.910,14.230,450.700,106.100,31.080,9.733,619.200,157.800,44.700,13.290,baseline
1194.000,300.500,78.860,15.690,1418.000,296.300,75.940,14.230,453.200,106.200,31.030,9.753,620.500,157.400,44.760,13.340,baseline
1195.000,300.200,78.950,15.660,1419.000,295.600,76.070,14.270,448.100,106.300,31.060,9.728,620.400,158.200,44.850,13.320,baseline
1197.000,301.000,79.150,15.700,1419.000,295.900,75.950,14.260,447.800,106.500,31.110,9.744,621.500,158.100,44.990,13.410,baseline
1199.000,301.600,79.560,15.780,1420.000,296.400,76.020,14.280,448.900,106.400,30.990,9.780,622.400,158.400,45.030,13.420,baseline
1202.000,302.100,79.770,15.820,1424.000,296.300,75.900,14.310,451.100,107.000,31.150,9.783,622.700,158.400,45.110,13.470,baseline
1204.000,303.500,80.080,15.830,1419.000,295.900,75.930,14.260,452.200,106.700,31.170,9.780,622.000,158.300,44.960,13.360,baseline
1195.000,301.400,79.060,15.680,1420.000,295.000,75.810,14.230,454.100,106.200,31.050,9.748,619.100,157.400,44.670,13.280,baseline
1194.000,300.100,78.710,15.630,1416.000,295.100,75.660,14.240,450.200,106.400,31.000,9.734,618.200,157.100,44.670,13.290,baseline
1193.000,300.900,78.960,15.660,1418.000,295.500,75.770,14.240,451.600,106.300,30.990,9.732,620.200,157.200,44.720,13.290,baseline
1195.000,300.300,79.120,15.650,1416.000,295.700,75.900,14.210,449.900,106.300,31.050,9.742,619.900,157.600,44.750,13.320,baseline
1196.000,300.500,78.850,15.690,1419.000,296.000,75.900,14.250,448.900,106.600,31.030,9.752,621.400,157.300,44.850,13.330,baseline
1198.000,302.000,79.410,15.710,1421.000,295.900,75.940,14.240,449.600,106.300,31.030,9.739,621.900,157.700,45.030,13.380,baseline
1200.000,302.500,79.430,15.760,1423.000,296.200,76.070,14.290,446.200,106.400,31.100,9.760,622.100,158.200,45.040,13.420,baseline
1202.000,303.000,79.790,15.780,1422.000,295.900,76.200,14.290,451.200,106.800,31.090,9.786,623.400,158.400,45.090,13.410,baseline
1199.000,299.800,79.180,15.620,1416.000,295.600,75.660,14.240,450.900,106.600,31.080,9.719,621.700,157.800,44.720,13.270,baseline
1192.000,300.400,79.030,15.580,1417.000,295.000,75.690,14.250,453.000,106.100,31.010,9.713,618.200,157.500,44.780,13.290,baseline
1192.000,298.700,78.770,15.600,1415.000,295.600,75.900,14.220,453.700,106.100,30.930,9.717,618.800,157.300,44.650,13.300,baseline
1194.000,299.400,78.730,15.610,1416.000,295.900,75.820,14.250,451.400,106.300,31.010,9.713,619.400,157.600,44.650,13.310,baseline
1194.000,299.300,79.020,15.680,1416.000,296.000,75.790,14.250,452.600,106.300,30.970,9.743,621.500,157.400,44.780,13.350,baseline
1197.000,300.900,79.380,15.730,1422.000,295.600,76.010,14.290,448.500,106.500,31.050,9.749,621.300,157.600,44.850,13.380,baseline
1199.000,301.300,79.400,15.740,1416.000,295.500,75.910,14.270,452.800,106.400,31.040,9.768,622.200,158.100,44.870,13.380,baseline
1202.000,303.100,79.440,15.820,1420.000,296.200,76.100,14.280,453.500,106.500,31.060,9.763,623.100,158.400,45.000,13.460,baseline
1203.000,302.800,79.420,15.750,1418.000,296.000,76.030,14.270,451.700,106.700,31.150,9.767,622.500,158.200,44.840,13.350,baseline
1193.000,300.400,78.700,15.630,1420.000,295.400,75.840,14.240,451.400,106.400,30.990,9.730,619.700,157.200,44.700,13.260,baseline
1191.000,299.100,79.020,15.590,1414.000,295.700,75.690,14.230,453.200,106.200,30.930,9.715,620.600,156.900,44.700,13.230,baseline
1191.000,298.400,78.590,15.630,1418.000,296.500,75.690,14.230,451.000,105.900,30.900,9.711,619.500,157.100,44.600,13.280,baseline
1192.000,300.700,78.910,15.670,1415.000,294.900,75.820,14.220,451.500,106.000,30.940,9.713,619.900,157.300,44.630,13.270,baseline
1194.000,300.200,79.180,15.680,1421.000,295.400,75.880,14.240,452.000,105.700,31.030,9.716,621.000,157.700,44.820,13.320,baseline
1197.000,300.300,79.210,15.710,1420.000,296.000,76.010,14.280,448.300,106.500,31.030,9.744,621.100,158.000,44.930,13.380,baseline
1199.000,301.200,79.520,15.780,1416.000,296.200,76.130,14.270,450.900,106.200,31.010,9.746,623.400,157.900,44.980,13.450,baseline
1202.000,302.000,79.730,15.790,1421.000,297.100,76.060,14.300,451.900,106.600,31.100,9.761,623.200,158.400,45.020,13.480,baseline
1203.000,302.500,79.250,15.720,1422.000,296.300,75.930,14.210,452.400,106.400,31.190,9.751,622.700,158.100,44.800,13.330,baseline
1193.000,300.400,78.820,15.590,1419.000,295.800,75.690,14.220,450.900,106.200,31.050,9.712,620.300,157.100,44.670,13.250,baseline
1191.000,300.400,78.780,15.560,1417.000,295.200,75.760,14.220,448.500,106.100,30.950,9.707,619.100,156.900,44.680,13.270,baseline
1191.000,298.700,78.810,15.630,1418.000,294.900,75.770,14.230,455.500,106.200,30.950,9.689,620.400,157.300,44.660,13.260,baseline
1191.000,300.800,79.000,15.590,1415.000,296.200,75.650,14.230,451.100,106.200,30.890,9.697,620.800,157.600,44.850,13.330,baseline
1194.000,299.900,79.050,15.700,1419.000,296.200,75.880,14.260,453.100,106.100,30.920,9.727,621.200,157.800,44.720,13.330,baseline
1197.000,301.700,79.210,15.700,1420.000,295.800,76.160,14.310,449.100,106.300,31.000,9.753,621.700,158.100,44.960,13.350,baseline
1201.000,301.500,79.500,15.770,1420.000,296.000,76.080,14.240,449.100,106.400,31.030,9.743,622.900,158.200,44.990,13.440,baseline
1202.000,301.700,79.810,15.780,1419.000,297.100,76.160,14.280,453.300,106.200,31.070,9.769,624.300,158.600,45.080,13.460,baseline
1203.000,301.800,79.390,15.730,1416.000,295.800,75.840,14.250,452.800,106.500,31.070,9.731,621.600,157.800,44.760,13.350,baseline
1193.000,301.100,78.630,15.660,1417.000,295.200,75.860,14.260,449.400,106.500,30.920,9.719,621.000,157.600,44.660,13.270,baseline
1191.000,298.600,78.800,15.620,1417.000,295.000,75.750,14.230,447.800,106.200,30.930,9.703,620.700,157.300,44.610,13.260,baseline
1193.000,300.900,78.890,15.620,1418.000,295.600,75.880,14.230,450.700,106.200,30.970,9.708,620.600,157.300,44.710,13.300,baseline
1194.000,299.700,78.770,15.680,1416.000,295.400,75.920,14.220,451.000,106.400,30.940,9.710,621.500,157.500,44.700,13.340,baseline
1196.000,301.000,79.250,15.680,1417.000,295.500,75.940,14.240,450.300,106.200,31.020,9.718,623.000,157.900,44.810,13.370,baseline
1198.000,300.500,79.160,15.740,1422.000,295.800,75.940,14.290,453.000,105.900,31.100,9.754,622.400,158.100,44.910,13.440,baseline
1200.000,302.200,79.490,15.730,1420.000,295.900,76.030,14.290,452.800,106.400,31.060,9.771,623.500,158.900,45.200,13.440,baseline
1204.000,301.700,79.760,15.780,1419.000,296.800,76.060,14.250,451.200,106.800,31.010,9.780,625.800,158.800,45.040,13.410,baseline
1196.000,300.400,79.080,15.650,1421.000,295.300,75.800,14.200,450.900,106.500,31.010,9.738,622.900,157.800,44.740,13.350,baseline
1194.000,300.200,79.150,15.620,1418.000,295.800,75.560,14.200,450.800,106.300,30.990,9.731,622.100,157.700,44.700,13.310,baseline
1193.000,299.700,78.630,15.630,1413.000,296.200,75.870,14.210,451.500,106.100,30.990,9.717,621.600,158.000,44.770,13.340,baseline
1195.000,300.300,78.800,15.650,1419.000,295.200,75.850,14.230,450.800,106.300,30.920,9.723,621.300,157.800,44.880,13.360,baseline
1196.000,300.700,79.180,15.670,1420.000,295.400,75.870,14.210,449.500,106.500,31.000,9.736,622.800,158.100,44.960,13.400,baseline
1199.000,301.500,79.130,15.750,1420.000,296.200,75.940,14.270,453.600,106.500,31.030,9.733,623.400,158.600,45.020,13.440,baseline
1202.000,302.700,79.800,15.750,1424.000,296.100,76.020,14.260,453.200,106.600,31.050,9.741,624.300,158.800,45.070,13.510,baseline
1204.000,303.400,79.640,15.830,1425.000,296.500,76.330,14.270,454.800,106.700,31.100,9.761,626.400,158.800,45.360,13.520,baseline
1204.000,303.400,79.360,15.700,1418.000,296.000,75.750,14.220,450.700,106.700,31.070,9.727,624.000,158.300,44.920,13.390,baseline
1194.000,300.100,78.880,15.630,1414.000,296.300,75.900,14.260,450.400,106.200,30.850,9.731,622.500,158.000,44.770,13.330,baseline
1193.000,299.400,78.720,15.590,1419.000,295.600,75.650,14.210,449.200,106.400,30.940,9.697,621.300,157.900,44.800,13.330,baseline
1194.000,300.200,78.950,15.600,1416.000,295.900,75.750,14.260,451.000,106.300,30.940,9.697,621.800,158.200,44.720,13.350,baseline
1194.000,300.000,78.810,15.670,1420.000,295.600,75.870,14.230,453.700,106.600,30.950,9.709,622.500,158.000,44.790,13.370,baseline
1196.000,300.600,78.990,15.690,1421.000,295.900,76.110,14.230,450.600,106.500,30.910,9.705,623.600,158.400,45.000,13.410,baseline
1199.000,301.400,79.100,15.740,1418.000,295.900,75.790,14.260,453.700,106.200,30.960,9.739,624.000,158.600,45.020,13.460,baseline
1202.000,302.600,79.540,15.820,1425.000,297.000,76.090,14.290,449.700,106.400,31.010,9.744,625.800,159.100,45.210,13.480,baseline
1204.000,302.700,79.620,15.840,1425.000,297.500,76.230,14.300,451.600,106.700,31.030,9.762,625.400,159.100,45.140,13.480,baseline
1198.000,302.000,78.750,15.680,1417.000,295.600,75.650,14.230,451.600,106.700,31.030,9.718,623.700,158.200,44.890,13.390,baseline
1192.000,300.500,78.870,15.580,1417.000,295.100,75.610,14.220,451.000,106.400,30.920,9.695,622.600,157.700,44.850,13.310,baseline
1190.000,299.900,78.690,15.580,1416.000,295.100,75.780,14.240,456.100,106.300,30.890,9.667,621.400,157.700,44.870,13.330,baseline
1192.000,300.700,78.960,15.630,1417.000,295.600,75.740,14.230,449.900,106.400,30.850,9.684,623.000,157.800,44.850,13.370,baseline
1194.000,301.900,79.000,15.650,1419.000,294.900,75.780,14.220,452.800,106.200,30.900,9.701,623.000,158.200,45.000,13.390,baseline
1196.000,301.500,79.170,15.730,1419.000,296.600,75.830,14.270,451.900,106.300,30.920,9.717,623.600,158.700,45.010,13.430,baseline
1201.000,302.200,79.780,15.740,1420.000,296.300,76.140,14.330,452.900,106.300,30.980,9.721,625.400,158.900,45.030,13.450,baseline
1207.000,304.400,79.940,15.800,1422.000,297.500,76.200,14.330,451.400,106.800,31.020,9.726,625.900,159.200,45.330,13.540,baseline
1210.000,303.900,79.790,15.900,1425.000,297.000,76.340,14.290,453.000,106.800,31.050,9.728,626.300,159.100,45.200,13.410,baseline
1201.000,302.600,79.280,15.740,1423.000,296.600,76.130,14.250,455.500,106.600,30.960,9.671,623.300,158.400,44.930,13.370,baseline
1200.000,300.800,79.280,15.660,1419.000,295.900,75.950,14.250,450.500,106.300,30.880,9.656,623.400,158.400,44.920,13.350,baseline
1200.000,302.300,79.380,15.750,1423.000,296.600,76.150,14.270,452.800,106.000,30.930,9.664,623.300,158.300,44.940,13.340,baseline
1202.000,302.700,79.370,15.770,1430.000,297.000,76.270,14.270,451.500,106.500,30.950,9.698,623.300,158.600,44.990,13.400,baseline
1204.000,303.100,79.440,15.770,1427.000,297.200,76.270,14.270,453.800,106.400,30.970,9.695,623.700,158.400,45.030,13.400,baseline
1205.000,303.200,79.740,15.770,1432.000,296.900,76.320,14.300,451.500,106.500,30.950,9.700,625.500,158.700,45.080,13.420,baseline
1208.000,303.700,79.980,15.800,1432.000,296.900,76.300,14.340,452.300,106.300,30.950,9.694,625.500,159.500,45.200,13.470,baseline
1211.000,304.100,80.040,15.830,1428.000,297.400,76.210,14.290,456.000,106.200,31.000,9.699,626.800,159.000,45.030,13.390,baseline
1203.000,301.100,79.590,15.630,1422.000,296.200,75.890,14.250,450.600,106.000,30.930,9.680,623.000,158.000,45.000,13.370,baseline
1200.000,301.100,79.270,15.620,1421.000,295.900,75.770,14.270,450.500,106.300,30.910,9.683,621.600,158.600,44.780,13.340,baseline
1199.000,300.800,79.150,15.670,1423.000,296.400,76.060,14.230,453.800,106.100,30.890,9.663,622.700,158.300,44.810,13.380,baseline
1202.000,302.200,79.320,15.690,1422.000,296.400,76.300,14.240,449.500,106.300,30.850,9.684,622.400,158.300,44.970,13.360,baseline
1202.000,303.900,79.630,15.700,1421.000,296.200,76.070,14.260,449.700,105.900,30.880,9.660,622.500,158.700,44.930,13.410,baseline
1204.000,302.800,79.620,15.800,1428.000,296.300,76.100,14.260,450.400,106.200,30.910,9.683,625.000,158.600,45.100,13.450,baseline
1206.000,304.900,79.930,15.820,1424.000,296.400,76.260,14.230,450.700,106.500,30.830,9.695,624.700,159.200,45.240,13.470,baseline
1207.000,303.200,79.930,15.800,1427.000,296.300,75.870,14.190,454.900,106.200,31.000,9.697,624.600,158.700,45.030,13.390,baseline
1196.000,301.600,79.080,15.650,1417.000,295.200,75.850,14.190,451.200,106.000,30.850,9.664,622.300,157.900,44.760,13.310,baseline
1194.000,300.300,78.750,15.620,1419.000,295.800,75.800,14.170,448.900,105.900,30.790,9.622,620.000,157.800,44.800,13.280,baseline
1193.000,301.700,79.030,15.650,1416.000,295.700,75.670,14.190,452.900,105.900,30.830,9.645,620.700,158.000,44.840,13.280,baseline
1196.000,299.500,79.090,15.620,1423.000,295.600,75.710,14.200,449.500,106.300,30.840,9.644,622.400,157.900,44.800,13.360,baseline
1198.000,301.100,79.360,15.700,1425.000,296.200,75.980,14.210,450.800,106.000,30.850,9.650,623.600,158.100,44.950,13.350,baseline
1200.000,302.600,79.220,15.720,1420.000,296.500,75.990,14.220,449.300,106.000,30.850,9.654,622.200,158.500,45.110,13.400,baseline
1202.000,302.400,79.520,15.780,1420.000,295.500,76.150,14.210,451.400,106.300,30.920,9.686,624.100,158.800,45.090,13.400,baseline
1204.000,303.300,79.530,15.740,1417.000,295.500,75.610,14.170,453.100,106.100,30.840,9.674,622.700,158.000,44.820,13.350,baseline
1193.000,299.300,78.850,15.590,1418.000,295.300,75.690,14.190,453.600,105.700,30.820,9.632,621.000,157.600,44.700,13.280,baseline
1191.000,299.800,78.800,15.570,1415.000,294.700,75.770,14.170,448.600,105.700,30.790,9.621,620.500,157.800,44.670,13.260,baseline
1192.000,300.700,79.030,15.580,1417.000,295.600,75.760,14.180,451.900,106.200,30.770,9.615,621.000,157.800,44.690,13.270,baseline
1193.000,300.800,79.010,15.570,1413.000,295.200,75.720,14.190,447.300,105.500,30.750,9.653,620.300,158.000,44.650,13.280,baseline
1194.000,300.700,79.140,15.630,1419.000,296.500,75.870,14.200,447.900,106.000,30.760,9.633,622.000,157.900,44.790,13.320,baseline
1196.000,301.700,79.290,15.630,1422.000,295.000,75.850,14.210,450.500,105.800,30.830,9.674,623.500,158.600,44.780,13.380,baseline
1200.000,301.900,79.800,15.770,1421.000,296.500,76.010,14.240,451.400,106.100,30.840,9.698,623.300,158.900,45.040,13.400,baseline
1201.000,301.800,78.930,15.660,1417.000,295.400,75.780,14.200,447.700,106.000,30.840,9.644,622.100,158.200,44.790,13.290,baseline
1191.000,299.700,78.530,15.580,1412.000,294.300,75.710,14.170,452.900,106.100,30.790,9.615,620.200,157.700,44.600,13.230,baseline
1189.000,299.100,78.620,15.490,1412.000,294.800,75.530,14.120,449.400,105.500,30.690,9.636,619.400,157.400,44.570,13.240,baseline
1189.000,300.000,78.860,15.610,1418.000,294.800,75.590,14.120,448.200,105.900,30.800,9.636,622.400,157.600,44.710,13.270,baseline
1192.000,299.800,78.790,15.580,1415.000,294.600,75.590,14.140,449.300,106.100,30.760,9.644,620.700,158.200,44.640,13.290,baseline
1193.000,300.800,78.670,15.570,1415.000,295.000,75.770,14.170,450.600,106.100,30.820,9.663,620.500,158.000,44.640,13.290,baseline
1195.000,301.700,79.030,15.680,1413.000,294.700,75.840,14.220,449.700,105.900,30.860,9.674,622.600,158.000,44.790,13.330,baseline
1196.000,302.800,79.300,15.740,1419.000,294.900,75.790,14.220,451.800,106.000,30.790,9.672,622.900,158.400,44.930,13.360,baseline
1196.000,299.900,78.850,15.600,1416.000,295.400,75.570,14.170,453.200,106.200,30.880,9.670,620.400,157.200,44.530,13.240,baseline
1189.000,300.300,78.740,15.550,1415.000,294.500,75.430,14.150,450.900,105.700,30.750,9.642,620.100,157.400,44.590,13.210,baseline
1188.000,300.200,78.520,15.510,1412.000,295.000,75.550,14.190,451.200,105.500,30.760,9.615,621.300,157.000,44.490,13.240,baseline
1190.000,299.800,78.650,15.560,1417.000,294.500,75.590,14.220,450.100,105.800,30.810,9.634,620.100,157.500,44.430,13.250,baseline
1191.000,299.900,78.940,15.580,1414.000,294.200,75.660,14.200,449.700,105.800,30.770,9.642,621.100,157.500,44.610,13.260,baseline
1195.000,300.900,79.170,15.600,1414.000,295.200,75.700,14.230,448.000,105.500,30.810,9.660,621.100,157.400,44.760,13.310,baseline
1197.000,301.000,79.360,15.670,1414.000,295.200,76.090,14.220,450.300,105.900,30.790,9.655,622.500,158.200,44.850,13.380,baseline
1198.000,302.100,79.420,15.710,1417.000,296.000,75.820,14.210,450.200,105.900,30.770,9.680,623.900,158.400,44.790,13.310,baseline
1193.000,300.100,78.780,15.600,1412.000,294.700,75.390,14.130,448.700,105.400,30.790,9.643,620.900,157.600,44.560,13.230,baseline
1189.000,298.800,78.490,15.560,1411.000,294.400,75.600,14.140,452.200,105.600,30.750,9.629,620.700,157.300,44.510,13.170,baseline
1186.000,298.800,78.390,15.490,1411.000,294.900,75.620,14.180,447.200,105.800,30.730,9.633,620.300,157.000,44.340,13.200,baseline
1190.000,300.100,78.810,15.510,1413.000,294.800,75.690,14.170,449.200,105.600,30.790,9.642,620.100,157.000,44.470,13.180,baseline
1189.000,299.100,78.800,15.540,1415.000,295.400,75.610,14.180,448.700,105.600,30.720,9.639,621.200,157.400,44.600,13.230,baseline
1192.000,300.800,79.240,15.640,1417.000,295.100,75.770,14.200,452.300,105.800,30.790,9.663,622.600,157.800,44.730,13.270,baseline
1195.000,300.300,79.120,15.630,1419.000,295.900,75.850,14.220,449.200,105.800,30.800,9.675,622.100,158.100,44.800,13.320,baseline
1198.000,301.400,79.300,15.670,1422.000,295.400,75.880,14.230,450.300,105.600,30.820,9.671,622.900,158.200,44.750,13.290,baseline
1191.000,299.500,78.940,15.550,1414.000,294.900,75.730,14.170,452.200,105.700,30.790,9.648,620.400,157.200,44.520,13.220,baseline
1188.000,299.100,78.470,15.540,1410.000,294.900,75.590,14.140,450.400,105.600,30.710,9.636,619.400,156.800,44.490,13.180,baseline
1184.000,298.500,78.460,15.560,1413.000,294.400,75.650,14.180,451.200,105.400,30.700,9.628,618.300,156.900,44.470,13.190,baseline
1189.000,298.600,78.890,15.560,1418.000,294.600,75.740,14.190,451.900,105.500,30.720,9.630,619.900,157.200,44.440,13.240,baseline
1189.000,300.700,78.810,15.580,1411.000,294.500,75.830,14.180,444.900,105.900,30.680,9.649,621.200,157.300,44.570,13.240,baseline
1191.000,299.600,78.660,15.650,1419.000,294.400,75.700,14.220,449.800,106.200,30.780,9.679,622.000,157.600,44.680,13.300,baseline
1196.000,300.300,79.090,15.670,1417.000,295.100,75.780,14.250,448.200,105.600,30.870,9.680,621.900,157.900,44.810,13.300,baseline
1197.000,301.100,79.230,15.690,1420.000,295.100,75.650,14.250,451.000,105.800,30.800,9.690,623.000,158.400,44.850,13.340,baseline
1195.000,299.300,78.740,15.560,1412.000,294.200,75.650,14.190,448.300,106.000,30.800,9.638,621.500,157.500,44.620,13.230,baseline
1188.000,299.700,78.510,15.490,1413.000,294.700,75.430,14.190,449.600,105.800,30.680,9.627,620.100,157.300,44.430,13.150,baseline
1185.000,297.700,78.380,15.470,1410.000,293.600,75.400,14.220,448.900,105.600,30.680,9.618,620.000,157.500,44.410,13.230,baseline
1189.000,299.100,78.800,15.520,1414.000,295.400,75.680,14.200,448.700,105.900,30.770,9.636,620.700,157.300,44.550,13.230,baseline
1190.000,299.900,78.660,15.580,1414.000,295.400,75.750,14.210,447.800,105.500,30.760,9.662,620.700,157.500,44.570,13.250,baseline
1191.000,300.500,78.700,15.580,1415.000,294.600,75.910,14.190,448.200,105.700,30.780,9.634,622.300,157.500,44.680,13.310,baseline
1194.000,300.500,78.920,15.630,1417.000,295.100,75.920,14.240,446.600,105.800,30.800,9.638,623.600,157.800,44.710,13.310,baseline
1197.000,301.900,79.080,15.660,1416.000,295.500,76.050,14.260,451.500,105.600,30.800,9.673,622.500,158.400,44.820,13.310,baseline
1196.000,301.300,79.070,15.530,1416.000,294.800,75.830,14.210,451.200,105.600,30.830,9.619,622.200,157.600,44.630,13.220,baseline
1188.000,298.800,78.620,15.530,1412.000,294.900,75.710,14.180,447.500,105.400,30.680,9.645,619.900,157.200,44.540,13.200,baseline
1196.000,301.100,79.190,15.650,1415.000,295.000,75.790,14.260,451.700,105.700,30.810,9.666,623.600,158.100,44.910,13.330,hard
1198.000,301.300,79.550,15.720,1420.000,296.400,75.920,14.240,450.400,105.400,30.800,9.657,624.400,158.100,44.820,13.350,hard
1197.000,300.700,79.170,15.640,1413.000,295.400,75.690,14.190,451.300,106.100,30.840,9.656,621.800,157.800,44.770,13.230,hard
1190.000,298.500,78.770,15.540,1414.000,295.300,75.860,14.200,449.600,105.300,30.680,9.602,620.600,157.600,44.560,13.220,hard
1187.000,299.100,78.560,15.490,1410.000,294.900,75.600,14.160,451.100,105.400,30.600,9.600,621.300,157.200,44.440,13.210,hard
1189.000,299.400,78.550,15.540,1417.000,294.900,75.650,14.210,450.800,105.700,30.680,9.601,620.400,157.800,44.510,13.230,hard
1191.000,300.800,78.870,15.540,1418.000,294.400,76.030,14.210,450.700,105.500,30.650,9.630,620.500,157.400,44.630,13.250,hard
1193.000,300.900,78.770,15.590,1416.000,295.800,75.860,14.260,448.800,105.600,30.700,9.637,621.100,158.100,44.770,13.300,hard
1196.000,302.200,79.300,15.640,1418.000,294.800,76.030,14.270,449.100,105.700,30.780,9.644,623.200,157.900,44.850,13.310,hard
1196.000,300.500,79.460,15.640,1417.000,295.800,75.880,14.240,452.400,105.700,30.730,9.640,623.600,158.400,44.870,13.370,hard
1199.000,301.800,79.420,15.630,1418.000,295.700,75.780,14.210,451.300,105.700,30.760,9.665,622.500,157.900,44.900,13.220,hard
1190.000,298.700,78.560,15.510,1413.000,294.500,75.560,14.200,449.600,105.700,30.640,9.608,620.500,157.400,44.590,13.180,hard
1187.000,297.900,78.620,15.460,1411.000,294.900,75.550,14.190,449.700,105.400,30.700,9.567,621.000,157.200,44.520,13.200,hard
1188.000,298.900,78.560,15.510,1415.000,294.500,75.650,14.170,445.500,105.500,30.660,9.595,620.300,157.400,44.560,13.230,hard
1190.000,299.400,78.960,15.540,1410.000,294.800,75.850,14.200,445.200,105.400,30.670,9.603,620.300,157.500,44.680,13.240,hard
1191.000,299.500,78.570,15.560,1415.000,295.000,75.730,14.180,448.800,105.300,30.640,9.598,621.800,158.000,44.750,13.250,hard
1192.000,300.700,79.200,15.590,1418.000,294.800,75.770,14.240,451.200,105.500,30.680,9.619,623.300,157.900,44.730,13.310,hard
1196.000,301.500,78.940,15.710,1418.000,294.900,75.940,14.250,448.200,105.400,30.800,9.644,624.100,158.400,44.910,13.350,hard
1198.000,301.300,79.310,15.680,1420.000,295.900,76.010,14.270,449.500,105.500,30.790,9.662,623.300,158.800,45.070,13.400,hard
1200.000,302.000,79.340,15.680,1417.000,295.100,75.950,14.160,448.800,105.700,30.810,9.644,622.900,158.400,44.730,13.300,hard
1191.000,300.600,78.950,15.520,1413.000,294.300,75.630,14.210,449.200,105.400,30.690,9.621,623.100,157.700,44.590,13.230,hard
1190.000,299.900,78.620,15.500,1411.000,294.400,75.690,14.180,449.700,105.300,30.650,9.573,621.900,157.500,44.620,13.240,hard
1187.000,300.100,78.730,15.540,1416.000,294.200,75.770,14.210,449.000,105.400,30.660,9.593,622.400,157.400,44.660,13.260,hard
1191.000,299.300,78.820,15.540,1415.000,295.000,75.690,14.210,447.100,105.600,30.630,9.584,622.200,157.900,44.730,13.260,hard
1191.000,301.100,79.080,15.590,1416.000,294.600,75.870,14.210,449.900,105.500,30.660,9.607,623.700,158.000,44.800,13.280,hard
1193.000,301.800,79.020,15.600,1414.000,294.900,75.900,14.220,451.200,105.700,30.600,9.613,624.100,158.200,44.960,13.340,hard
1196.000,302.500,79.380,15.680,1416.000,295.700,75.850,14.240,450.500,105.600,30.690,9.616,623.900,158.300,44.990,13.390,hard
1200.000,301.900,79.390,15.720,1419.000,295.800,76.120,14.250,449.200,105.800,30.710,9.636,625.500,158.700,45.010,13.370,hard
1195.000,300.000,78.640,15.600,1412.000,295.500,75.710,14.170,450.800,105.800,30.740,9.621,622.900,157.800,44.790,13.260,hard
1190.000,300.900,78.910,15.580,1412.000,293.900,75.760,14.170,447.100,105.600,30.600,9.573,621.800,157.600,44.650,13.250,hard
1189.000,300.100,78.670,15.510,1416.000,294.900,75.550,14.210,447.200,105.200,30.600,9.576,622.500,157.700,44.750,13.250,hard
1191.000,300.900,78.740,15.570,1414.000,295.500,75.770,14.190,450.800,105.400,30.600,9.570,622.000,157.900,44.810,13.270,hard
1193.000,301.400,78.820,15.600,1416.000,294.700,75.760,14.210,448.400,105.400,30.690,9.576,622.800,158.100,44.820,13.320,hard
1196.000,299.900,79.000,15.610,1417.000,294.700,75.680,14.190,450.600,105.800,30.670,9.599,624.200,158.500,44.880,13.360,hard
1197.000,302.100,79.420,15.650,1416.000,295.700,75.780,14.240,448.400,105.900,30.710,9.619,625.000,158.800,45.110,13.400,hard
1201.000,303.100,79.460,15.670,1417.000,295.900,75.870,14.220,450.500,106.000,30.750,9.614,626.200,158.700,45.190,13.440,hard
1197.000,301.500,78.860,15.510,1415.000,294.700,75.440,14.170,449.600,105.300,30.650,9.581,622.700,157.900,44.790,13.290,hard
1190.000,300.100,78.460,15.520,1408.000,294.800,75.400,14.160,451.000,105.300,30.560,9.563,621.900,157.800,44.730,13.250,hard
1188.000,300.300,78.280,15.510,1413.000,294.900,75.670,14.140,450.900,105.100,30.500,9.532,621.500,157.500,44.680,13.260,hard
1190.000,300.400,78.860,15.530,1412.000,294.500,75.550,14.130,451.900,105.400,30.480,9.533,622.300,157.700,44.780,13.260,hard
1190.000,301.800,78.730,15.500,1416.000,294.800,75.640,14.170,446.400,105.500,30.480,9.557,622.500,157.700,44.760,13.290,hard
1193.000,300.700,78.700,15.580,1416.000,295.200,75.540,14.170,446.900,105.300,30.570,9.566,624.500,157.600,44.880,13.320,hard
1194.000,301.900,79.270,15.620,1416.000,294.300,75.850,14.180,449.400,105.300,30.600,9.557,624.800,158.000,44.990,13.410,hard
1198.000,301.400,79.290,15.680,1416.000,295.000,75.760,14.160,448.400,105.400,30.560,9.565,624.300,158.500,45.080,13.400,hard
1193.000,300.100,78.590,15.510,1412.000,294.500,75.330,14.150,452.700,105.500,30.600,9.533,621.700,157.800,44.750,13.280,hard
1188.000,299.100,78.600,15.460,1409.000,293.800,75.290,14.140,449.700,104.800,30.480,9.519,621.200,157.500,44.590,13.200,hard
1185.000,298.700,78.340,15.430,1406.000,294.300,75.300,14.090,449.300,104.900,30.520,9.509,621.900,157.500,44.470,13.250,hard
1186.000,298.500,78.280,15.460,1410.000,294.700,75.560,14.150,449.600,105.200,30.420,9.489,621.500,157.400,44.660,13.250,hard
1186.000,297.800,78.540,15.540,1411.000,294.700,75.580,14.140,449.800,105.100,30.460,9.495,622.300,157.400,44.650,13.270,hard
1189.000,300.200,78.600,15.530,1414.000,294.600,75.740,14.170,448.000,105.000,30.480,9.502,621.800,157.500,44.680,13.300,hard
1194.000,302.200,79.090,15.600,1413.000,294.400,75.590,14.140,451.500,105.000,30.540,9.516,623.100,157.900,44.840,13.330,hard
1195.000,301.300,78.970,15.580,1414.000,294.400,75.750,14.160,448.600,105.100,30.490,9.532,625.100,158.300,44.930,13.370,hard
1191.000,299.700,78.310,15.460,1414.000,293.800,75.190,14.110,448.400,105.300,30.430,9.487,622.600,157.500,44.650,13.250,hard
1187.000,299.100,78.440,15.420,1410.000,293.200,75.320,14.100,443.500,105.200,30.370,9.484,621.100,157.000,44.590,13.180,hard
1183.000,298.500,78.430,15.430,1412.000,293.400,75.240,14.090,452.200,105.000,30.350,9.450,620.400,157.100,44.490,13.230,hard
1185.000,299.100,78.450,15.440,1411.000,293.300,75.240,14.100,448.900,105.000,30.330,9.482,621.400,157.400,44.530,13.200,hard
1186.000,298.500,78.380,15.450,1409.000,293.500,75.130,14.080,452.100,104.700,30.370,9.457,622.100,157.300,44.590,13.250,hard
1188.000,299.500,78.400,15.470,1408.000,292.900,75.350,14.110,451.600,104.700,30.410,9.483,621.800,157.400,44.670,13.280,hard
1191.000,299.100,78.550,15.520,1409.000,293.900,75.400,14.150,454.400,104.800,30.410,9.477,622.300,158.100,44.780,13.320,hard
1193.000,300.700,78.680,15.580,1408.000,293.400,75.590,14.120,447.500,105.100,30.480,9.492,622.000,157.500,44.730,13.270,hard
1186.000,299.300,78.120,15.430,1404.000,292.800,75.190,14.060,451.100,104.900,30.290,9.471,620.100,157.000,44.410,13.200,hard
1182.000,297.300,78.250,15.420,1409.000,292.500,75.160,14.090,444.200,104.800,30.260,9.435,619.300,156.800,44.330,13.170,hard
1182.000,297.400,78.040,15.440,1406.000,292.400,75.100,14.080,450.000,104.700,30.220,9.429,619.800,156.900,44.400,13.170,hard
1182.000,298.100,78.130,15.430,1407.000,292.700,75.270,14.090,447.300,105.000,30.350,9.442,620.500,157.100,44.340,13.160,hard
1183.000,298.800,78.100,15.450,1407.000,293.300,75.160,14.100,446.700,104.600,30.270,9.450,620.600,157.700,44.390,13.220,hard
1187.000,297.800,78.500,15.450,1409.000,293.500,75.270,14.100,449.900,105.000,30.290,9.443,621.600,157.300,44.650,13.240,hard
1189.000,298.400,78.420,15.520,1411.000,293.000,75.180,14.130,447.300,104.900,30.320,9.472,622.100,157.700,44.650,13.280,hard
1190.000,299.000,78.390,15.400,1411.000,293.000,75.030,14.040,450.100,104.900,30.340,9.449,620.700,157.000,44.400,13.200,hard
1181.000,297.100,77.980,15.350,1403.000,291.600,75.030,14.030,449.200,104.200,30.160,9.407,618.700,156.800,44.290,13.110,hard
1178.000,297.200,77.500,15.320,1400.000,292.400,75.010,14.040,445.500,104.500,30.180,9.404,619.000,156.500,44.180,13.100,hard
1179.000,297.300,78.000,15.380,1407.000,292.400,75.070,14.050,446.300,104.700,30.150,9.393,619.000,156.700,44.350,13.070,hard
1180.000,296.900,77.960,15.330,1403.000,292.600,75.080,14.070,444.000,104.600,30.160,9.395,618.900,156.500,44.330,13.170,hard
1181.000,298.200,78.140,15.370,1404.000,292.700,75.080,14.080,448.300,104.400,30.250,9.401,619.200,156.900,44.300,13.160,hard
1183.000,298.800,77.920,15.480,1403.000,292.900,75.210,14.140,447.600,105.000,30.270,9.427,620.900,156.900,44.520,13.230,hard
1185.000,298.400,78.440,15.530,1407.000,292.900,75.340,14.120,448.200,104.700,30.250,9.436,621.500,157.200,44.500,13.220,hard
1183.000,297.100,77.910,15.380,1404.000,292.300,75.080,14.060,446.500,104.800,30.310,9.402,619.400,156.300,44.200,13.110,hard
1177.000,297.600,77.630,15.270,1400.000,291.900,75.030,14.050,445.000,104.400,30.150,9.368,618.800,156.500,44.100,13.050,hard
1174.000,295.600,77.380,15.260,1406.000,291.900,75.080,14.060,446.000,104.400,30.160,9.361,617.800,156.100,44.090,13.080,hard
1176.000,297.700,77.510,15.340,1401.000,291.200,74.940,14.060,447.200,104.600,30.130,9.364,618.500,156.300,44.110,13.090,hard
1177.000,295.600,77.700,15.300,1406.000,292.300,75.140,14.050,447.700,104.700,30.230,9.372,618.700,156.300,44.320,13.120,hard
1179.000,297.500,78.110,15.300,1408.000,292.200,75.170,14.090,445.900,104.400,30.200,9.380,618.700,156.400,44.360,13.110,hard
1181.000,296.500,77.950,15.460,1408.000,293.100,75.260,14.070,446.700,104.900,30.200,9.388,620.200,157.200,44.280,13.160,hard
1182.000,297.800,78.290,15.460,1407.000,292.900,75.320,14.100,449.100,104.700,30.220,9.398,621.000,157.200,44.480,13.210,hard
1184.000,298.500,77.940,15.420,1401.000,291.900,74.980,14.050,446.500,104.700,30.260,9.377,620.000,156.800,44.200,13.140,hard
1175.000,296.300,77.690,15.320,1403.000,291.500,74.970,14.030,448.800,104.700,30.150,9.363,618.800,156.400,44.120,13.010,hard
1173.000,294.700,77.440,15.260,1402.000,292.000,75.020,14.050,448.300,104.400,30.090,9.347,618.000,156.000,44.050,13.060,hard
1175.000,295.900,77.630,15.280,1404.000,291.700,75.020,14.020,445.100,104.400,30.220,9.343,618.200,156.200,44.060,13.070,hard
1176.000,296.900,77.630,15.310,1404.000,291.800,74.970,14.070,445.200,104.900,30.140,9.371,617.900,156.600,44.250,13.100,hard
1178.000,296.300,77.850,15.320,1406.000,291.900,75.060,14.050,443.400,104.800,30.130,9.363,619.000,156.900,44.260,13.110,hard
1180.000,297.400,78.110,15.370,1409.000,292.300,75.190,14.060,443.700,104.700,30.210,9.403,620.300,157.100,44.340,13.140,hard
1182.000,297.900,78.360,15.380,1405.000,291.500,75.150,14.070,447.200,104.700,30.250,9.384,620.100,157.300,44.400,13.190,hard
1181.000,297.300,78.220,15.350,1407.000,292.100,75.100,14.020,447.800,104.500,30.200,9.383,619.500,156.900,44.290,13.100,hard
1176.000,295.800,77.960,15.330,1401.000,291.400,74.760,14.020,442.100,104.900,30.110,9.331,618.800,156.300,44.120,13.020,hard
1174.000,294.900,77.300,15.220,1402.000,292.200,74.990,14.080,445.800,104.700,30.130,9.345,618.500,156.100,44.060,13.050,hard
1176.000,294.900,77.550,15.330,1404.000,291.800,75.110,14.020,447.100,104.400,30.150,9.365,618.900,156.300,44.200,13.090,hard
1177.000,296.300,77.730,15.320,1403.000,292.000,75.110,14.060,445.700,104.700,30.110,9.346,617.800,156.900,44.080,13.130,hard
1178.000,297.200,77.760,15.370,1405.000,292.300,75.300,14.020,448.700,104.800,30.130,9.376,619.600,156.800,44.250,13.140,hard
1180.000,298.000,78.050,15.410,1408.000,292.300,75.260,14.030,451.200,104.700,30.150,9.391,620.700,157.200,44.450,13.180,hard
1182.000,298.300,78.250,15.450,1408.000,293.300,75.290,14.090,447.000,104.900,30.230,9.385,620.600,157.200,44.460,13.220,hard
1185.000,297.900,78.450,15.380,1404.000,292.500,75.190,14.070,445.700,104.800,30.190,9.378,620.400,156.600,44.240,13.120,hard
1176.000,295.800,77.610,15.260,1400.000,291.900,75.040,14.040,448.400,104.600,30.160,9.348,619.100,156.300,43.990,13.080,hard
1173.000,295.700,77.480,15.250,1400.000,291.800,75.120,14.010,444.700,104.900,30.160,9.339,616.900,156.200,44.020,13.060,hard
1172.000,294.700,77.770,15.290,1401.000,292.500,74.950,14.030,447.500,104.600,30.140,9.327,618.100,156.500,44.190,13.090,hard
1176.000,296.500,77.840,15.320,1407.000,292.300,75.080,14.060,446.100,104.800,30.170,9.345,619.300,156.700,44.210,13.100,hard
1179.000,297.400,78.010,15.300,1408.000,292.300,74.990,14.080,447.200,104.500,30.080,9.350,620.100,156.900,44.300,13.160,hard
1178.000,296.700,78.060,15.350,1406.000,292.000,75.230,14.040,447.600,104.900,30.150,9.365,620.000,157.100,44.440,13.180,hard
1181.000,297.800,78.350,15.420,1409.000,291.700,75.330,14.080,446.000,105.000,30.190,9.373,621.100,157.300,44.470,13.240,hard
1183.000,298.200,78.590,15.470,1407.000,292.600,75.150,14.060,445.200,105.000,30.190,9.388,622.200,157.400,44.620,13.230,hard
1178.000,296.300,77.750,15.310,1406.000,291.900,75.140,13.990,447.100,104.800,30.150,9.340,618.400,157.100,44.260,13.110,hard
1175.000,297.700,77.350,15.260,1402.000,291.700,75.020,14.020,447.200,104.600,30.030,9.310,618.300,156.800,44.170,13.090,hard
1171.000,295.200,77.640,15.280,1404.000,291.400,74.950,14.040,445.700,104.600,30.050,9.329,620.000,156.600,44.240,13.140,hard
1174.000,295.700,77.710,15.310,1403.000,292.000,75.010,14.030,449.200,104.600,30.060,9.345,620.700,156.800,44.390,13.110,hard
1177.000,296.400,77.780,15.320,1401.000,292.500,74.950,14.070,447.700,104.800,30.150,9.345,619.500,156.800,44.370,13.150,hard
1178.000,296.700,77.930,15.360,1406.000,292.900,74.950,14.060,448.800,104.500,30.200,9.346,619.700,157.300,44.480,13.200,hard
1179.000,297.600,78.170,15.390,1408.000,292.300,75.190,14.110,446.600,104.700,30.150,9.371,621.300,157.400,44.450,13.230,hard
1182.000,296.800,78.380,15.450,1408.000,292.600,75.340,14.070,446.500,104.800,30.130,9.374,622.700,157.900,44.590,13.250,hard
1183.000,299.100,77.850,15.430,1407.000,292.700,75.220,14.060,448.700,104.700,30.200,9.365,620.800,157.200,44.370,13.180,hard
1176.000,295.900,77.550,15.330,1403.000,292.500,75.120,14.030,448.200,104.800,30.150,9.313,618.400,156.900,44.360,13.120,hard
1173.000,297.700,77.450,15.230,1404.000,292.500,75.040,14.040,447.800,104.800,30.020,9.305,617.600,156.600,44.280,13.120,hard
1174.000,295.600,77.740,15.280,1404.000,291.900,75.140,14.050,447.300,104.700,30.120,9.330,618.200,157.000,44.400,13.150,hard
1175.000,295.700,77.820,15.290,1404.000,292.100,75.110,14.060,446.900,104.800,30.030,9.331,619.600,157.000,44.460,13.170,hard
1178.000,297.300,77.740,15.330,1406.000,291.900,75.120,14.030,448.400,104.600,29.960,9.336,619.600,157.000,44.480,13.200,hard
1179.000,298.000,78.280,15.420,1407.000,292.700,75.090,14.070,448.100,104.800,30.130,9.356,619.900,157.500,44.630,13.230,hard
1183.000,299.000,78.330,15.440,1410.000,293.800,75.150,14.090,446.000,105.200,30.180,9.355,622.700,157.700,44.700,13.250,hard
1182.000,297.800,78.100,15.360,1408.000,292.500,75.010,14.040,452.800,104.800,30.150,9.350,619.800,157.100,44.410,13.170,hard
1174.000,295.900,77.850,15.280,1402.000,291.800,74.950,14.010,446.000,104.600,30.070,9.330,619.100,157.100,44.370,13.110,hard
1173.000,295.700,77.540,15.270,1405.000,292.100,75.140,14.020,447.400,104.700,30.050,9.298,618.600,156.600,44.290,13.130,hard
1174.000,295.600,77.720,15.280,1401.000,292.000,75.050,14.020,446.300,104.700,30.020,9.325,619.000,156.600,44.320,13.160,hard
1176.000,297.100,77.950,15.290,1407.000,291.800,75.080,14.030,444.000,104.700,29.990,9.294,618.500,157.000,44.460,13.130,hard
1177.000,296.900,78.100,15.330,1407.000,292.700,75.070,14.070,447.700,104.800,30.110,9.319,619.600,157.200,44.530,13.180,hard
1180.000,298.100,77.970,15.390,1405.000,292.700,75.090,14.040,446.700,104.600,30.060,9.320,618.300,157.300,44.700,13.240,hard
1183.000,299.700,78.460,15.430,1412.000,292.700,75.180,14.120,446.700,104.800,30.160,9.334,621.100,157.900,44.630,13.280,hard
1184.000,298.700,78.450,15.400,1407.000,292.500,75.040,14.030,449.300,104.700,30.080,9.329,619.400,157.300,44.540,13.170,hard
1175.000,296.500,77.590,15.270,1404.000,292.100,74.950,14.020,448.100,104.200,30.030,9.302,618.900,156.700,44.220,13.150,hard
1174.000,296.600,77.450,15.240,1405.000,291.700,75.030,14.030,446.100,104.600,30.040,9.276,617.700,156.600,44.270,13.090,hard
1173.000,296.000,77.890,15.250,1402.000,292.300,75.140,14.030,448.700,104.500,29.990,9.318,618.300,156.700,44.290,13.110,hard
1174.000,295.400,77.820,15.260,1407.000,291.900,75.030,14.010,446.700,104.400,29.940,9.304,618.700,156.600,44.300,13.160,hard
1177.000,297.200,77.930,15.300,1407.000,291.900,75.170,14.050,448.700,104.300,30.070,9.299,620.300,157.100,44.420,13.170,hard
1178.000,296.900,78.160,15.340,1410.000,292.700,75.110,14.030,445.800,104.400,30.020,9.310,620.900,157.300,44.620,13.210,hard
1180.000,297.800,78.030,15.410,1407.000,292.300,75.220,14.040,449.200,104.400,30.040,9.307,620.600,157.500,44.580,13.250,hard
1184.000,297.900,78.130,15.380,1409.000,292.900,75.180,14.030,447.700,104.600,30.090,9.295,621.700,157.600,44.680,13.210,hard
1177.000,296.500,77.410,15.290,1406.000,292.000,74.970,14.010,447.400,104.700,30.030,9.300,619.700,157.100,44.320,13.120,hard
1172.000,294.900,77.340,15.260,1403.000,291.200,74.880,13.960,448.200,104.200,29.940,9.283,618.500,156.400,44.210,13.080,hard
1171.000,295.900,77.220,15.240,1402.000,291.100,74.870,14.030,447.700,104.700,30.010,9.266,618.400,156.800,44.130,13.090,hard
1173.000,295.800,77.460,15.240,1400.000,291.700,75.000,14.030,444.700,104.300,29.940,9.264,618.300,156.900,44.250,13.100,hard
1173.000,296.300,77.490,15.280,1404.000,292.200,75.050,14.020,447.400,104.200,29.940,9.282,618.500,156.600,44.400,13.160,hard
1176.000,296.400,78.070,15.300,1406.000,292.700,74.910,14.040,448.100,104.200,29.980,9.300,620.100,157.000,44.450,13.190,hard
1178.000,297.100,77.660,15.330,1405.000,292.400,74.950,14.050,446.100,104.600,29.980,9.305,619.800,157.600,44.510,13.190,hard
1181.000,297.600,78.010,15.340,1408.000,293.000,75.100,14.040,447.100,104.500,30.020,9.304,621.000,157.400,44.380,13.210,hard
1175.000,295.500,77.520,15.270,1404.000,291.900,74.940,13.990,446.000,104.100,30.000,9.283,619.600,156.600,44.290,13.100,hard
1172.000,295.500,77.290,15.240,1401.000,291.600,74.690,13.990,446.500,104.300,29.890,9.261,616.600,156.600,44.230,13.060,hard
1171.000,294.800,77.220,15.190,1406.000,291.400,74.770,13.970,447.700,104.000,29.860,9.263,618.400,156.000,44.200,13.120,hard
1173.000,294.900,77.330,15.270,1401.000,291.700,75.050,14.000,446.000,104.100,29.930,9.278,617.500,156.500,44.240,13.130,hard
1173.000,295.900,77.690,15.240,1403.000,291.500,75.080,14.030,447.500,104.400,29.870,9.278,617.600,156.300,44.360,13.150,hard
1175.000,295.600,77.760,15.280,1401.000,291.300,74.920,13.990,444.700,104.100,29.960,9.301,619.800,157.400,44.430,13.170,hard
1178.000,296.800,77.720,15.310,1407.000,291.400,75.090,14.030,448.600,104.200,29.960,9.297,619.500,157.200,44.470,13.240,hard
1180.000,298.400,78.060,15.350,1406.000,292.300,75.140,14.020,446.000,104.200,29.980,9.314,620.600,157.300,44.430,13.220,hard
1176.000,294.900,77.730,15.200,1398.000,290.900,74.860,13.990,447.700,104.100,29.940,9.288,618.500,156.600,44.230,13.110,hard
1170.000,293.500,77.140,15.190,1400.000,290.700,74.760,13.970,446.500,104.100,29.880,9.261,618.200,156.500,44.100,13.100,hard
1168.000,293.800,77.340,15.180,1402.000,291.100,74.660,13.960,447.700,104.300,29.810,9.253,617.200,156.400,44.080,13.060,hard
1169.000,293.900,77.280,15.170,1403.000,291.100,75.000,13.990,445.600,104.200,29.900,9.248,618.700,156.100,44.240,13.080,hard
1171.000,295.100,77.300,15.210,1399.000,291.300,74.720,13.970,445.500,104.000,29.910,9.257,619.200,156.600,44.270,13.110,hard
1172.000,295.300,77.550,15.270,1405.000,291.800,74.900,14.010,446.900,104.300,29.910,9.301,620.800,156.500,44.230,13.140,hard
1174.000,295.700,77.490,15.280,1403.000,291.600,75.200,14.000,449.500,104.300,29.910,9.293,620.500,157.100,44.430,13.140,hard
1177.000,296.000,77.800,15.330,1407.000,291.800,74.960,14.000,450.000,104.100,29.910,9.289,622.000,157.500,44.430,13.230,hard
1179.000,297.500,77.580,15.320,1404.000,291.400,75.060,13.990,447.000,104.400,29.990,9.292,620.600,157.000,44.160,13.100,hard
1170.000,294.900,77.270,15.200,1399.000,290.900,74.740,14.000,447.300,104.500,29.830,9.232,618.800,156.300,44.160,13.090,hard
1168.000,294.100,76.830,15.130,1399.000,290.700,74.790,13.940,446.100,104.300,29.840,9.254,618.000,156.000,44.070,13.060,hard
1168.000,293.000,77.050,15.130,1402.000,291.400,74.710,13.980,447.600,104.300,29.870,9.244,619.200,156.400,44.090,13.070,hard
1169.000,294.200,77.450,15.170,1400.000,291.400,74.950,13.990,448.100,104.100,29.920,9.243,619.700,156.800,44.160,13.090,hard
1171.000,294.300,77.570,15.230,1404.000,291.200,74.770,13.990,449.500,104.100,29.840,9.245,619.800,156.900,44.170,13.150,hard
1175.000,296.100,77.680,15.230,1402.000,291.300,74.970,14.040,450.200,104.200,29.870,9.281,620.700,157.200,44.350,13.170,hard
1176.000,296.700,77.950,15.310,1406.000,291.600,75.020,14.010,452.000,104.600,29.940,9.286,622.800,157.900,44.410,13.210,hard
1179.000,297.200,77.570,15.350,1408.000,292.100,75.210,14.030,448.100,104.600,29.940,9.304,623.400,158.000,44.630,13.270,hard
1182.000,298.000,78.000,15.370,1405.000,292.800,75.200,14.010,447.700,104.500,29.950,9.316,623.300,157.900,44.380,13.200,hard
1172.000,294.300,77.250,15.230,1404.000,291.600,74.940,14.030,448.800,104.200,29.850,9.259,620.900,157.000,44.190,13.100,hard
1170.000,293.900,77.180,15.200,1402.000,291.500,74.840,13.950,449.000,104.300,29.870,9.234,621.200,156.700,44.150,13.100,hard
1169.000,294.400,77.190,15.220,1402.000,291.000,74.940,14.010,447.300,104.300,29.880,9.254,621.000,157.100,44.270,13.130,hard
1171.000,295.100,77.350,15.240,1405.000,290.700,74.960,14.020,449.200,104.500,29.910,9.269,621.700,157.100,44.230,13.150,hard
1173.000,294.500,77.200,15.260,1405.000,291.300,74.930,14.020,445.800,104.700,29.890,9.259,621.700,157.200,44.300,13.160,hard
1176.000,296.200,77.560,15.310,1403.000,292.100,74.820,14.020,448.600,104.800,29.970,9.266,622.800,157.700,44.380,13.190,hard
1178.000,296.000,78.110,15.330,1406.000,292.200,75.090,14.050,447.200,104.700,29.970,9.277,623.400,157.700,44.470,13.240,hard
1180.000,296.300,77.970,15.300,1407.000,292.400,75.290,14.030,449.800,104.800,30.100,9.297,625.000,157.900,44.550,13.270,hard
1178.000,297.200,77.560,15.260,1403.000,292.300,74.780,14.010,450.800,104.500,30.020,9.270,623.000,157.500,44.340,13.160,hard
1171.000,296.000,77.080,15.230,1402.000,291.300,75.040,14.030,452.900,104.400,29.990,9.257,620.800,157.400,44.320,13.120,hard
1172.000,294.400,77.280,15.150,1404.000,292.300,74.900,13.990,448.900,104.300,29.920,9.252,619.900,157.000,44.310,13.140,hard
1172.000,295.700,77.340,15.270,1403.000,292.200,74.810,14.030,449.600,104.400,29.990,9.255,621.800,157.400,44.280,13.180,hard
1172.000,295.800,77.480,15.270,1403.000,291.700,74.910,14.000,448.600,104.500,29.970,9.261,621.700,157.500,44.390,13.190,hard
1174.000,295.300,77.410,15.260,1405.000,291.800,75.050,14.030,447.500,104.400,29.930,9.297,624.500,158.000,44.420,13.210,hard
1177.000,297.600,77.630,15.340,1410.000,291.600,75.330,14.060,449.700,104.500,30.030,9.288,625.200,158.000,44.660,13.250,hard
1180.000,298.600,78.150,15.350,1406.000,292.700,75.250,14.080,453.000,104.900,30.000,9.306,625.300,158.700,44.740,13.310,hard
1183.000,298.100,78.100,15.350,1408.000,292.400,74.960,14.020,449.300,104.700,30.040,9.289,624.900,158.000,44.590,13.210,hard
1173.000,294.900,76.950,15.230,1403.000,292.600,74.900,14.030,445.900,104.800,30.010,9.270,623.000,157.400,44.230,13.150,hard
1169.000,293.600,77.250,15.160,1401.000,291.400,74.920,14.030,451.500,104.700,30.040,9.244,622.300,157.600,44.340,13.130,hard
1169.000,295.000,77.530,15.140,1401.000,291.100,74.780,14.030,447.500,104.400,29.960,9.266,621.900,157.500,44.360,13.130,hard
1171.000,294.800,77.570,15.240,1403.000,292.900,74.960,14.020,449.100,104.600,30.010,9.269,623.400,157.800,44.320,13.180,hard
1173.000,296.000,77.380,15.270,1401.000,292.300,75.030,14.050,450.800,104.700,30.000,9.260,623.200,157.900,44.420,13.210,hard
1174.000,295.600,77.350,15.290,1408.000,292.600,75.030,14.030,446.900,104.900,29.990,9.295,624.100,158.600,44.430,13.230,hard
1177.000,295.900,77.830,15.310,1409.000,292.500,75.350,14.080,451.200,104.700,30.000,9.298,624.900,158.400,44.570,13.260,hard
1178.000,296.200,77.700,15.360,1408.000,293.000,75.130,14.100,448.100,104.700,30.060,9.306,625.400,158.400,44.650,13.300,hard
1180.000,296.500,77.910,15.310,1404.000,292.200,75.060,14.040,450.000,105.000,30.090,9.296,623.900,158.100,44.550,13.190,hard
1170.000,294.900,77.200,15.220,1402.000,291.800,75.040,14.020,447.900,104.800,29.960,9.266,622.700,157.600,44.290,13.160,hard
1168.000,294.800,76.900,15.150,1405.000,292.200,75.030,14.010,450.000,104.800,29.950,9.246,621.900,157.400,44.270,13.100,hard
1168.000,295.500,76.920,15.190,1404.000,292.800,74.900,14.010,448.900,104.700,29.990,9.256,621.500,157.600,44.340,13.140,hard
1169.000,295.000,77.200,15.200,1406.000,292.200,75.080,14.040,449.700,104.600,29.950,9.257,622.700,157.500,44.290,13.110,hard
1171.000,294.800,77.400,15.250,1406.000,292.600,75.030,14.030,448.200,104.900,29.990,9.276,622.600,158.000,44.370,13.180,hard
1174.000,296.100,77.590,15.270,1410.000,292.600,75.280,14.020,449.100,104.700,30.050,9.280,625.200,158.500,44.480,13.210,hard
1175.000,295.000,77.680,15.380,1409.000,292.900,75.300,14.050,451.300,104.900,30.010,9.309,624.200,158.300,44.530,13.260,hard
1179.000,296.800,77.870,15.360,1407.000,292.700,75.270,14.080,452.000,104.800,30.060,9.326,626.200,159.100,44.650,13.240,hard
1174.000,294.400,77.490,15.220,1403.000,292.400,75.060,14.010,451.300,105.000,29.950,9.292,623.300,157.900,44.390,13.120,hard
1168.000,294.400,77.190,15.130,1400.000,291.300,75.050,14.010,447.900,105.000,30.010,9.254,622.700,157.400,44.250,13.110,hard
1167.000,294.000,77.000,15.170,1404.000,291.700,74.930,14.030,448.900,104.400,30.000,9.251,621.400,157.700,44.320,13.110,hard
1170.000,294.300,77.020,15.220,1404.000,291.600,75.090,14.030,453.600,104.700,29.980,9.274,622.400,157.600,44.350,13.110,hard
1169.000,294.700,77.270,15.190,1405.000,292.700,75.030,14.040,447.400,104.700,30.010,9.280,623.700,157.700,44.430,13.150,hard
1172.000,294.800,77.540,15.200,1406.000,292.100,75.140,14.040,448.900,104.700,30.050,9.274,622.500,158.100,44.510,13.150,hard
1174.000,295.900,77.750,15.270,1406.000,292.700,75.230,14.050,449.400,105.000,30.030,9.285,623.300,158.000,44.560,13.240,hard
1176.000,296.500,78.230,15.270,1410.000,292.700,75.260,14.040,446.300,104.900,30.070,9.307,624.000,158.300,44.660,13.240,hard
1174.000,295.300,77.240,15.200,1404.000,292.700,74.890,14.020,451.200,105.000,29.990,9.277,623.200,157.600,44.270,13.130,hard
1167.000,295.000,77.150,15.160,1404.000,291.000,74.960,14.000,450.500,104.800,29.990,9.266,621.400,157.400,44.120,13.070,hard
1165.000,294.000,76.860,15.120,1400.000,291.900,75.190,14.010,452.500,104.600,29.970,9.241,620.700,157.600,44.250,13.090,hard
1167.000,292.500,77.290,15.150,1401.000,291.900,74.930,14.030,448.300,104.600,30.010,9.270,621.100,157.600,44.220,13.100,hard
1168.000,293.200,77.150,15.180,1405.000,292.300,74.950,14.000,449.600,104.800,29.940,9.276,621.100,157.300,44.280,13.100,hard
1170.000,297.100,77.600,15.240,1405.000,292.100,75.140,14.040,450.700,104.700,29.970,9.267,623.100,157.500,44.430,13.150,hard
1173.000,295.200,77.570,15.210,1405.000,292.200,75.230,14.070,451.200,104.700,30.000,9.274,623.300,158.000,44.480,13.170,hard
1175.000,295.700,77.610,15.300,1408.000,292.400,75.240,14.080,449.900,104.800,29.990,9.295,623.800,158.500,44.580,13.210,hard
1177.000,296.600,77.880,15.310,1407.000,292.800,75.140,14.040,450.400,105.100,30.100,9.314,623.900,157.900,44.230,13.140,hard
1167.000,294.900,77.070,15.140,1405.000,291.900,75.000,14.010,446.100,104.800,29.980,9.250,621.900,157.300,44.170,13.090,hard
1163.000,293.000,76.920,15.120,1404.000,291.700,74.860,13.990,448.400,104.600,29.950,9.232,620.400,157.100,44.120,13.070,hard
1164.000,292.500,76.650,15.060,1400.000,292.000,74.980,13.970,449.300,104.500,29.940,9.250,620.500,157.100,44.180,13.060,hard
1166.000,294.200,77.110,15.110,1402.000,291.900,75.050,14.010,448.400,104.500,29.980,9.268,621.800,157.200,44.130,13.050,hard
1167.000,294.700,77.170,15.180,1403.000,292.600,75.020,14.020,449.900,104.800,29.960,9.256,620.000,157.600,44.100,13.080,hard
1170.000,293.800,77.390,15.200,1405.000,292.700,75.180,14.030,449.600,104.700,29.960,9.282,622.600,158.100,44.350,13.150,hard
1172.000,295.300,77.600,15.220,1404.000,292.600,75.130,14.030,448.300,104.800,30.000,9.281,622.600,157.700,44.350,13.190,hard
1175.000,297.700,77.780,15.250,1406.000,293.100,75.340,14.080,450.100,104.500,30.100,9.297,623.800,158.200,44.520,13.210,hard
1176.000,295.800,77.510,15.210,1404.000,292.400,75.140,14.040,448.500,104.700,30.060,9.287,622.700,157.500,44.320,13.090,hard
1166.000,293.200,77.350,15.120,1403.000,292.400,75.190,14.010,450.100,104.600,30.010,9.280,620.200,157.300,44.200,13.050,hard
1164.000,292.900,77.140,15.060,1403.000,292.400,75.050,13.990,450.100,104.900,29.960,9.261,619.300,157.200,44.130,12.990,hard
1165.000,293.300,77.080,15.110,1401.000,291.700,75.030,14.000,452.800,104.700,29.960,9.268,620.700,157.200,44.190,13.020,hard
1167.000,294.100,77.130,15.110,1401.000,293.000,75.080,14.020,452.300,104.700,29.930,9.266,621.500,157.500,44.140,13.070,hard
1168.000,295.100,77.300,15.140,1404.000,292.500,75.070,14.040,446.200,104.600,30.060,9.265,623.100,157.900,44.330,13.090,hard
1170.000,294.100,77.340,15.200,1405.000,292.900,75.260,14.070,451.700,104.800,30.030,9.271,622.900,158.100,44.320,13.140,hard
1173.000,294.800,77.680,15.260,1406.000,293.000,75.470,14.080,449.600,104.600,29.970,9.287,622.500,158.200,44.410,13.160,hard
1175.000,295.800,77.560,15.280,1408.000,293.600,75.410,14.060,452.000,104.900,30.090,9.299,624.000,158.200,44.390,13.190,hard
1169.000,294.700,76.770,15.110,1403.000,292.400,75.250,14.040,451.300,104.600,30.030,9.264,621.500,157.300,44.220,13.000,hard
1166.000,294.000,76.930,15.120,1403.000,292.500,75.180,14.010,451.600,104.300,29.940,9.266,620.300,157.400,44.210,13.010,hard
1165.000,294.100,76.780,15.100,1402.000,291.200,75.340,14.010,452.000,104.600,29.930,9.269,621.900,157.400,44.280,13.050,hard
1167.000,293.800,76.720,15.160,1404.000,291.800,75.060,14.010,447.100,104.500,29.970,9.268,622.500,157.100,44.260,13.070,hard
1169.000,294.100,77.120,15.180,1402.000,291.500,75.000,14.030,447.600,104.600,30.020,9.277,621.300,157.600,44.240,13.100,hard
1171.000,294.700,77.650,15.200,1406.000,292.100,75.370,14.040,451.900,104.700,29.960,9.296,623.200,157.900,44.360,13.150,hard
1173.000,295.800,77.460,15.180,1405.000,293.200,75.120,14.080,451.400,104.800,30.000,9.284,623.200,158.000,44.520,13.170,hard
1175.000,296.000,77.750,15.300,1411.000,293.300,75.470,14.060,449.300,104.400,30.120,9.313,625.100,158.600,44.580,13.220,hard
1175.000,296.400,77.360,15.240,1403.000,292.500,75.160,14.010,452.600,104.800,30.070,9.307,621.900,157.800,44.370,13.080,hard
1165.000,294.200,77.180,15.190,1401.000,292.500,75.140,14.000,450.700,104.700,29.990,9.257,623.200,157.500,44.170,13.040,hard
1163.000,293.100,76.660,15.100,1401.000,292.100,75.110,14.020,452.000,104.700,29.960,9.257,621.400,157.400,44.050,13.040,hard
1165.000,292.500,77.020,15.150,1402.000,292.000,75.160,14.010,447.900,104.200,29.960,9.267,622.300,157.300,44.170,13.040,hard
1165.000,294.100,77.090,15.140,1401.000,292.100,75.280,14.010,450.800,104.600,29.990,9.267,622.800,157.400,44.270,13.040,hard
1167.000,293.700,77.370,15.190,1405.000,292.100,75.350,14.050,449.900,104.900,29.970,9.273,622.800,157.900,44.350,13.100,hard
1170.000,294.700,77.240,15.230,1406.000,292.500,75.390,14.050,451.300,104.700,30.010,9.309,623.200,158.300,44.420,13.120,hard
1173.000,296.600,77.810,15.270,1409.000,293.100,75.410,14.060,451.200,104.700,30.060,9.309,625.500,158.200,44.560,13.170,hard
1175.000,297.000,77.770,15.310,1409.000,293.500,75.430,14.080,449.000,104.700,30.120,9.310,625.200,158.800,44.570,13.230,hard
1173.000,295.500,77.530,15.170,1402.000,292.600,75.110,14.030,450.300,105.000,29.980,9.289,625.800,157.800,44.360,13.090,hard
1164.000,293.400,76.950,15.070,1401.000,292.000,75.000,14.040,450.900,104.600,30.010,9.264,622.500,157.300,44.250,13.040,hard
1163.000,292.700,77.060,15.070,1397.000,291.700,75.060,14.040,449.800,104.400,29.980,9.262,621.800,157.100,44.180,13.040,hard
1164.000,294.900,77.100,15.130,1402.000,292.000,75.080,14.000,450.100,104.300,29.970,9.269,623.200,157.300,44.240,13.040,hard
1164.000,292.000,76.610,15.140,1402.000,292.400,75.320,14.030,452.600,104.700,29.950,9.285,623.200,157.800,44.280,13.060,hard
1166.000,294.200,77.390,15.190,1403.000,292.700,75.210,14.050,453.100,104.600,30.020,9.286,623.900,157.900,44.320,13.110,hard
1169.000,294.600,77.460,15.180,1403.000,292.700,75.280,14.060,449.400,104.500,30.000,9.305,625.200,158.200,44.490,13.170,hard
1171.000,295.000,77.690,15.250,1409.000,293.500,75.390,14.040,456.600,104.800,30.100,9.328,625.600,158.500,44.510,13.180,hard
1174.000,296.500,77.630,15.280,1411.000,293.600,75.460,14.070,452.300,105.100,30.030,9.320,626.800,158.800,44.620,13.260,hard
1176.000,295.400,77.930,15.300,1407.000,292.300,75.290,14.060,451.900,104.800,30.070,9.328,625.500,158.600,44.610,13.160,hard
1166.000,293.700,77.160,15.110,1402.000,292.100,75.190,14.030,449.900,104.600,30.010,9.295,623.500,157.900,44.340,13.120,hard
1163.000,293.300,76.870,15.100,1402.000,291.700,74.970,14.020,449.700,105.000,30.010,9.292,623.600,158.000,44.160,13.090,hard
1163.000,294.100,76.860,15.150,1406.000,292.400,75.070,14.030,449.500,104.800,30.060,9.286,622.500,157.500,44.450,13.120,hard
1164.000,293.700,76.910,15.170,1404.000,292.600,75.080,14.090,451.700,104.800,30.030,9.299,622.900,157.800,44.360,13.100,hard
1165.000,294.300,77.090,15.160,1403.000,292.300,75.200,14.040,451.300,104.700,30.020,9.289,624.300,157.900,44.420,13.150,hard
1168.000,294.700,77.370,15.180,1405.000,292.700,75.230,14.040,451.600,104.700,30.110,9.314,624.100,158.200,44.490,13.220,hard
1170.000,294.500,77.680,15.290,1404.000,292.300,75.370,14.080,451.500,104.300,30.040,9.309,625.700,158.400,44.620,13.210,hard
1172.000,296.200,77.760,15.290,1409.000,292.900,75.390,14.050,448.600,104.700,30.110,9.317,627.600,158.900,44.700,13.220,hard
1171.000,294.900,77.240,15.190,1403.000,292.200,75.270,14.010,452.500,105.000,30.040,9.299,624.500,158.000,44.430,13.130,hard
1163.000,293.800,77.260,15.150,1401.000,292.200,74.960,14.020,450.900,104.800,29.980,9.294,623.200,157.900,44.370,13.100,hard
1161.000,293.300,76.820,15.130,1406.000,292.100,74.990,14.020,448.400,104.600,29.990,9.276,623.300,157.900,44.350,13.110,hard
1164.000,293.900,77.030,15.110,1402.000,292.000,75.080,14.030,451.000,104.700,29.940,9.290,624.200,157.500,44.350,13.130,hard
1165.000,292.700,77.380,15.180,1403.000,292.300,75.220,14.040,451.800,104.600,29.980,9.285,625.600,158.300,44.290,13.160,hard
1167.000,292.700,77.420,15.170,1407.000,292.200,75.060,14.020,449.900,104.700,30.020,9.300,625.200,158.300,44.500,13.160,hard
1169.000,295.200,77.630,15.250,1405.000,292.100,75.130,14.070,454.100,104.900,30.000,9.303,626.400,158.700,44.570,13.250,hard
1171.000,295.900,77.750,15.280,1406.000,292.900,75.470,14.060,450.300,104.800,30.150,9.324,627.200,158.700,44.680,13.260,hard
1173.000,296.400,77.730,15.300,1402.000,292.300,74.980,13.980,450.400,104.700,30.050,9.313,627.300,158.600,44.590,13.190,hard
1162.000,293.400,76.940,15.130,1397.000,291.900,74.970,13.960,448.500,104.600,30.020,9.267,623.000,157.600,44.550,13.130,hard
1160.000,292.800,76.590,15.080,1396.000,291.800,74.900,14.000,450.700,104.800,29.910,9.254,623.600,157.700,44.330,13.120,hard
1157.000,291.400,76.740,15.110,1396.000,291.400,75.020,14.000,449.100,104.300,29.910,9.261,623.200,157.700,44.320,13.120,hard
1160.000,293.400,76.570,15.120,1398.000,291.200,75.110,13.980,451.000,104.500,29.910,9.259,623.600,157.800,44.300,13.110,hard
1160.000,293.000,77.130,15.150,1402.000,291.100,75.140,14.020,449.400,104.400,29.930,9.261,624.100,157.900,44.400,13.120,hard
1163.000,292.300,77.190,15.160,1404.000,291.700,75.120,14.030,449.900,104.500,29.920,9.274,625.000,158.000,44.500,13.170,hard
1166.000,294.800,77.040,15.220,1403.000,291.800,75.020,14.060,450.300,104.700,30.070,9.291,626.500,158.300,44.540,13.210,hard
1168.000,295.300,77.850,15.260,1405.000,292.600,75.340,14.060,449.100,104.700,29.980,9.297,626.300,158.700,44.740,13.230,hard
1168.000,294.900,77.380,15.180,1399.000,291.900,75.020,14.000,453.300,104.600,30.050,9.273,624.000,157.700,44.330,13.150,hard
1158.000,291.400,76.880,15.050,1399.000,290.700,74.920,14.000,453.100,104.500,29.960,9.268,621.800,157.600,44.280,13.090,hard
1155.000,290.500,76.380,15.060,1397.000,291.000,74.850,13.930,454.000,104.400,29.940,9.248,620.500,157.000,44.180,13.060,hard
1155.000,292.000,76.720,15.090,1396.000,291.500,75.010,13.990,449.100,104.400,29.940,9.244,621.700,157.900,44.180,13.050,hard
1156.000,290.500,76.720,15.070,1395.000,291.100,74.860,13.980,450.000,104.200,29.870,9.251,621.600,157.500,44.220,13.100,hard
1158.000,293.200,76.650,15.140,1402.000,291.400,75.120,14.000,452.100,104.500,29.950,9.275,624.100,157.800,44.380,13.140,hard
1160.000,294.700,77.190,15.150,1401.000,291.500,74.890,14.010,452.000,104.700,29.880,9.263,623.500,157.900,44.520,13.140,hard
1162.000,293.600,77.390,15.180,1402.000,291.900,75.060,14.010,451.000,104.700,29.950,9.277,624.300,157.900,44.540,13.200,hard
1166.000,294.900,77.540,15.200,1405.000,291.700,75.150,13.980,451.300,104.500,29.970,9.282,623.900,158.400,44.650,13.220,hard
1163.000,293.900,76.700,15.100,1395.000,290.800,74.810,13.960,451.500,104.400,30.010,9.256,622.300,157.900,44.330,13.110,hard
1155.000,290.600,76.320,14.990,1397.000,290.100,74.800,13.940,451.300,104.200,29.880,9.251,622.300,157.200,44.230,13.060,hard
1153.000,290.800,76.380,15.030,1398.000,291.200,74.770,13.960,448.500,104.300,29.930,9.224,622.200,156.900,44.180,13.050,hard
1155.000,292.000,76.830,15.060,1399.000,290.900,74.670,13.920,450.200,104.300,29.900,9.243,622.300,157.100,44.150,13.080,hard
1155.000,291.800,76.980,15.050,1396.000,290.700,74.800,13.950,449.900,104.100,29.880,9.250,621.200,157.500,44.260,13.120,hard
1157.000,293.400,76.820,15.080,1397.000,291.600,74.820,13.980,447.900,104.200,29.860,9.243,623.000,157.600,44.300,13.150,hard
1159.000,292.300,76.840,15.180,1397.000,291.400,74.870,13.990,449.500,104.300,29.940,9.277,622.400,157.500,44.350,13.210,hard
1163.000,293.700,77.290,15.180,1399.000,291.200,75.010,13.990,449.500,104.400,29.810,9.266,624.100,158.000,44.560,13.210,hard
1164.000,293.900,77.310,15.150,1396.000,290.700,74.760,13.930,452.700,104.700,29.950,9.260,622.400,157.600,44.340,13.140,hard
1152.000,290.700,76.360,15.070,1392.000,290.100,74.630,13.940,448.300,104.300,29.850,9.223,621.500,157.300,44.180,13.040,hard
1150.000,291.200,76.760,15.010,1391.000,290.000,74.690,13.900,448.000,104.100,29.840,9.231,620.600,157.000,44.130,13.040,hard
1152.000,290.600,76.660,15.050,1391.000,290.800,74.730,13.910,449.700,104.300,29.880,9.239,621.000,157.000,44.130,13.060,hard
1153.000,291.500,76.730,15.060,1396.000,290.100,74.680,13.940,450.100,104.000,29.910,9.233,621.400,157.500,44.110,13.060,hard
1154.000,292.200,76.840,15.060,1394.000,290.700,74.680,13.920,448.200,104.000,29.910,9.236,622.300,157.300,44.290,13.110,hard
1158.000,292.300,76.900,15.090,1398.000,291.000,74.710,13.990,450.900,104.300,29.840,9.253,622.900,157.600,44.360,13.140,hard
1160.000,292.300,77.200,15.130,1395.000,291.300,74.830,14.010,449.600,104.300,29.860,9.266,624.200,157.800,44.460,13.200,hard
1161.000,294.000,77.180,15.200,1397.000,291.800,74.920,13.930,448.500,104.300,29.960,9.279,624.800,157.600,44.390,13.140,hard
1153.000,291.300,76.470,15.010,1390.000,290.600,74.560,13.890,446.200,104.100,29.840,9.232,621.100,157.000,44.090,13.090,hard
1149.000,289.900,76.290,15.020,1393.000,289.700,74.620,13.870,451.900,104.000,29.790,9.241,619.600,156.700,43.990,12.990,hard
1147.000,290.200,76.000,14.950,1392.000,289.800,74.560,13.870,448.700,104.100,29.770,9.210,620.600,156.700,44.090,13.000,hard
1148.000,290.700,76.110,14.970,1392.000,289.700,74.700,13.910,450.700,104.100,29.800,9.243,620.500,156.300,44.020,13.030,hard
1149.000,290.200,76.180,15.050,1394.000,290.300,74.550,13.890,449.800,103.800,29.880,9.224,620.900,156.600,44.030,13.050,hard
1152.000,290.300,76.690,15.050,1393.000,290.400,74.600,13.950,447.000,103.900,29.810,9.233,622.500,156.900,44.180,13.110,hard
1154.000,291.100,76.680,15.100,1396.000,290.600,74.650,13.950,448.900,104.100,29.870,9.257,623.100,157.200,44.290,13.140,hard
1156.000,292.600,76.900,15.120,1395.000,290.700,74.730,13.940,449.500,104.200,29.910,9.282,621.800,157.700,44.460,13.160,hard
1159.000,292.700,77.180,15.120,1397.000,290.300,74.780,13.950,450.500,104.300,29.870,9.271,623.100,157.900,44.340,13.120,hard
1150.000,289.400,76.260,14.970,1393.000,289.200,74.520,13.880,449.200,104.200,29.820,9.237,620.700,156.900,44.150,13.020,hard
1145.000,289.600,76.330,14.960,1387.000,289.100,74.370,13.880,452.100,103.900,29.850,9.255,620.400,156.800,44.060,12.990,hard
1144.000,288.800,75.860,14.940,1389.000,290.000,74.460,13.860,448.400,104.100,29.810,9.212,619.300,156.300,44.070,12.990,hard
1146.000,289.300,76.170,14.940,1390.000,289.400,74.530,13.880,447.200,103.900,29.800,9.216,619.500,156.600,44.110,13.000,hard
1145.000,288.900,75.990,14.940,1387.000,289.200,74.430,13.860,450.000,104.200,29.790,9.235,621.800,156.900,44.130,13.010,bogus
1146.000,289.100,76.260,14.970,1390.000,288.900,74.360,13.870,448.900,104.200,29.800,9.248,621.200,156.700,44.150,13.020,bogus
1147.000,288.800,76.370,14.980,1387.000,289.800,74.410,13.870,450.500,104.000,29.880,9.241,621.800,156.800,44.010,13.050,bogus
1150.000,289.600,76.390,15.030,1389.000,289.400,74.490,13.900,452.500,103.700,29.820,9.248,621.600,157.600,44.360,13.080,bogus
1153.000,290.900,76.610,15.090,1394.000,289.700,74.690,13.910,448.700,104.100,29.950,9.265,621.300,158.000,44.380,13.150,bogus
1129.000,286.800,75.490,14.850,1367.000,283.800,72.930,13.570,440.100,102.800,29.600,9.109,616.200,155.900,43.810,12.940,easy
1129.000,287.500,75.870,14.850,1364.000,283.600,72.930,13.580,443.500,102.900,29.510,9.106,615.900,155.600,43.820,12.940,easy
1131.000,286.900,75.920,14.910,1367.000,284.500,73.030,13.560,446.600,102.800,29.470,9.143,616.800,156.200,43.890,12.980,easy
1134.000,288.300,75.840,14.980,1368.000,283.700,73.390,13.610,444.700,103.000,29.540,9.144,616.600,156.200,44.120,13.010,easy
1136.000,287.700,76.020,14.950,1369.000,284.600,73.170,13.590,443.300,102.900,29.550,9.139,617.100,156.500,44.080,13.060,easy
1138.000,288.700,76.500,15.000,1367.000,285.600,73.180,13.620,444.800,103.100,29.580,9.161,618.400,156.900,44.200,13.060,easy
1135.000,288.100,75.880,14.880,1364.000,283.400,72.880,13.520,447.700,103.000,29.560,9.160,614.800,156.000,43.840,12.930,easy
1126.000,285.300,75.450,14.820,1364.000,283.600,72.870,13.520,443.900,102.600,29.410,9.124,614.000,155.500,43.670,12.860,easy
1124.000,285.800,74.930,14.760,1365.000,283.000,72.780,13.520,444.000,102.800,29.470,9.112,613.800,155.100,43.690,12.870,easy
1125.000,285.800,75.580,14.770,1364.000,283.800,73.050,13.500,441.800,102.400,29.460,9.115,613.900,155.400,43.560,12.880,easy
1125.000,286.000,75.330,14.850,1361.000,283.400,72.830,13.520,444.500,102.800,29.470,9.130,612.400,155.400,43.570,12.910,easy
1128.000,286.100,75.760,14.800,1367.000,284.100,72.840,13.550,442.600,102.800,29.480,9.128,615.100,155.800,43.640,12.920,easy
1129.000,287.100,75.760,14.830,1362.000,282.700,72.810,13.560,447.400,102.700,29.450,9.123,614.600,155.500,43.710,12.980,easy
1132.000,287.900,76.060,14.930,1367.000,283.500,73.090,13.550,443.500,102.800,29.430,9.134,614.700,155.900,43.990,13.010,easy
1134.000,286.500,75.950,14.950,1371.000,284.600,73.120,13.560,441.500,103.000,29.530,9.147,616.000,156.200,43.910,13.050,easy
1137.000,288.200,76.220,14.940,1367.000,283.900,73.190,13.560,446.400,102.700,29.540,9.156,614.900,156.300,44.060,13.080,easy
1139.000,288.800,76.270,14.960,1368.000,283.500,72.920,13.530,443.000,102.800,29.510,9.152,616.300,156.300,43.900,12.990,easy
1129.000,286.800,75.470,14.810,1364.000,283.500,72.730,13.490,442.300,102.600,29.530,9.103,614.000,155.300,43.640,12.910,easy
1125.000,286.400,75.270,14.760,1359.000,282.700,72.820,13.520,446.700,102.800,29.420,9.096,613.900,155.300,43.550,12.880,easy
1124.000,286.200,75.260,14.770,1362.000,282.900,72.790,13.510,442.300,102.400,29.470,9.108,612.700,155.300,43.540,12.880,easy
1126.000,286.200,75.630,14.770,1363.000,283.300,72.600,13.510,444.600,102.600,29.410,9.098,613.300,155.200,43.750,12.880,easy
1127.000,285.600,75.320,14.810,1364.000,282.600,72.780,13.480,441.600,102.500,29.430,9.097,614.000,155.400,43.610,12.900,easy
1129.000,286.900,76.170,14.810,1362.000,283.100,72.800,13.490,440.700,102.300,29.420,9.124,614.500,155.400,43.780,12.970,easy
1130.000,287.400,75.810,14.910,1365.000,283.700,72.800,13.550,445.700,102.700,29.410,9.119,615.900,155.900,43.720,12.970,easy
1133.000,288.500,76.140,14.890,1367.000,283.600,72.990,13.510,442.500,102.600,29.430,9.164,615.100,156.200,43.830,13.030,easy
1135.000,288.800,76.390,14.950,1367.000,284.100,72.970,13.550,444.100,102.500,29.520,9.137,615.000,156.000,44.010,13.070,easy
1135.000,289.000,76.080,14.920,1362.000,282.800,72.870,13.470,443.100,102.800,29.450,9.126,615.000,155.400,43.690,12.920,easy
1126.000,286.100,75.480,14.790,1360.000,282.600,72.780,13.500,441.300,102.800,29.360,9.088,612.100,155.000,43.600,12.880,easy
1126.000,285.500,75.240,14.770,1359.000,283.200,72.670,13.460,440.300,102.200,29.400,9.096,612.200,154.600,43.550,12.870,easy
1127.000,286.800,75.560,14.870,1364.000,283.100,72.790,13.500,443.100,102.700,29.330,9.090,612.900,155.600,43.570,12.860,easy
1128.000,286.900,75.620,14.810,1361.000,283.400,72.550,13.480,442.700,102.300,29.490,9.096,614.400,155.300,43.630,12.920,easy
1130.000,286.900,75.750,14.840,1365.000,283.100,72.930,13.530,442.500,102.400,29.380,9.111,614.800,155.700,43.740,12.940,easy
1132.000,287.600,75.750,14.870,1363.000,282.400,72.970,13.510,442.700,102.400,29.460,9.135,614.800,155.400,43.820,13.010,easy
1134.000,288.200,76.170,14.910,1368.000,283.800,73.010,13.520,437.200,102.500,29.460,9.150,616.000,155.600,43.860,12.990,easy
1137.000,288.900,76.170,14.960,1368.000,284.100,73.030,13.540,442.400,102.500,29.570,9.133,616.300,156.200,43.930,13.050,easy
1139.000,289.200,76.380,14.950,1367.000,283.700,72.840,13.510,444.700,102.700,29.640,9.145,616.600,156.200,43.820,12.980,easy
1128.000,286.100,75.500,14.790,1362.000,282.800,72.590,13.460,444.400,102.400,29.410,9.079,614.600,155.400,43.570,12.880,easy
1125.000,286.200,75.150,14.790,1361.000,282.300,72.670,13.460,444.000,102.200,29.340,9.080,613.200,154.900,43.460,12.830,easy
1124.000,285.500,75.310,14.790,1362.000,282.800,72.670,13.470,443.900,102.100,29.350,9.075,613.200,154.900,43.570,12.860,easy
1126.000,286.000,75.350,14.800,1364.000,283.000,72.680,13.450,442.900,102.200,29.350,9.096,613.100,154.800,43.540,12.860,easy
1127.000,286.500,75.540,14.830,1364.000,283.000,72.750,13.500,444.000,102.000,29.350,9.081,613.200,155.300,43.580,12.920,easy
1129.000,287.300,75.900,14.810,1365.000,283.300,72.730,13.490,443.500,102.500,29.370,9.115,613.200,155.800,43.710,12.920,easy
1131.000,288.300,75.800,14.850,1366.000,283.200,72.990,13.520,443.100,102.700,29.420,9.114,616.500,155.500,43.770,12.940,easy
1134.000,289.000,76.240,14.910,1364.000,283.300,72.970,13.520,441.900,102.500,29.460,9.139,615.600,156.200,43.800,13.010,easy
1136.000,289.000,76.370,14.950,1366.000,284.000,72.860,13.510,444.700,102.800,29.540,9.148,615.800,155.900,43.950,13.000,easy
1130.000,286.800,75.770,14.790,1360.000,282.800,72.610,13.420,442.600,102.500,29.410,9.107,613.500,155.100,43.650,12.870,easy
1124.000,286.500,75.680,14.750,1359.000,282.600,72.410,13.450,442.700,102.100,29.410,9.082,611.400,154.800,43.380,12.830,easy
1123.000,285.700,75.230,14.780,1362.000,282.100,72.590,13.440,441.200,102.200,29.460,9.081,613.800,154.700,43.380,12.810,easy
1124.000,285.800,75.500,14.770,1356.000,282.500,72.610,13.430,445.800,102.200,29.340,9.096,611.700,154.900,43.520,12.860,easy
1125.000,286.700,75.410,14.760,1360.000,282.300,72.520,13.450,442.000,102.800,29.320,9.084,611.600,154.900,43.460,12.870,easy
1127.000,285.700,75.600,14.820,1358.000,283.000,72.710,13.490,441.000,102.100,29.460,9.090,611.500,154.900,43.570,12.850,easy
1129.000,287.400,75.590,14.860,1360.000,282.500,72.750,13.470,442.000,102.500,29.450,9.128,614.400,155.500,43.740,12.920,easy
1132.000,288.200,76.320,14.900,1364.000,283.500,72.890,13.470,444.600,102.300,29.380,9.110,614.000,155.400,43.640,12.970,easy
1134.000,288.800,76.110,14.900,1363.000,283.600,72.820,13.480,441.400,102.400,29.490,9.128,615.900,155.700,43.890,12.960,easy
1133.000,286.600,76.120,14.830,1362.000,282.200,72.430,13.430,444.100,102.200,29.470,9.141,612.600,155.100,43.480,12.850,easy
1123.000,286.100,75.410,14.730,1358.000,281.300,72.430,13.470,443.400,102.200,29.380,9.073,611.600,154.800,43.450,12.850,easy
1123.000,285.300,75.150,14.720,1358.000,282.100,72.410,13.420,443.600,102.600,29.350,9.091,611.500,154.700,43.360,12.800,easy
1123.000,284.400,75.290,14.750,1359.000,282.500,72.390,13.410,444.300,102.200,29.330,9.083,610.900,154.700,43.370,12.850,easy
1123.000,285.100,75.260,14.780,1355.000,282.400,72.550,13.430,438.400,102.200,29.430,9.083,610.600,154.800,43.410,12.850,easy
1125.000,285.600,75.600,14.790,1358.000,282.300,72.560,13.450,439.500,102.100,29.410,9.083,611.100,154.900,43.540,12.850,easy
1127.000,286.500,75.630,14.870,1360.000,282.600,72.620,13.420,441.200,102.300,29.420,9.105,611.300,155.100,43.510,12.920,easy
1129.000,287.000,75.760,14.870,1361.000,282.300,72.500,13.440,440.700,102.300,29.390,9.117,614.400,155.500,43.670,12.930,easy
1131.000,287.400,75.660,14.910,1360.000,282.700,72.700,13.460,444.800,102.300,29.490,9.129,613.900,155.300,43.760,12.910,easy
1126.000,285.200,75.070,14.720,1361.000,281.700,72.410,13.370,439.800,102.200,29.390,9.100,610.200,154.800,43.330,12.820,easy
1121.000,285.300,75.280,14.700,1354.000,281.900,72.180,13.360,442.500,102.200,29.340,9.053,610.000,154.300,43.300,12.790,easy
1119.000,284.800,74.930,14.670,1355.000,281.000,72.370,13.410,442.200,102.100,29.300,9.081,610.700,154.500,43.320,12.780,easy
1122.000,285.400,75.160,14.710,1355.000,281.500,72.230,13.370,441.700,102.000,29.320,9.083,609.700,154.500,43.300,12.770,easy
1122.000,284.400,75.110,14.720,1357.000,282.000,72.400,13.400,442.000,102.000,29.320,9.075,611.200,154.500,43.310,12.790,easy
1123.000,286.300,75.320,14.760,1358.000,281.400,72.270,13.430,444.100,101.900,29.350,9.083,610.900,154.400,43.440,12.830,easy
1126.000,287.000,75.570,14.830,1359.000,282.100,72.330,13.430,440.400,101.800,29.320,9.096,612.200,155.100,43.560,12.840,easy
1128.000,286.500,75.650,14.820,1358.000,282.000,72.490,13.440,441.400,102.100,29.330,9.125,612.200,155.400,43.590,12.870,easy
1130.000,286.600,76.010,14.850,1363.000,282.200,72.420,13.400,442.500,102.300,29.430,9.103,613.200,155.400,43.690,12.900,easy
1130.000,287.500,75.590,14.800,1356.000,282.300,72.130,13.350,440.700,102.300,29.420,9.075,611.300,154.500,43.350,12.780,easy
1120.000,284.300,75.140,14.710,1352.000,281.200,72.170,13.320,439.500,102.300,29.300,9.067,610.400,154.300,43.270,12.730,easy
1117.000,283.200,74.290,14.670,1352.000,280.700,72.120,13.340,445.200,102.000,29.330,9.050,607.400,153.600,43.200,12.690,easy
1117.000,283.700,74.850,14.680,1353.000,280.700,72.220,13.390,441.700,102.000,29.260,9.049,609.000,153.900,43.130,12.720,easy
1119.000,284.000,74.780,14.710,1356.000,280.700,72.150,13.360,438.700,102.200,29.250,9.043,609.900,153.800,43.140,12.710,easy
1120.000,284.700,74.950,14.680,1354.000,281.200,72.240,13.360,437.100,101.700,29.330,9.063,609.000,153.900,43.200,12.740,easy
1122.000,285.700,75.400,14.750,1355.000,281.700,72.340,13.390,442.300,102.100,29.320,9.088,609.700,154.300,43.280,12.770,easy
1125.000,285.800,75.080,14.800,1357.000,281.800,72.390,13.400,443.500,102.200,29.360,9.101,610.000,154.600,43.460,12.790,easy
1126.000,285.200,75.620,14.810,1357.000,281.800,72.310,13.420,440.000,101.800,29.280,9.097,612.100,154.600,43.470,12.810,easy
1129.000,287.300,75.850,14.890,1361.000,282.100,72.460,13.410,441.100,102.200,29.400,9.105,612.400,155.000,43.560,12.880,easy
1129.000,285.900,75.410,14.750,1353.000,281.100,72.090,13.390,438.900,102.100,29.370,9.098,611.100,154.300,43.260,12.760,easy
1119.000,284.200,74.730,14.670,1353.000,281.000,72.190,13.330,439.300,101.900,29.330,9.083,609.400,154.200,43.160,12.720,easy
1117.000,283.700,74.790,14.640,1351.000,280.700,71.940,13.340,441.300,102.000,29.250,9.064,607.600,154.000,43.040,12.700,easy
1116.000,283.900,74.410,14.680,1353.000,281.000,72.150,13.360,437.800,101.800,29.360,9.058,608.000,153.600,43.110,12.690,easy
1118.000,284.100,74.670,14.700,1353.000,280.900,72.060,13.360,438.400,101.900,29.250,9.068,607.500,153.800,43.150,12.740,easy
1119.000,284.600,75.050,14.690,1350.000,280.800,72.190,13.420,442.200,101.700,29.320,9.058,609.300,154.000,43.290,12.740,easy
1122.000,284.500,75.340,14.760,1358.000,281.300,72.060,13.380,444.100,102.200,29.380,9.082,609.400,154.200,43.260,12.750,easy
1122.000,286.000,75.030,14.700,1350.000,279.500,71.870,13.320,439.400,102.000,29.310,9.071,610.000,154.400,43.360,12.800,easy
1120.000,284.200,75.150,14.690,1350.000,279.200,71.780,13.280,439.100,102.100,29.290,9.098,610.700,154.900,43.500,12.840,easy
1122.000,285.900,75.140,14.790,1355.000,280.900,72.020,13.340,439.100,102.200,29.340,9.127,611.300,154.900,43.520,12.850,easy
1123.000,285.800,75.310,14.680,1353.000,279.800,71.900,13.320,441.100,102.200,29.360,9.094,610.000,154.000,43.230,12.750,easy
1117.000,284.000,74.880,14.700,1355.000,280.300,72.040,13.280,438.500,102.000,29.290,9.076,608.300,153.900,43.270,12.730,easy
1118.000,283.800,74.890,14.650,1346.000,280.100,71.960,13.380,440.600,101.800,29.290,9.077,606.900,153.900,43.000,12.720,easy
1120.000,283.900,75.280,14.680,1353.000,280.900,72.210,13.360,440.200,101.600,29.340,9.086,609.100,153.900,43.170,12.730,easy
1120.000,284.400,74.920,14.760,1351.000,280.600,72.320,13.380,440.200,101.900,29.290,9.089,607.200,153.900,43.190,12.730,easy
1123.000,285.700,75.350,14.790,1356.000,281.100,72.280,13.400,438.900,101.800,29.360,9.084,610.000,154.400,43.270,12.790,easy
1126.000,287.000,75.480,14.790,1359.000,281.600,72.390,13.410,441.600,102.200,29.380,9.101,610.400,154.600,43.470,12.820,easy
1128.000,286.200,75.770,14.810,1357.000,281.900,72.520,13.410,441.100,101.900,29.450,9.113,610.100,155.100,43.530,12.880,easy
1130.000,287.100,75.810,14.840,1361.000,281.800,72.510,13.410,441.700,102.200,29.390,9.133,612.800,155.000,43.600,12.930,easy
1132.000,287.400,76.050,14.910,1360.000,282.300,72.340,13.370,440.600,102.000,29.410,9.148,611.900,154.700,43.490,12.860,easy
1122.000,284.700,75.040,14.790,1353.000,281.200,72.290,13.370,439.800,102.000,29.310,9.085,608.100,154.100,43.330,12.760,easy
1120.000,284.600,75.080,14.720,1352.000,280.400,72.140,13.360,442.700,101.800,29.290,9.066,608.100,153.800,43.140,12.760,easy
1119.000,283.000,75.090,14.680,1353.000,280.600,72.000,13.340,440.700,101.800,29.320,9.065,606.900,153.900,43.200,12.700,easy
1121.000,284.200,74.960,14.710,1352.000,281.000,72.290,13.340,437.600,102.000,29.380,9.080,608.500,154.000,43.140,12.720,easy
1122.000,285.800,75.270,14.750,1353.000,281.000,72.210,13.340,439.400,101.700,29.320,9.074,609.300,154.500,43.300,12.750,easy
1123.000,285.800,75.200,14.750,1352.000,281.400,72.280,13.360,442.500,101.900,29.350,9.104,609.400,154.300,43.350,12.780,easy
1125.000,286.100,75.430,14.780,1358.000,281.400,72.310,13.390,437.900,101.800,29.380,9.136,610.500,154.600,43.410,12.850,easy
1128.000,287.400,75.860,14.850,1358.000,281.200,72.450,13.430,440.600,101.900,29.420,9.135,611.200,154.900,43.440,12.890,easy
1130.000,287.600,76.010,14.860,1361.000,281.900,72.460,13.430,441.800,102.000,29.430,9.105,611.800,155.000,43.550,12.900,easy
1133.000,286.800,76.190,14.890,1361.000,282.500,72.430,13.430,443.600,102.100,29.490,9.144,612.000,155.500,43.730,12.900,easy
1127.000,286.300,75.570,14.810,1352.000,281.200,72.370,13.370,440.000,101.900,29.410,9.122,609.300,154.400,43.340,12.780,easy
1120.000,284.800,74.890,14.690,1350.000,281.200,71.960,13.340,440.600,101.700,29.350,9.098,608.600,154.300,43.200,12.720,easy
1119.000,284.700,74.880,14.730,1353.000,281.100,72.180,13.310,439.400,102.000,29.320,9.072,607.300,153.800,43.200,12.770,easy
1121.000,284.100,74.950,14.720,1353.000,281.000,72.150,13.360,441.100,101.800,29.310,9.077,609.900,154.400,43.250,12.790,easy
1121.000,284.200,75.090,14.770,1354.000,281.100,71.930,13.370,438.300,101.800,29.260,9.085,608.900,154.100,43.380,12.750,easy
1124.000,285.900,75.280,14.770,1356.000,281.100,72.170,13.370,440.000,101.700,29.310,9.113,609.400,154.500,43.360,12.810,easy
1126.000,286.000,75.410,14.840,1356.000,280.700,72.250,13.380,441.500,102.000,29.360,9.099,610.600,154.300,43.480,12.830,easy
1128.000,287.100,75.550,14.830,1354.000,281.600,72.520,13.420,438.900,102.100,29.460,9.128,611.200,155.100,43.480,12.870,easy
1130.000,287.900,75.710,14.900,1357.000,281.400,72.290,13.380,436.400,102.000,29.470,9.121,610.400,155.300,43.670,12.910,easy
1131.000,287.900,75.890,14.910,1361.000,281.400,72.440,13.390,443.000,102.300,29.490,9.137,613.100,155.700,43.720,12.970,easy
1134.000,288.100,76.190,14.890,1359.000,281.900,72.170,13.380,441.300,102.100,29.480,9.139,612.600,154.800,43.540,12.890,easy
1124.000,285.100,75.500,14.770,1353.000,280.600,72.120,13.350,442.100,101.900,29.380,9.093,610.300,154.400,43.390,12.840,easy
1122.000,284.600,75.300,14.770,1350.000,280.400,71.920,13.320,438.700,101.800,29.330,9.082,609.800,154.600,43.340,12.810,easy
1121.000,285.300,75.140,14.740,1356.000,280.800,71.950,13.310,440.600,102.000,29.260,9.090,608.300,154.400,43.350,12.840,easy
1123.000,285.100,75.500,14.810,1353.000,280.500,72.110,13.330,439.300,102.000,29.370,9.083,609.900,154.600,43.360,12.820,easy
1124.000,285.900,75.340,14.810,1353.000,281.000,72.410,13.340,443.300,101.900,29.380,9.088,609.500,154.400,43.450,12.850,easy
1126.000,286.600,75.550,14.840,1354.000,281.100,72.200,13.370,440.500,101.800,29.360,9.126,609.100,154.800,43.560,12.920,easy
1128.000,287.400,75.700,14.890,1354.000,281.100,72.200,13.360,441.400,102.200,29.440,9.132,610.600,154.700,43.710,12.890,easy
1130.000,288.100,75.970,14.920,1359.000,281.500,72.200,13.380,441.900,102.100,29.430,9.130,611.000,155.100,43.740,12.970,easy
1132.000,289.000,75.780,14.960,1361.000,282.300,72.230,13.370,442.600,102.300,29.390,9.159,613.000,155.400,43.780,12.940,easy
1129.000,287.300,75.460,14.790,1354.000,280.800,72.070,13.350,438.900,102.000,29.370,9.110,610.200,154.300,43.290,12.860,easy
1122.000,285.600,75.290,14.700,1350.000,279.800,71.840,13.320,435.900,102.000,29.350,9.104,609.000,154.300,43.400,12.780,easy
1119.000,284.700,75.380,14.770,1352.000,280.000,71.910,13.320,442.300,101.600,29.290,9.079,608.800,154.100,43.350,12.810,easy
1122.000,284.500,75.270,14.720,1351.000,280.800,71.950,13.340,443.600,101.800,29.350,9.095,609.700,154.300,43.380,12.830,easy
1122.000,285.800,75.150,14.750,1351.000,280.500,72.020,13.270,441.500,101.800,29.340,9.103,610.000,154.500,43.380,12.810,easy
1124.000,284.600,75.500,14.800,1353.000,280.800,72.010,13.300,441.900,102.000,29.340,9.086,609.800,154.600,43.470,12.870,easy
1125.000,286.800,75.820,14.810,1355.000,281.000,72.110,13.330,440.500,102.000,29.340,9.124,611.500,154.800,43.680,12.930,easy
1128.000,286.000,75.450,14.860,1357.000,280.500,72.130,13.330,437.300,102.000,29.370,9.109,610.100,155.400,43.700,12.950,easy
1130.000,287.700,75.990,14.900,1357.000,281.100,72.210,13.350,442.300,101.900,29.440,9.132,611.600,155.400,43.840,12.960,easy
1131.000,288.400,75.690,14.880,1353.000,280.300,71.950,13.290,440.500,102.100,29.430,9.124,611.200,155.000,43.550,12.870,easy
1121.000,284.600,75.130,14.720,1350.000,280.400,71.790,13.260,441.500,101.800,29.340,9.105,608.100,154.200,43.340,12.810,easy
1118.000,283.500,74.970,14.700,1348.000,279.000,71.700,13.240,438.400,101.800,29.340,9.073,607.500,154.400,43.290,12.790,easy
1117.000,283.600,74.950,14.650,1350.000,279.800,71.650,13.300,438.500,101.600,29.300,9.075,607.500,153.800,43.310,12.800,easy
1119.000,283.800,75.050,14.690,1347.000,279.600,71.600,13.250,442.600,101.600,29.340,9.079,607.800,154.200,43.290,12.810,easy
1120.000,283.800,75.050,14.750,1350.000,279.800,71.670,13.250,438.100,101.700,29.320,9.082,607.500,154.300,43.370,12.830,easy
1121.000,284.900,75.250,14.770,1351.000,279.900,71.760,13.270,435.900,101.900,29.350,9.104,608.500,154.400,43.510,12.870,easy
1124.000,285.800,75.690,14.830,1348.000,280.000,71.890,13.290,439.400,101.600,29.380,9.110,608.600,154.500,43.460,12.870,easy
1126.000,286.300,75.230,14.820,1351.000,280.100,71.980,13.270,438.600,101.500,29.400,9.119,611.200,154.900,43.640,12.940,easy
1128.000,286.400,75.560,14.850,1352.000,280.000,71.960,13.280,440.000,101.600,29.390,9.143,611.600,155.000,43.720,12.930,easy
1128.000,287.300,75.570,14.750,1348.000,279.000,71.680,13.250,437.600,102.000,29.360,9.115,608.900,154.500,43.460,12.820,easy
1117.000,284.400,74.460,14.700,1345.000,278.300,71.510,13.180,441.800,101.500,29.240,9.083,607.900,153.900,43.260,12.780,easy
1115.000,283.500,74.610,14.650,1347.000,278.700,71.470,13.210,440.600,101.300,29.270,9.077,606.400,153.500,43.170,12.760,easy
1115.000,282.700,74.650,14.650,1349.000,278.300,71.440,13.240,440.900,101.500,29.240,9.067,608.600,153.600,43.240,12.740,easy
1116.000,283.900,74.460,14.630,1342.000,279.000,71.610,13.210,440.700,101.500,29.230,9.069,606.500,153.600,43.170,12.780,easy
1116.000,283.600,74.840,14.660,1346.000,278.900,71.650,13.210,436.900,101.500,29.310,9.090,608.600,153.900,43.290,12.800,easy
1119.000,284.900,74.950,14.640,1346.000,279.200,71.610,13.260,439.200,101.900,29.270,9.087,608.600,154.100,43.440,12.840,easy
1121.000,284.800,75.220,14.750,1348.000,279.700,71.660,13.270,438.200,101.400,29.280,9.088,609.200,154.300,43.390,12.860,easy
1123.000,284.600,75.330,14.770,1347.000,279.200,71.750,13.220,440.400,101.400,29.310,9.094,610.600,155.000,43.500,12.880,easy
1122.000,284.900,74.750,14.670,1343.000,279.200,71.590,13.220,440.800,101.800,29.300,9.083,607.400,154.000,43.280,12.760,easy
1114.000,282.600,74.620,14.650,1345.000,277.800,71.490,13.180,437.500,101.500,29.290,9.084,607.600,153.800,43.110,12.770,easy
1112.000,283.000,74.230,14.550,1344.000,277.900,71.420,13.170,436.200,101.600,29.240,9.059,607.100,153.400,43.200,12.700,easy
1113.000,282.700,74.590,14.650,1345.000,278.400,71.360,13.190,434.300,101.300,29.230,9.075,606.700,153.700,43.150,12.750,easy
1113.000,283.500,74.500,14.620,1343.000,278.200,71.420,13.190,437.000,101.800,29.290,9.074,607.300,153.800,43.130,12.760,easy
1115.000,283.400,74.700,14.630,1345.000,278.000,71.520,13.190,436.400,101.700,29.260,9.087,607.900,154.100,43.230,12.790,easy
1117.000,283.800,74.930,14.690,1342.000,277.900,71.490,13.210,436.700,101.700,29.300,9.102,607.600,154.200,43.430,12.840,easy
1119.000,283.800,75.210,14.710,1347.000,278.800,71.640,13.210,441.000,101.500,29.290,9.120,610.200,154.400,43.540,12.860,easy
1121.000,285.600,75.200,14.730,1345.000,279.000,71.490,13.230,440.100,101.600,29.390,9.123,609.700,154.700,43.540,12.850,easy
1118.000,283.000,74.510,14.630,1341.000,278.000,71.370,13.140,437.900,101.700,29.320,9.087,606.800,153.800,43.120,12.750,easy
1110.000,282.800,74.480,14.530,1338.000,277.800,71.370,13.150,439.100,101.100,29.260,9.061,606.100,153.200,43.100,12.690,easy
1108.000,280.400,73.740,14.550,1336.000,277.500,70.990,13.140,439.100,101.200,29.240,9.032,606.900,153.200,43.040,12.690,easy
1110.000,280.900,74.260,14.540,1342.000,277.600,71.090,13.140,438.700,101.300,29.240,9.065,607.100,153.300,43.000,12.710,easy
1110.000,281.500,74.230,14.580,1338.000,276.700,71.120,13.160,435.800,101.500,29.220,9.072,606.400,153.300,43.180,12.710,easy
1112.000,283.100,74.290,14.590,1344.000,278.400,71.400,13.170,440.900,101.600,29.310,9.071,606.700,153.600,43.220,12.740,easy
1115.000,283.900,74.990,14.660,1343.000,278.200,71.340,13.200,440.500,101.400,29.280,9.098,607.500,153.900,43.300,12.770,easy
1117.000,284.400,75.050,14.700,1348.000,277.800,71.500,13.210,439.200,101.500,29.320,9.106,608.400,153.900,43.400,12.800,easy
1119.000,284.300,75.080,14.720,1348.000,278.200,71.530,13.210,441.500,101.600,29.320,9.104,608.800,154.400,43.410,12.840,easy
1122.000,286.400,75.110,14.720,1347.000,278.600,71.490,13.170,440.000,101.900,29.300,9.136,609.900,154.700,43.370,12.810,easy
1115.000,284.100,74.370,14.600,1343.000,277.900,71.400,13.140,440.700,101.700,29.200,9.110,606.700,153.800,43.100,12.710,easy
1111.000,282.500,74.200,14.550,1343.000,278.200,71.320,13.100,439.200,101.300,29.200,9.083,605.500,153.300,43.040,12.680,easy
1108.000,281.700,74.120,14.560,1342.000,277.900,71.160,13.170,439.600,101.200,29.280,9.070,606.100,153.500,42.970,12.690,easy
1110.000,282.500,74.390,14.540,1340.000,277.800,71.200,13.150,436.900,101.700,29.280,9.067,606.800,153.500,43.080,12.680,easy
1111.000,282.000,74.250,14.580,1341.000,278.400,71.320,13.140,439.600,101.100,29.170,9.087,605.900,153.500,43.080,12.700,easy
1114.000,282.800,74.450,14.620,1343.000,277.400,71.440,13.180,440.700,101.000,29.270,9.082,605.900,153.600,43.190,12.760,easy
1115.000,283.800,74.540,14.630,1343.000,278.800,71.530,13.200,439.200,101.700,29.350,9.107,608.400,154.000,43.170,12.790,easy
1118.000,284.200,74.530,14.680,1350.000,278.200,71.560,13.190,437.700,101.500,29.320,9.122,608.500,154.400,43.310,12.790,easy
1120.000,284.700,75.110,14.730,1345.000,278.500,71.650,13.170,442.400,101.700,29.330,9.114,610.300,154.400,43.430,12.860,easy
1123.000,285.100,75.060,14.740,1347.000,279.200,71.610,13.210,437.400,101.500,29.340,9.124,610.000,154.500,43.570,12.870,easy
1118.000,283.800,74.530,14.580,1341.000,278.200,71.370,13.160,441.000,101.600,29.290,9.088,607.000,154.100,43.140,12.740,easy
1112.000,282.500,74.500,14.600,1344.000,277.600,71.260,13.130,441.000,101.400,29.230,9.067,606.500,153.600,43.110,12.710,easy
1111.000,282.300,74.420,14.550,1343.000,277.600,71.270,13.170,438.600,101.400,29.280,9.094,606.300,153.500,43.170,12.710,easy
1112.000,281.800,74.500,14.550,1341.000,277.600,71.180,13.140,439.500,101.600,29.300,9.093,608.100,153.600,43.140,12.720,easy
1113.000,282.500,74.340,14.640,1341.000,277.900,71.310,13.180,438.600,101.300,29.330,9.089,609.000,153.200,43.100,12.730,easy
1115.000,282.300,74.420,14.630,1345.000,278.500,71.360,13.190,436.700,101.800,29.280,9.103,607.900,153.900,43.310,12.770,easy
1118.000,283.700,74.770,14.700,1348.000,278.300,71.420,13.170,439.300,101.500,29.320,9.097,610.100,154.100,43.330,12.790,easy
1119.000,285.200,74.720,14.730,1348.000,278.800,71.600,13.230,439.000,101.700,29.330,9.133,609.200,154.800,43.410,12.830,easy
1122.000,286.500,75.280,14.760,1347.000,278.700,71.660,13.210,440.200,101.700,29.340,9.133,611.300,154.500,43.460,12.870,easy
1122.000,286.400,75.060,14.720,1347.000,278.100,71.390,13.190,439.300,102.000,29.290,9.130,607.900,154.100,43.350,12.790,easy
1113.000,283.600,74.380,14.610,1338.000,278.100,71.420,13.180,438.000,101.400,29.290,9.093,608.600,153.500,43.120,12.750,easy
1112.000,283.300,74.480,14.520,1343.000,277.300,71.250,13.140,438.500,101.700,29.270,9.081,607.100,153.600,43.070,12.710,easy
1112.000,283.500,74.720,14.580,1345.000,279.000,71.400,13.210,438.600,101.400,29.230,9.100,606.900,153.700,43.070,12.740,easy
1114.000,282.300,74.570,14.620,1342.000,278.200,71.330,13.190,438.700,101.400,29.290,9.102,606.700,153.500,43.150,12.760,easy
1115.000,282.700,74.610,14.650,1345.000,279.100,71.250,13.150,439.800,101.200,29.270,9.086,608.600,154.200,43.300,12.770,easy
1117.000,284.200,74.850,14.650,1345.000,278.700,71.340,13.210,439.200,101.700,29.320,9.101,609.400,154.400,43.310,12.820,easy
1119.000,284.800,75.220,14.730,1349.000,278.800,71.480,13.170,439.600,101.400,29.360,9.117,609.900,154.400,43.490,12.840,easy
1122.000,284.700,75.210,14.770,1346.000,279.200,71.570,13.210,440.200,101.700,29.330,9.123,610.300,154.700,43.650,12.880,easy
1124.000,287.000,75.530,14.740,1352.000,279.600,71.720,13.230,439.000,102.100,29.320,9.136,611.400,155.000,43.630,12.930,easy
1125.000,285.800,75.310,14.760,1345.000,278.600,71.470,13.180,439.300,101.700,29.340,9.121,609.500,154.500,43.320,12.800,easy
1116.000,283.300,74.760,14.580,1344.000,278.400,71.460,13.160,440.200,101.700,29.260,9.108,609.100,153.900,43.280,12.760,easy
1112.000,282.700,74.290,14.600,1341.000,277.800,71.310,13.140,440.300,101.600,29.260,9.064,608.100,153.600,43.130,12.740,easy
1112.000,282.700,74.490,14.610,1342.000,278.000,71.500,13.180,438.700,101.600,29.250,9.090,607.500,153.800,43.230,12.760,easy
1114.000,283.500,74.630,14.600,1342.000,279.100,71.400,13.160,439.300,101.600,29.330,9.072,608.800,153.800,43.200,12.760,easy
1115.000,284.700,75.070,14.650,1344.000,278.700,71.490,13.190,437.500,101.400,29.240,9.089,607.200,154.100,43.260,12.810,easy
1117.000,282.900,74.940,14.670,1341.000,278.800,71.370,13.190,437.400,101.100,29.260,9.089,608.200,154.400,43.330,12.810,easy
1119.000,285.500,74.940,14.730,1348.000,278.600,71.840,13.210,440.000,101.900,29.230,9.105,609.300,154.700,43.410,12.870,easy
1122.000,284.800,75.280,14.780,1345.000,279.000,71.560,13.210,437.000,101.600,29.290,9.095,608.900,155.000,43.490,12.920,easy
1124.000,285.800,75.490,14.800,1348.000,278.700,71.710,13.240,440.400,101.900,29.290,9.104,610.900,154.900,43.530,12.950,easy
1126.000,285.900,75.400,14.820,1351.000,279.500,71.950,13.260,441.300,101.700,29.360,9.133,610.700,155.200,43.620,12.970,easy
1128.000,286.700,75.700,14.870,1352.000,279.700,71.740,13.250,437.500,101.600,29.350,9.131,613.500,155.600,43.880,13.020,easy
1126.000,287.800,75.220,14.760,1351.000,278.900,71.560,13.220,440.500,101.500,29.350,9.094,610.600,154.900,43.500,12.880,easy
1117.000,283.900,74.910,14.690,1347.000,278.200,71.670,13.160,436.800,101.500,29.230,9.076,609.300,154.300,43.300,12.830,easy
1115.000,283.600,74.760,14.640,1347.000,278.100,71.430,13.170,442.100,101.600,29.240,9.084,609.100,153.900,43.240,12.790,easy
1116.000,284.500,74.870,14.680,1348.000,277.800,71.430,13.180,438.400,101.200,29.270,9.052,607.300,154.400,43.300,12.800,easy
1116.000,284.200,74.650,14.650,1347.000,278.300,71.540,13.200,439.800,101.700,29.220,9.050,607.600,154.400,43.420,12.840,easy
1117.000,284.200,75.070,14.650,1346.000,278.900,71.390,13.200,438.100,101.500,29.300,9.076,608.500,154.500,43.430,12.830,easy
1120.000,284.800,75.050,14.740,1347.000,279.000,71.580,13.210,439.400,101.600,29.250,9.090,610.900,154.700,43.420,12.890,easy
1123.000,285.200,75.610,14.780,1349.000,278.900,71.520,13.210,439.200,101.700,29.270,9.089,611.100,155.100,43.660,12.920,easy
1125.000,285.400,75.460,14.810,1349.000,279.600,71.650,13.190,438.800,101.600,29.380,9.086,610.600,155.100,43.650,12.950,easy
1126.000,286.300,75.650,14.840,1351.000,278.700,71.820,13.180,440.300,101.600,29.250,9.099,610.600,155.600,43.800,12.970,easy
1128.000,287.400,75.510,14.800,1347.000,278.700,71.530,13.180,437.700,101.600,29.340,9.100,611.300,154.900,43.590,12.930,easy
1119.000,284.500,74.890,14.710,1345.000,278.300,71.530,13.180,439.400,101.200,29.170,9.073,608.700,154.300,43.460,12.830,easy
1118.000,283.800,74.800,14.670,1347.000,278.200,71.460,13.170,439.500,101.400,29.200,9.054,608.700,154.300,43.320,12.820,easy
1118.000,285.500,74.820,14.690,1347.000,279.000,71.480,13.180,441.100,101.400,29.170,9.054,610.200,154.500,43.350,12.840,easy
1119.000,284.700,74.900,14.710,1347.000,278.100,71.430,13.170,440.100,101.500,29.220,9.050,609.300,154.400,43.430,12.900,easy
1120.000,285.600,75.070,14.790,1346.000,278.900,71.670,13.190,439.200,101.600,29.210,9.055,609.700,154.600,43.530,12.880,easy
1123.000,285.300,75.450,14.760,1348.000,278.000,71.480,13.220,436.500,101.400,29.300,9.084,609.900,155.100,43.580,12.940,easy
1125.000,286.700,75.650,14.820,1349.000,279.200,71.630,13.210,440.300,101.300,29.240,9.076,609.700,155.300,43.790,12.990,easy
1127.000,285.600,75.650,14.850,1352.000,279.000,71.750,13.230,441.200,101.500,29.330,9.096,611.900,155.700,43.800,13.020,easy
1129.000,287.700,75.670,14.890,1350.000,279.500,71.750,13.230,439.400,101.800,29.320,9.105,613.400,155.700,43.840,13.010,easy
1127.000,286.700,75.270,14.780,1347.000,278.900,71.400,13.140,442.500,101.400,29.280,9.070,610.400,154.900,43.510,12.890,easy
1119.000,284.900,75.290,14.710,1340.000,278.400,71.450,13.140,437.100,101.500,29.220,9.055,608.800,154.300,43.490,12.830,easy
1117.000,284.700,74.890,14.640,1340.000,277.600,71.310,13.160,438.100,101.100,29.190,9.052,607.500,154.200,43.460,12.830,easy
1117.000,284.700,75.080,14.710,1348.000,278.200,71.260,13.170,440.600,101.400,29.210,9.030,609.200,154.700,43.410,12.830,easy
1118.000,284.800,74.970,14.690,1344.000,277.900,71.340,13.190,438.300,101.200,29.240,9.064,609.200,154.400,43.460,12.890,easy
1120.000,285.400,75.030,14.720,1345.000,277.700,71.480,13.190,440.400,101.500,29.160,9.057,608.700,154.700,43.520,12.900,easy
1122.000,284.700,75.180,14.780,1351.000,278.900,71.430,13.190,435.700,101.500,29.230,9.076,610.000,155.200,43.600,12.930,easy
