A-DC1,A-DC2,A-DC3,A-DC4,A-DC5,A-DC6,A-DC7,A-DC8,B-DC1,B-DC2,B-DC3,B-DC4,B-DC5,B-DC6,B-DC7,B-DC8,condition
1291.000,371.200,106.800,26.390,1621.000,408.800,113.600,28.980,314.700,92.920,28.500,10.170,471.100,135.400,40.350,13.860,baseline
1291.000,370.200,107.000,26.490,1624.000,409.400,113.700,28.980,316.500,92.940,28.560,10.180,472.300,135.800,40.410,13.900,baseline
1291.000,371.100,107.000,26.480,1627.000,409.500,114.000,29.010,318.300,93.350,28.620,10.210,472.800,136.600,40.670,13.980,baseline
1293.000,370.600,107.400,26.590,1624.000,410.500,114.000,29.040,320.400,93.370,28.700,10.260,476.000,137.300,41.050,14.100,baseline
1296.000,372.000,108.100,26.670,1626.000,410.900,114.100,29.080,319.900,93.550,28.940,10.320,479.100,138.300,41.390,14.260,baseline
1300.000,372.100,108.200,26.790,1631.000,410.900,114.100,29.140,322.300,94.370,29.010,10.340,481.900,139.500,41.680,14.310,baseline
1300.000,372.600,107.900,26.700,1625.000,409.700,113.700,28.960,321.000,93.820,28.770,10.220,472.800,136.400,40.520,13.850,baseline
1291.000,369.200,107.100,26.450,1621.000,409.700,113.500,28.920,314.300,93.180,28.560,10.160,471.400,135.800,40.420,13.830,baseline
1290.000,369.200,107.100,26.430,1621.000,408.500,113.600,28.900,317.000,92.980,28.630,10.180,470.300,135.900,40.510,13.860,baseline
1290.000,369.900,107.100,26.510,1622.000,409.300,113.700,28.950,318.300,93.000,28.700,10.220,472.600,136.300,40.650,13.920,baseline
1291.000,370.200,107.000,26.560,1622.000,410.000,113.600,28.960,315.900,93.280,28.630,10.220,473.200,136.400,40.830,13.970,baseline
1294.000,370.200,107.500,26.600,1626.000,410.400,114.000,29.040,318.900,93.440,28.760,10.260,474.500,137.100,40.960,14.100,baseline
1297.000,372.000,107.900,26.710,1623.000,410.700,114.200,29.050,321.400,93.790,28.810,10.310,478.300,138.300,41.210,14.200,baseline
1300.000,373.200,108.100,26.800,1632.000,411.200,114.300,29.100,321.700,94.110,28.960,10.350,481.000,138.700,41.620,14.310,baseline
1303.000,373.200,108.300,26.730,1629.000,409.900,114.000,28.950,321.300,93.940,28.830,10.260,473.800,136.100,40.560,13.890,baseline
1292.000,370.300,107.200,26.520,1626.000,409.600,113.600,28.960,317.900,92.730,28.480,10.140,469.900,135.100,40.260,13.830,baseline
1291.000,368.800,106.700,26.390,1623.000,409.300,113.400,28.920,315.900,92.650,28.480,10.150,469.800,135.200,40.270,13.800,baseline
1290.000,371.000,107.100,26.420,1626.000,409.200,113.600,28.970,316.100,92.660,28.500,10.200,471.200,135.500,40.390,13.860,baseline
1292.000,369.100,107.400,26.490,1622.000,409.200,113.600,28.950,317.000,92.970,28.540,10.200,472.200,136.100,40.520,13.910,baseline
1293.000,370.400,107.700,26.550,1622.000,409.800,113.600,29.040,315.900,93.160,28.650,10.240,473.900,136.700,40.730,14.040,baseline
1294.000,371.300,107.900,26.690,1624.000,410.500,113.700,29.010,318.400,93.560,28.750,10.300,476.700,137.500,41.010,14.130,baseline
1299.000,373.500,108.000,26.810,1628.000,410.700,114.200,29.050,320.700,93.800,28.890,10.330,479.200,138.400,41.350,14.280,baseline
1301.000,373.900,108.200,26.780,1627.000,410.200,113.900,28.970,320.900,94.050,28.930,10.300,476.600,136.600,40.670,13.920,baseline
1292.000,370.100,107.300,26.520,1623.000,408.700,113.400,28.890,316.300,92.640,28.460,10.160,468.500,135.300,40.250,13.780,baseline
1290.000,369.200,106.800,26.400,1623.000,408.900,113.400,28.890,316.800,92.740,28.420,10.170,469.100,135.100,40.210,13.790,baseline
1289.000,369.600,106.900,26.440,1624.000,409.200,113.600,28.950,317.500,92.810,28.510,10.190,471.500,135.500,40.410,13.850,baseline
1291.000,369.800,107.300,26.450,1622.000,408.800,113.700,28.950,316.800,92.700,28.510,10.210,471.800,135.700,40.460,13.910,baseline
1292.000,371.300,107.200,26.520,1624.000,410.000,113.700,28.990,317.100,93.150,28.600,10.240,473.800,136.200,40.680,13.990,baseline
1295.000,371.300,107.800,26.670,1626.000,410.200,113.900,29.030,319.000,93.480,28.740,10.290,476.500,137.300,40.960,14.100,baseline
1298.000,372.700,108.000,26.750,1627.000,410.400,114.000,29.080,321.500,93.530,28.850,10.310,479.500,137.900,41.290,14.230,baseline
1302.000,371.900,108.500,26.820,1627.000,410.500,114.000,29.070,321.900,94.200,28.940,10.360,481.400,138.300,41.090,14.090,baseline
1296.000,371.000,107.500,26.560,1623.000,409.700,113.400,28.890,317.000,92.960,28.530,10.180,471.100,135.100,40.280,13.800,baseline
1289.000,368.800,106.600,26.430,1621.000,408.200,113.100,28.860,316.000,92.460,28.510,10.180,470.900,135.200,40.270,13.800,baseline
1288.000,368.900,106.700,26.430,1619.000,408.600,113.500,28.910,318.400,92.860,28.480,10.190,471.100,135.800,40.510,13.880,baseline
1290.000,370.100,106.800,26.410,1622.000,408.400,113.400,28.850,316.700,92.790,28.630,10.220,472.600,136.000,40.480,13.870,baseline
1291.000,370.300,107.400,26.480,1623.000,408.700,113.500,28.940,317.900,93.190,28.610,10.240,472.700,136.500,40.660,13.980,baseline
1293.000,371.600,107.400,26.650,1622.000,409.600,113.700,28.980,319.500,93.530,28.790,10.300,476.000,137.300,40.920,14.080,baseline
1296.000,371.100,107.900,26.700,1623.000,409.700,113.800,29.030,319.300,93.690,28.900,10.350,478.800,138.100,41.270,14.230,baseline
1299.000,373.300,108.400,26.820,1627.000,409.800,113.800,28.950,321.900,94.190,29.080,10.370,479.800,138.000,41.020,14.050,baseline
1293.000,370.600,107.200,26.530,1619.000,409.200,113.400,28.840,318.900,92.960,28.650,10.210,471.400,135.600,40.440,13.840,baseline
1289.000,369.800,107.000,26.410,1619.000,408.400,113.300,28.840,318.100,93.090,28.620,10.210,471.000,135.500,40.420,13.810,baseline
1288.000,369.700,107.400,26.420,1620.000,408.800,113.400,28.900,317.000,93.060,28.620,10.230,471.500,136.100,40.580,13.900,baseline
1289.000,369.200,107.100,26.450,1619.000,408.200,113.600,28.880,319.300,93.200,28.810,10.250,472.700,136.000,40.600,13.930,baseline
1290.000,368.900,107.400,26.540,1622.000,408.700,113.500,28.940,317.900,93.530,28.820,10.300,474.000,136.900,40.930,14.040,baseline
1292.000,370.800,107.600,26.630,1621.000,408.900,113.900,29.050,320.100,93.730,29.000,10.340,477.100,137.600,41.140,14.140,baseline
1296.000,373.000,108.100,26.700,1625.000,410.400,114.000,29.090,322.200,94.200,29.110,10.400,479.800,138.600,41.420,14.220,baseline
1299.000,373.400,108.100,26.800,1626.000,409.800,114.000,29.110,322.100,94.640,29.230,10.440,483.500,139.400,41.640,14.280,baseline
1297.000,373.300,107.700,26.570,1617.000,408.600,113.800,28.950,318.000,93.930,28.900,10.290,472.600,136.100,40.530,13.870,baseline
1288.000,370.900,107.100,26.440,1619.000,408.800,113.400,28.870,316.700,93.300,28.750,10.240,471.600,135.400,40.370,13.780,baseline
1287.000,370.100,107.200,26.390,1623.000,408.300,113.500,28.940,318.700,93.140,28.690,10.240,470.900,135.600,40.420,13.810,baseline
1288.000,368.900,107.400,26.460,1618.000,408.700,113.500,28.960,319.600,93.070,28.820,10.270,472.200,136.100,40.530,13.870,baseline
1289.000,369.700,107.500,26.480,1623.000,409.200,113.700,28.980,317.100,93.420,28.830,10.280,473.600,136.300,40.650,13.920,baseline
1291.000,369.300,107.900,26.540,1623.000,409.300,113.800,29.080,317.500,93.580,28.940,10.350,475.100,137.000,40.900,14.030,baseline
1294.000,371.200,108.200,26.720,1628.000,410.100,113.900,29.100,320.600,94.140,29.030,10.380,478.000,137.900,41.180,14.150,baseline
1296.000,372.300,108.500,26.810,1630.000,410.000,114.200,29.130,322.400,94.330,29.090,10.440,482.100,138.800,41.570,14.280,baseline
1301.000,372.400,108.400,26.840,1625.000,410.300,113.900,29.050,322.800,94.830,29.240,10.450,480.600,137.900,40.990,13.990,baseline
1293.000,371.400,107.200,26.500,1623.000,409.700,113.500,28.970,320.000,93.400,28.750,10.280,470.900,135.600,40.410,13.830,baseline
1289.000,369.700,107.000,26.430,1622.000,409.000,113.600,28.970,317.500,93.330,28.720,10.250,470.600,135.200,40.380,13.780,baseline
1288.000,369.700,107.200,26.410,1618.000,409.100,113.600,29.040,315.700,93.190,28.740,10.270,471.800,135.900,40.470,13.840,baseline
1289.000,369.300,107.200,26.480,1620.000,408.800,113.600,29.010,319.600,93.610,28.880,10.320,473.500,136.000,40.520,13.870,baseline
1290.000,371.100,107.500,26.590,1623.000,409.500,113.700,29.070,317.100,93.550,28.950,10.350,474.100,136.800,40.740,13.970,baseline
1293.000,372.400,107.500,26.590,1625.000,409.500,114.000,29.130,318.700,93.990,28.980,10.380,476.600,137.200,41.030,14.090,baseline
1296.000,371.700,108.200,26.670,1628.000,410.300,114.200,29.180,320.600,94.360,29.150,10.420,479.200,138.100,41.240,14.160,baseline
1299.000,372.800,108.500,26.850,1628.000,411.200,114.300,29.110,321.200,94.560,29.190,10.460,480.800,138.500,41.200,14.100,baseline
1295.000,371.400,107.400,26.610,1621.000,409.200,113.900,29.020,318.200,93.790,28.850,10.280,471.400,135.700,40.340,13.810,baseline
1290.000,369.200,107.100,26.480,1618.000,408.800,113.600,29.010,318.300,93.330,28.760,10.270,471.300,135.500,40.330,13.790,baseline
1289.000,370.600,106.600,26.450,1617.000,408.800,113.800,29.000,316.600,93.340,28.790,10.280,470.900,135.800,40.400,13.830,baseline
1289.000,370.600,107.200,26.470,1624.000,408.400,114.000,29.110,317.500,93.540,28.870,10.340,472.700,136.000,40.520,13.850,baseline
1292.000,370.700,107.500,26.530,1621.000,409.600,114.000,29.090,318.600,93.770,28.920,10.340,473.900,136.600,40.780,13.960,baseline
1293.000,371.300,107.400,26.630,1624.000,409.900,114.100,29.150,318.400,93.960,29.020,10.390,476.200,137.200,40.930,14.080,baseline
1296.000,372.400,108.000,26.720,1629.000,410.600,114.500,29.200,320.400,94.340,29.170,10.430,478.800,138.200,41.120,14.150,baseline
1300.000,372.100,108.200,26.840,1631.000,411.700,114.500,29.210,320.800,94.710,29.140,10.480,481.600,138.700,41.420,14.260,baseline
1302.000,373.700,108.500,26.800,1628.000,411.200,114.100,29.130,322.700,94.640,29.270,10.460,479.500,137.200,40.800,13.960,baseline
1293.000,370.700,107.600,26.540,1620.000,408.700,113.600,29.020,317.100,93.290,28.780,10.300,471.500,135.500,40.230,13.810,baseline
1289.000,369.400,107.100,26.420,1623.000,409.300,113.900,29.020,318.600,93.380,28.650,10.260,469.900,135.300,40.100,13.760,baseline
1287.000,368.800,106.900,26.370,1621.000,409.100,114.000,29.050,316.300,92.990,28.680,10.280,471.800,135.200,40.260,13.780,baseline
1289.000,369.800,107.200,26.430,1619.000,409.500,114.000,29.070,318.000,93.310,28.810,10.330,473.000,135.800,40.370,13.840,baseline
1290.000,369.900,107.200,26.470,1625.000,410.300,114.000,29.110,319.800,93.190,28.830,10.360,473.500,136.300,40.600,13.930,baseline
1292.000,370.800,107.700,26.560,1623.000,409.900,114.300,29.130,318.800,93.840,28.980,10.400,475.800,137.000,40.760,14.040,baseline
1294.000,371.100,108.000,26.610,1628.000,411.700,114.200,29.220,320.800,94.290,29.030,10.430,478.800,137.700,41.100,14.140,baseline
1297.000,374.000,108.200,26.750,1626.000,411.600,114.300,29.270,322.500,94.380,29.130,10.480,482.100,138.800,41.430,14.250,baseline
1300.000,373.300,108.200,26.630,1625.000,409.900,114.000,29.100,320.600,94.160,29.040,10.380,474.700,136.200,40.400,13.860,baseline
1290.000,371.100,107.400,26.370,1622.000,409.300,114.100,29.030,317.600,93.230,28.700,10.290,471.100,135.100,40.100,13.740,baseline
1288.000,370.200,107.000,26.290,1621.000,409.300,113.900,29.080,318.600,92.980,28.600,10.260,470.200,134.700,40.110,13.730,baseline
1287.000,369.700,107.300,26.330,1625.000,409.200,114.100,29.050,317.900,93.080,28.720,10.310,471.900,135.400,40.240,13.790,baseline
1288.000,369.600,107.000,26.400,1622.000,409.900,114.000,29.120,318.500,93.500,28.770,10.320,472.400,135.700,40.400,13.840,baseline
1289.000,369.900,107.300,26.460,1624.000,410.500,114.400,29.150,319.900,93.680,28.920,10.360,475.100,136.500,40.650,13.950,baseline
1291.000,371.200,107.600,26.560,1625.000,411.500,114.200,29.240,321.500,94.040,29.000,10.420,477.000,137.400,40.840,14.100,baseline
1295.000,371.900,107.700,26.670,1628.000,410.700,114.400,29.190,323.600,94.010,29.120,10.440,479.800,138.100,41.160,14.190,baseline
1298.000,373.300,108.500,26.760,1631.000,411.400,114.500,29.240,322.100,94.660,29.220,10.510,482.300,139.000,41.380,14.220,baseline
1297.000,371.700,107.500,26.570,1625.000,410.600,114.200,29.100,321.600,94.020,28.950,10.350,473.000,135.900,40.420,13.800,baseline
1289.000,370.000,107.100,26.390,1626.000,410.100,114.100,29.100,317.800,93.220,28.730,10.310,472.300,135.300,40.370,13.810,baseline
1288.000,369.700,106.700,26.330,1621.000,409.600,114.000,29.110,317.800,93.470,28.820,10.310,471.400,135.600,40.410,13.840,baseline
1289.000,370.000,107.200,26.400,1622.000,409.500,114.100,29.090,319.700,93.630,28.890,10.360,474.400,136.200,40.510,13.900,baseline
1290.000,370.500,107.300,26.460,1621.000,410.000,114.100,29.150,321.500,93.850,28.910,10.370,474.700,136.400,40.660,13.930,baseline
1291.000,369.900,107.500,26.480,1624.000,411.000,114.500,29.190,320.000,93.900,28.980,10.390,477.000,136.900,40.880,14.020,baseline
1294.000,372.300,107.700,26.580,1627.000,411.200,114.700,29.270,319.300,94.140,29.100,10.440,479.300,137.900,41.060,14.150,baseline
1298.000,373.100,108.600,26.660,1628.000,412.000,114.700,29.280,321.600,94.440,29.240,10.500,481.700,138.700,41.360,14.250,baseline
1301.000,372.800,108.400,26.630,1623.000,411.500,114.400,29.180,323.200,94.300,29.060,10.400,475.200,136.300,40.590,13.880,baseline
1290.000,370.000,106.900,26.420,1625.000,410.700,114.400,29.070,318.500,93.450,28.830,10.320,472.700,135.700,40.440,13.830,baseline
1289.000,369.600,107.300,26.400,1623.000,410.800,114.200,29.080,320.900,93.150,28.770,10.330,473.300,135.700,40.370,13.810,baseline
1291.000,370.800,107.300,26.400,1623.000,410.700,114.300,29.130,317.500,93.420,28.900,10.380,473.500,136.100,40.520,13.900,baseline
1291.000,370.500,107.400,26.420,1620.000,410.600,114.300,29.220,319.500,93.840,28.920,10.370,474.700,136.100,40.520,13.950,baseline
1292.000,371.900,107.500,26.530,1627.000,411.400,114.600,29.220,319.700,93.870,29.030,10.410,476.700,137.000,40.860,14.030,baseline
1296.000,371.100,107.800,26.560,1630.000,412.000,114.700,29.250,319.900,94.340,29.060,10.460,478.500,137.700,41.060,14.130,baseline
1299.000,373.500,108.100,26.710,1632.000,412.100,114.800,29.280,321.300,94.560,29.260,10.480,481.500,138.600,41.450,14.300,baseline
1302.000,373.100,108.500,26.630,1632.000,411.600,114.300,29.230,321.900,94.560,29.060,10.420,475.200,136.100,40.570,13.870,baseline
1291.000,370.800,107.800,26.350,1621.000,410.000,114.100,29.170,318.600,93.500,28.810,10.330,472.800,135.700,40.310,13.800,baseline
1289.000,369.500,106.700,26.270,1626.000,410.200,114.100,29.140,316.900,93.210,28.760,10.340,471.600,135.100,40.220,13.820,baseline
1288.000,368.900,106.900,26.310,1627.000,410.600,114.400,29.200,318.500,93.440,28.870,10.360,473.300,135.900,40.420,13.860,baseline
1291.000,369.800,107.300,26.450,1627.000,410.700,114.400,29.220,319.100,93.590,28.910,10.380,474.000,136.100,40.490,13.900,baseline
1292.000,369.700,107.400,26.470,1626.000,411.200,114.600,29.240,318.500,93.930,28.960,10.420,475.900,136.700,40.730,13.990,baseline
1295.000,370.300,107.900,26.500,1629.000,411.200,114.600,29.320,320.900,94.250,29.090,10.480,478.300,137.700,41.020,14.110,baseline
1297.000,372.500,108.300,26.640,1627.000,412.200,115.200,29.310,322.700,94.290,29.160,10.500,480.400,138.500,41.250,14.210,baseline
1299.000,371.700,107.900,26.500,1627.000,410.800,114.500,29.220,321.100,94.430,29.030,10.410,475.000,136.000,40.370,13.830,baseline
1289.000,371.000,107.200,26.300,1625.000,409.900,114.500,29.200,319.100,93.500,28.840,10.360,471.300,135.100,40.270,13.770,baseline
1287.000,368.900,106.800,26.240,1624.000,410.000,114.400,29.130,319.700,93.550,28.740,10.330,471.600,135.300,40.160,13.760,baseline
1287.000,368.900,106.800,26.280,1627.000,410.700,114.300,29.220,318.200,93.590,28.930,10.370,473.100,135.900,40.340,13.840,baseline
1288.000,369.400,106.900,26.290,1622.000,409.900,114.400,29.200,319.400,93.640,28.900,10.380,473.000,136.000,40.460,13.900,baseline
1289.000,369.400,107.100,26.380,1628.000,410.900,114.600,29.250,320.800,94.140,29.020,10.430,475.600,136.700,40.710,13.970,baseline
1291.000,370.500,107.500,26.400,1627.000,411.500,114.600,29.330,321.100,94.270,29.150,10.460,477.500,137.500,41.030,14.100,baseline
1294.000,370.900,107.700,26.560,1626.000,411.300,114.700,29.330,322.100,94.500,29.240,10.510,480.400,137.900,41.040,14.030,baseline
1292.000,369.600,107.200,26.380,1623.000,410.400,114.500,29.200,321.200,93.760,28.900,10.360,471.700,135.300,40.200,13.750,baseline
1286.000,368.400,106.600,26.190,1622.000,409.800,114.400,29.160,317.800,93.310,28.800,10.320,471.200,135.200,40.210,13.740,baseline
1284.000,367.300,106.500,26.100,1623.000,409.500,114.200,29.220,318.200,93.410,28.850,10.350,471.500,135.600,40.230,13.760,baseline
1285.000,370.200,106.800,26.120,1624.000,410.100,114.400,29.240,317.900,93.580,28.870,10.360,472.800,135.800,40.290,13.800,baseline
1287.000,369.400,106.600,26.220,1626.000,410.600,114.600,29.270,318.100,93.610,28.930,10.390,474.100,136.100,40.510,13.900,baseline
1288.000,369.400,107.300,26.270,1625.000,410.600,114.800,29.280,318.400,94.030,29.100,10.430,476.100,136.700,40.730,14.000,baseline
1291.000,370.700,107.100,26.420,1628.000,411.000,114.500,29.310,320.600,94.560,29.110,10.480,478.900,137.800,41.040,14.120,baseline
1294.000,371.300,107.800,26.480,1626.000,411.200,114.700,29.320,321.800,94.640,29.240,10.530,480.600,137.700,40.790,13.960,baseline
1288.000,368.900,106.800,26.180,1621.000,409.500,114.200,29.230,319.900,93.820,28.840,10.360,471.500,135.200,40.100,13.740,baseline
1283.000,367.900,106.300,26.100,1625.000,409.600,114.200,29.200,318.400,93.280,28.780,10.300,470.700,135.200,40.140,13.710,baseline
1283.000,366.500,106.700,26.060,1620.000,409.500,114.200,29.190,318.700,93.410,28.820,10.370,471.900,135.700,40.260,13.790,baseline
1284.000,368.200,106.200,26.140,1624.000,409.700,114.500,29.210,318.900,93.580,28.890,10.370,473.600,135.700,40.360,13.830,baseline
1286.000,369.100,106.600,26.110,1623.000,410.700,114.500,29.300,320.500,93.670,28.940,10.410,474.200,136.300,40.510,13.930,baseline
1288.000,368.800,106.900,26.280,1626.000,410.400,114.800,29.350,320.300,94.130,29.020,10.440,476.700,137.200,40.960,14.020,baseline
1291.000,370.700,107.500,26.420,1627.000,411.600,114.900,29.340,321.000,94.430,29.150,10.490,479.300,138.000,41.060,14.100,baseline
1293.000,371.600,107.600,26.420,1628.000,411.700,114.900,29.360,323.200,94.810,29.250,10.540,481.700,138.800,41.200,14.140,baseline
1293.000,370.400,107.200,26.260,1620.000,409.700,114.400,29.230,321.300,94.150,28.990,10.380,474.400,135.800,40.400,13.790,baseline
1285.000,368.900,106.700,26.140,1622.000,409.200,114.400,29.220,322.500,93.480,28.830,10.340,472.100,135.600,40.280,13.800,baseline
1284.000,367.600,106.400,26.040,1620.000,409.800,114.200,29.250,318.900,93.740,28.810,10.370,473.200,135.700,40.330,13.800,baseline
1285.000,368.800,106.600,26.120,1621.000,410.100,114.300,29.270,320.500,93.820,28.880,10.380,474.500,136.000,40.400,13.850,baseline
1286.000,366.900,106.600,26.180,1623.000,410.100,114.600,29.290,319.700,93.680,28.980,10.400,474.200,136.300,40.620,13.890,baseline
1288.000,368.200,107.100,26.220,1625.000,410.300,114.900,29.360,321.000,94.160,29.080,10.430,476.600,137.100,40.790,14.000,baseline
1291.000,370.200,107.500,26.360,1624.000,411.300,115.000,29.380,320.200,94.330,29.200,10.490,480.600,137.900,41.060,14.110,baseline
1294.000,371.700,107.700,26.520,1625.000,411.300,115.100,29.400,323.800,94.560,29.270,10.520,481.700,138.700,41.320,14.170,baseline
1297.000,371.600,107.700,26.480,1628.000,410.800,114.600,29.260,321.900,94.630,29.140,10.450,477.000,136.600,40.430,13.860,baseline
1286.000,368.800,106.500,26.190,1620.000,410.400,114.500,29.220,320.000,93.490,28.890,10.350,472.800,135.900,40.270,13.790,baseline
1285.000,368.300,106.500,26.160,1620.000,409.500,114.500,29.230,319.900,93.570,28.820,10.360,472.600,135.700,40.310,13.830,baseline
1286.000,369.800,106.800,26.180,1625.000,409.600,114.500,29.220,320.400,93.790,28.960,10.390,474.500,136.400,40.510,13.860,baseline
1286.000,368.200,106.400,26.200,1622.000,410.300,114.300,29.270,319.500,93.850,28.880,10.400,475.600,136.200,40.640,13.890,baseline
1288.000,368.400,106.700,26.300,1626.000,411.100,114.400,29.310,321.100,94.040,29.020,10.440,476.900,137.200,40.820,13.980,baseline
1292.000,370.400,107.400,26.280,1626.000,412.300,114.700,29.390,322.600,94.420,29.090,10.480,479.700,137.900,41.080,14.100,baseline
1294.000,371.200,107.300,26.460,1626.000,411.500,114.900,29.410,321.400,94.760,29.230,10.520,482.100,138.600,41.390,14.210,baseline
1298.000,373.200,107.800,26.480,1626.000,411.300,114.700,29.320,323.900,94.790,29.250,10.490,478.700,137.100,40.690,13.900,baseline
1288.000,368.900,106.600,26.210,1623.000,410.600,114.500,29.310,319.600,93.710,28.900,10.360,473.500,135.900,40.330,13.830,baseline
1286.000,368.400,106.500,26.140,1623.000,410.700,114.500,29.230,320.000,93.590,28.880,10.350,473.200,135.700,40.270,13.800,baseline
1285.000,368.700,106.500,26.150,1627.000,410.900,114.700,29.270,318.900,93.760,28.960,10.370,475.300,136.400,40.450,13.860,baseline
1286.000,368.100,106.600,26.220,1624.000,411.300,114.500,29.300,319.700,93.970,28.900,10.390,476.200,136.400,40.670,13.900,baseline
1289.000,369.400,106.900,26.240,1626.000,411.100,114.700,29.330,321.900,94.010,29.010,10.430,477.200,137.200,40.850,13.990,baseline
1292.000,370.700,107.200,26.380,1628.000,411.000,114.900,29.410,321.900,94.490,29.110,10.470,480.500,138.000,41.080,14.100,baseline
1295.000,372.300,108.000,26.470,1629.000,412.300,115.000,29.470,322.400,94.360,29.260,10.510,482.400,138.700,41.320,14.220,baseline
1298.000,373.300,108.000,26.470,1630.000,411.800,114.700,29.320,323.100,94.910,29.320,10.500,481.700,137.500,40.730,13.910,baseline
1287.000,368.600,107.000,26.240,1623.000,410.400,114.400,29.230,320.100,93.640,28.860,10.340,473.100,135.600,40.300,13.770,baseline
1285.000,367.100,106.500,26.120,1623.000,410.000,114.300,29.200,318.300,93.680,28.800,10.340,472.200,135.600,40.080,13.740,baseline
1283.000,366.300,106.500,26.100,1622.000,410.200,114.600,29.290,320.400,93.560,28.850,10.340,473.100,135.800,40.340,13.790,baseline
1285.000,368.800,106.400,26.160,1620.000,410.300,114.500,29.220,318.800,93.770,28.910,10.370,474.800,135.800,40.400,13.820,baseline
1286.000,367.800,106.800,26.120,1625.000,410.300,114.800,29.300,321.100,93.750,29.000,10.390,475.000,136.600,40.560,13.910,baseline
1287.000,369.900,107.100,26.240,1626.000,410.700,114.800,29.360,320.300,94.010,29.060,10.450,478.500,137.300,40.900,14.040,baseline
1291.000,370.500,107.400,26.350,1627.000,411.400,114.900,29.370,324.700,94.720,29.190,10.500,481.200,137.900,41.110,14.110,baseline
1295.000,370.800,107.600,26.470,1629.000,412.200,115.100,29.420,324.800,94.610,29.290,10.520,483.400,139.000,41.420,14.230,baseline
1297.000,371.900,107.900,26.440,1622.000,410.800,114.600,29.240,323.000,94.960,29.160,10.450,477.300,136.600,40.400,13.840,baseline
1285.000,369.600,106.400,26.080,1621.000,409.700,114.300,29.230,317.400,93.340,28.830,10.330,473.000,135.400,40.150,13.750,baseline
1282.000,367.300,106.300,26.010,1620.000,409.600,114.400,29.220,318.100,93.280,28.740,10.320,471.800,134.900,40.160,13.690,baseline
1281.000,366.600,106.500,26.010,1617.000,409.300,114.300,29.180,317.800,93.390,28.890,10.340,473.500,135.400,40.210,13.730,baseline
1282.000,366.400,106.400,26.090,1619.000,409.500,114.400,29.250,320.100,93.580,28.940,10.360,473.200,135.900,40.360,13.800,baseline
1284.000,367.600,106.600,26.080,1623.000,410.700,114.600,29.280,318.000,93.920,28.970,10.400,475.500,136.300,40.550,13.890,baseline
1285.000,368.900,107.000,26.170,1624.000,411.000,114.900,29.330,321.100,94.030,29.060,10.440,478.400,137.300,40.920,13.970,baseline
1289.000,369.900,107.000,26.270,1624.000,411.400,114.800,29.330,321.500,94.480,29.200,10.500,480.400,138.100,41.040,14.090,baseline
1292.000,370.700,107.500,26.430,1626.000,412.000,115.100,29.370,323.500,94.830,29.280,10.530,483.700,138.800,41.400,14.230,baseline
1296.000,372.100,107.700,26.510,1628.000,411.600,114.800,29.300,324.600,95.170,29.380,10.540,481.800,137.600,40.850,13.950,baseline
1286.000,368.100,106.400,26.160,1621.000,410.400,114.200,29.190,318.300,93.730,28.890,10.350,473.600,135.500,40.210,13.790,baseline
1283.000,367.900,105.900,26.010,1620.000,409.900,114.300,29.160,318.700,93.390,28.900,10.340,472.300,135.400,40.050,13.700,baseline
1280.000,367.900,106.100,25.950,1618.000,409.100,114.200,29.160,315.700,93.380,28.800,10.340,471.900,135.400,40.250,13.760,baseline
1281.000,367.500,106.300,26.070,1618.000,409.300,114.200,29.190,320.200,93.570,28.860,10.380,473.200,136.000,40.270,13.820,baseline
1282.000,367.600,106.500,26.080,1620.000,409.200,114.400,29.230,318.600,93.750,28.960,10.400,475.300,136.400,40.580,13.900,baseline
1284.000,367.400,106.900,26.190,1622.000,409.900,114.500,29.310,319.900,93.860,29.000,10.450,477.500,137.400,40.850,13.990,baseline
1288.000,368.600,107.300,26.260,1623.000,410.400,114.700,29.370,323.000,94.490,29.130,10.470,481.400,138.100,41.080,14.150,baseline
1291.000,369.500,107.400,26.440,1626.000,411.300,114.800,29.350,323.100,94.900,29.300,10.510,482.800,138.700,41.380,14.220,baseline
1295.000,371.200,108.000,26.560,1628.000,412.400,115.000,29.400,324.500,95.150,29.420,10.590,486.900,139.700,41.610,14.320,baseline
1297.000,370.800,107.700,26.470,1619.000,409.700,114.400,29.230,324.500,94.790,29.090,10.440,476.700,136.500,40.480,13.870,baseline
1284.000,368.800,106.600,26.170,1621.000,409.300,114.200,29.170,320.200,93.810,28.920,10.350,473.500,136.200,40.290,13.820,baseline
1283.000,368.000,106.100,26.110,1622.000,409.500,114.300,29.180,319.100,93.500,28.900,10.360,473.600,135.800,40.220,13.800,baseline
1283.000,368.600,106.400,26.150,1619.000,409.800,114.300,29.190,320.300,93.840,29.020,10.390,475.400,136.100,40.460,13.850,baseline
1283.000,367.700,106.400,26.160,1621.000,409.800,114.100,29.180,321.100,93.930,29.070,10.410,475.500,136.500,40.580,13.910,baseline
1284.000,367.700,106.900,26.240,1621.000,409.600,114.600,29.240,322.100,94.300,29.060,10.430,478.100,137.400,40.830,14.000,baseline
1289.000,370.000,107.100,26.350,1623.000,410.900,114.400,29.290,322.000,94.700,29.230,10.490,480.300,138.200,41.100,14.100,baseline
1292.000,370.600,107.600,26.490,1625.000,411.200,114.700,29.300,323.700,94.610,29.340,10.540,482.400,139.100,41.380,14.240,baseline
1295.000,372.500,108.300,26.570,1629.000,411.200,114.900,29.340,325.700,95.310,29.430,10.570,486.500,139.600,41.620,14.340,baseline
1298.000,372.200,108.200,26.590,1624.000,409.900,114.300,29.210,325.100,95.250,29.440,10.520,480.500,137.400,40.810,13.960,baseline
1286.000,369.100,106.800,26.290,1622.000,409.200,114.200,29.170,320.200,93.840,29.010,10.370,475.500,136.300,40.460,13.890,baseline
1285.000,367.800,106.600,26.220,1619.000,409.000,114.300,29.080,320.300,93.870,28.960,10.390,474.900,136.200,40.590,13.870,baseline
1284.000,367.800,106.600,26.220,1620.000,409.800,114.300,29.140,321.600,94.070,29.090,10.420,476.900,137.100,40.600,13.930,baseline
1285.000,368.900,107.000,26.310,1619.000,409.600,114.200,29.180,322.700,94.230,29.020,10.430,477.700,136.900,40.660,13.950,baseline
1288.000,369.500,106.900,26.390,1620.000,409.800,114.500,29.180,322.300,94.220,29.130,10.460,480.000,137.500,40.940,14.090,baseline
1290.000,369.700,107.400,26.450,1625.000,410.700,114.400,29.250,322.700,94.770,29.180,10.520,482.100,138.700,41.310,14.170,baseline
1294.000,371.500,107.700,26.540,1627.000,410.800,114.700,29.280,323.400,95.040,29.350,10.530,484.500,139.300,41.540,14.300,baseline
1297.000,372.700,108.200,26.630,1628.000,411.700,114.700,29.300,323.900,95.210,29.460,10.590,487.900,140.200,41.750,14.400,baseline
1299.000,372.700,108.000,26.540,1626.000,409.700,114.300,29.110,323.600,95.190,29.250,10.480,479.300,137.200,40.740,13.950,baseline
1287.000,368.300,107.300,26.340,1621.000,410.200,114.000,29.040,321.000,94.000,28.960,10.380,476.700,136.300,40.640,13.930,baseline
1286.000,368.400,106.800,26.280,1622.000,409.100,114.000,29.060,322.500,93.820,28.980,10.380,477.100,136.800,40.650,13.960,baseline
1287.000,368.600,107.200,26.320,1620.000,409.300,114.200,29.080,320.700,93.840,29.110,10.420,477.200,137.100,40.730,13.970,baseline
1287.000,368.800,107.000,26.330,1622.000,409.200,114.200,29.130,321.600,94.040,29.080,10.420,479.300,137.300,40.790,14.030,baseline
1290.000,370.700,107.500,26.430,1623.000,409.900,114.200,29.160,319.100,94.460,29.170,10.460,481.000,137.800,41.140,14.140,baseline
1293.000,370.500,107.500,26.540,1627.000,410.300,114.600,29.160,324.500,94.640,29.270,10.500,483.900,138.900,41.300,14.250,baseline
1296.000,371.100,108.000,26.700,1625.000,411.300,114.500,29.220,324.800,95.070,29.350,10.560,485.700,139.700,41.600,14.350,baseline
1299.000,373.400,108.300,26.690,1631.000,411.300,114.400,29.220,324.300,95.250,29.520,10.590,487.700,139.800,41.570,14.220,baseline
1294.000,371.600,107.300,26.410,1623.000,409.600,114.000,29.050,324.300,94.360,29.050,10.410,477.100,136.600,40.570,13.950,baseline
1287.000,369.800,107.000,26.340,1621.000,408.700,114.000,29.040,321.600,93.980,29.010,10.390,475.900,136.800,40.590,13.920,baseline
1285.000,368.400,106.900,26.230,1619.000,409.400,113.700,29.030,320.800,94.020,29.010,10.380,475.800,136.700,40.660,13.960,baseline
1287.000,368.800,106.900,26.260,1624.000,409.900,113.800,29.060,320.300,94.370,29.080,10.400,478.600,136.900,40.680,13.970,baseline
1287.000,367.700,106.800,26.370,1622.000,409.500,114.000,29.010,321.100,93.890,29.070,10.420,478.700,137.500,40.900,14.050,baseline
1289.000,369.600,107.400,26.470,1619.000,409.900,114.100,29.120,321.500,94.340,29.240,10.470,480.500,138.100,41.130,14.150,baseline
1292.000,370.100,107.400,26.530,1625.000,410.200,114.300,29.170,324.600,94.730,29.280,10.520,482.800,138.600,41.350,14.250,baseline
1296.000,371.400,108.000,26.600,1625.000,411.500,114.500,29.150,321.600,95.170,29.370,10.550,486.700,139.700,41.680,14.360,baseline
1298.000,373.400,108.400,26.630,1625.000,409.900,114.300,29.000,324.900,95.540,29.380,10.500,482.300,137.900,41.000,13.990,baseline
1287.000,369.500,106.800,26.330,1618.000,408.800,113.700,28.920,320.300,94.020,28.980,10.370,475.900,136.500,40.470,13.880,baseline
1283.000,369.200,106.700,26.240,1621.000,408.600,113.700,28.930,319.400,93.940,28.930,10.350,474.900,136.000,40.360,13.860,baseline
1281.000,366.700,106.600,26.250,1616.000,408.300,113.900,28.990,320.200,93.820,28.960,10.370,476.500,136.500,40.530,13.890,baseline
1284.000,368.100,106.800,26.230,1620.000,408.700,113.800,28.980,321.100,94.270,29.030,10.410,476.000,136.500,40.640,13.940,baseline
1283.000,368.500,107.100,26.310,1619.000,408.900,113.900,29.020,320.700,94.240,29.100,10.440,478.400,137.000,40.740,14.020,baseline
1287.000,368.500,107.100,26.410,1620.000,409.500,114.000,29.080,321.900,94.490,29.220,10.470,481.100,137.800,41.030,14.150,baseline
1289.000,369.300,107.500,26.480,1621.000,409.700,114.100,29.100,324.700,94.870,29.300,10.510,483.200,138.400,41.320,14.230,baseline
1293.000,371.400,107.900,26.640,1624.000,410.200,114.300,29.120,324.400,95.240,29.420,10.560,484.200,139.300,41.490,14.260,baseline
1292.000,369.400,107.300,26.450,1617.000,407.800,113.900,28.950,323.100,94.420,29.110,10.410,476.600,136.400,40.380,13.870,baseline
1282.000,366.300,106.200,26.210,1621.000,407.900,113.600,28.930,319.800,93.630,28.900,10.370,475.000,135.700,40.320,13.790,baseline
1279.000,366.700,106.400,26.140,1616.000,407.800,113.400,28.950,319.200,93.850,28.920,10.350,472.800,135.100,40.250,13.790,baseline
1278.000,365.600,106.200,26.140,1616.000,407.600,113.700,28.960,321.900,93.690,28.920,10.380,474.600,135.800,40.380,13.800,baseline
1279.000,367.100,106.400,26.060,1617.000,408.200,113.500,29.020,322.200,93.760,28.950,10.400,475.100,135.900,40.440,13.880,baseline
1280.000,368.300,106.400,26.200,1618.000,408.700,113.900,29.030,320.100,94.220,29.030,10.440,477.000,136.900,40.680,13.970,baseline
1284.000,368.500,107.100,26.310,1620.000,409.100,113.900,29.080,320.500,94.640,29.180,10.470,478.700,137.200,40.960,14.030,baseline
1286.000,369.300,106.900,26.440,1619.000,409.100,114.200,29.130,322.300,94.630,29.290,10.530,481.500,138.200,41.200,14.190,baseline
1289.000,369.600,107.700,26.500,1621.000,409.600,114.300,29.190,322.700,94.850,29.380,10.560,483.700,138.800,41.450,14.280,baseline
1291.000,369.400,107.200,26.400,1618.000,408.800,113.700,28.930,323.000,94.680,29.210,10.470,476.200,136.300,40.390,13.860,baseline
1279.000,366.100,106.200,26.150,1614.000,408.600,113.200,28.890,319.000,93.820,28.880,10.360,472.800,135.200,40.090,13.740,baseline
1275.000,365.300,106.100,26.010,1613.000,407.900,113.400,28.910,319.400,93.730,28.890,10.350,471.400,134.900,40.010,13.730,baseline
1273.000,364.900,105.800,26.000,1612.000,407.000,113.500,28.930,318.900,93.640,28.940,10.370,473.000,135.100,40.040,13.750,baseline
1275.000,365.300,105.900,26.050,1611.000,407.200,113.800,28.990,319.900,93.630,29.040,10.400,473.500,135.600,40.130,13.780,baseline
1276.000,366.500,106.200,26.120,1617.000,407.900,114.000,28.970,318.700,94.000,29.030,10.430,474.700,136.000,40.450,13.900,baseline
1278.000,366.500,106.500,26.240,1616.000,407.900,113.700,29.100,321.400,94.290,29.110,10.480,476.500,136.600,40.660,13.980,baseline
1281.000,367.800,106.600,26.290,1617.000,408.600,114.000,29.100,323.200,94.490,29.290,10.530,479.900,137.400,40.840,14.070,baseline
1284.000,370.000,107.000,26.430,1622.000,409.200,114.000,29.130,323.200,94.740,29.350,10.560,482.100,138.400,41.200,14.190,baseline
1288.000,368.500,107.600,26.450,1619.000,408.200,113.700,29.050,325.700,95.170,29.350,10.530,477.600,136.600,40.490,13.840,baseline
1277.000,366.000,106.100,26.110,1611.000,406.800,113.600,29.010,320.700,93.750,28.960,10.380,471.900,135.100,39.960,13.680,baseline
1274.000,364.800,106.200,26.010,1612.000,406.600,113.400,28.900,321.900,93.480,28.950,10.350,471.300,134.600,39.930,13.630,baseline
1270.000,363.700,105.800,26.000,1610.000,407.400,113.500,28.940,320.500,93.700,28.920,10.390,471.400,135.000,40.030,13.740,baseline
1272.000,365.200,105.800,26.020,1611.000,407.400,113.400,28.980,321.200,94.050,29.060,10.400,472.200,135.200,40.110,13.740,baseline
1274.000,365.300,106.100,26.120,1614.000,407.500,113.800,28.990,319.700,93.830,29.080,10.420,472.600,135.900,40.300,13.840,baseline
1275.000,365.700,106.500,26.190,1615.000,407.600,113.700,29.060,319.700,94.260,29.200,10.480,476.800,136.400,40.630,13.930,baseline
1279.000,367.400,106.400,26.260,1618.000,407.700,113.900,29.100,322.200,94.630,29.210,10.530,477.700,137.000,40.940,14.020,baseline
1282.000,368.100,106.800,26.440,1618.000,409.400,114.100,29.120,323.800,94.600,29.330,10.570,479.600,138.000,41.050,14.150,baseline
1286.000,368.200,107.600,26.460,1621.000,409.200,114.200,29.160,322.600,95.110,29.440,10.600,482.900,138.300,41.080,14.070,baseline
1280.000,366.300,106.500,26.190,1619.000,407.200,113.700,29.000,320.100,93.970,29.010,10.420,472.600,135.300,40.090,13.750,baseline
1274.000,366.100,106.100,26.150,1617.000,407.200,113.600,28.970,319.500,94.030,28.990,10.410,472.000,134.800,40.090,13.700,baseline
1273.000,365.700,106.000,26.040,1612.000,407.100,113.500,28.980,320.100,93.910,28.950,10.400,472.200,135.200,40.140,13.800,baseline
1274.000,365.500,105.800,26.140,1612.000,407.300,113.800,28.990,318.600,94.060,29.010,10.440,473.400,135.500,40.220,13.770,baseline
1274.000,364.600,106.300,26.140,1610.000,407.200,113.700,29.010,323.000,93.820,29.150,10.440,473.700,135.800,40.450,13.860,baseline
1275.000,366.600,106.700,26.240,1616.000,407.700,113.800,29.080,321.000,94.110,29.160,10.490,475.300,136.300,40.620,13.980,baseline
1279.000,367.400,106.800,26.320,1619.000,408.700,113.800,29.070,322.500,94.570,29.220,10.520,478.200,137.500,40.930,14.060,baseline
1283.000,368.300,107.200,26.400,1618.000,408.400,114.100,29.120,322.800,94.930,29.370,10.550,480.500,137.900,41.080,14.170,baseline
1286.000,368.600,107.600,26.500,1620.000,408.100,114.100,29.080,325.000,95.170,29.440,10.600,481.900,137.700,40.800,13.960,baseline
1278.000,366.700,106.800,26.260,1612.000,407.000,113.600,28.970,320.600,93.820,29.020,10.430,472.700,135.500,40.180,13.750,baseline
1275.000,365.500,106.000,26.110,1612.000,406.600,113.600,28.960,319.700,93.630,29.010,10.410,472.600,135.300,40.240,13.750,baseline
1274.000,365.500,106.200,26.110,1615.000,407.200,113.200,29.000,318.300,93.880,29.000,10.410,473.500,135.800,40.290,13.830,baseline
1275.000,366.000,106.300,26.200,1614.000,407.400,113.600,29.020,320.300,93.960,29.100,10.440,474.700,136.000,40.430,13.820,baseline
1276.000,365.900,106.300,26.200,1615.000,407.800,113.900,29.030,321.300,94.230,29.110,10.470,475.100,136.400,40.550,13.910,baseline
1280.000,366.300,107.100,26.300,1614.000,408.300,113.900,29.090,321.900,94.480,29.230,10.490,477.800,137.200,40.750,14.020,baseline
1282.000,367.600,106.900,26.420,1620.000,409.400,114.100,29.130,323.300,94.720,29.280,10.550,479.600,137.600,40.990,14.120,baseline
1286.000,369.500,107.500,26.540,1622.000,409.900,114.400,29.180,324.500,95.110,29.470,10.590,482.800,138.900,41.260,14.220,baseline
1287.000,369.800,107.200,26.380,1619.000,408.300,113.800,29.010,325.200,94.740,29.210,10.460,475.800,136.100,40.390,13.840,baseline
1277.000,366.100,106.500,26.190,1615.000,407.700,113.700,28.970,321.000,93.790,28.940,10.410,474.300,135.600,40.280,13.770,baseline
1276.000,366.300,106.200,26.190,1614.000,406.900,113.700,28.990,322.100,93.850,28.990,10.410,473.200,135.400,40.210,13.800,baseline
1276.000,366.200,106.100,26.160,1619.000,408.100,113.800,29.030,320.700,94.010,29.110,10.440,474.200,135.900,40.380,13.800,baseline
1277.000,366.000,106.300,26.190,1619.000,407.700,113.700,29.040,320.600,94.100,29.100,10.440,475.000,136.100,40.480,13.910,baseline
1278.000,367.000,106.200,26.240,1617.000,408.700,114.200,29.110,321.200,94.370,29.190,10.480,477.200,136.700,40.700,13.970,baseline
1281.000,367.100,106.800,26.300,1623.000,409.300,114.100,29.160,323.000,94.380,29.270,10.530,478.800,137.400,40.810,14.070,baseline
1285.000,369.000,107.000,26.470,1624.000,409.200,114.300,29.220,323.900,94.790,29.360,10.590,482.300,138.200,41.150,14.160,baseline
1288.000,370.300,107.600,26.500,1620.000,409.200,114.100,29.100,323.500,95.140,29.490,10.550,480.200,137.100,40.570,13.910,baseline
1279.000,367.000,106.400,26.210,1617.000,407.500,113.700,29.040,321.300,93.800,29.070,10.400,473.300,135.200,40.200,13.800,baseline
1276.000,365.900,106.300,26.160,1615.000,408.000,113.600,28.980,319.200,93.790,29.020,10.390,472.200,134.900,40.160,13.740,baseline
1274.000,365.400,106.100,26.140,1617.000,407.600,113.800,29.090,320.100,93.760,28.980,10.410,473.600,135.500,40.330,13.810,baseline
1276.000,365.100,106.200,26.160,1618.000,408.200,113.700,29.070,321.400,94.110,29.130,10.430,474.000,135.600,40.330,13.830,baseline
1278.000,365.200,106.500,26.230,1616.000,409.000,113.900,29.160,320.900,94.110,29.120,10.460,475.200,136.100,40.560,13.920,baseline
1281.000,366.600,106.600,26.290,1619.000,408.500,114.000,29.140,321.600,94.300,29.210,10.500,477.100,137.100,40.770,14.000,baseline
1284.000,367.700,107.200,26.420,1623.000,409.800,114.300,29.250,321.900,94.970,29.280,10.550,479.700,137.700,41.040,14.130,baseline
1287.000,368.800,107.500,26.480,1626.000,409.900,114.200,29.210,325.000,95.000,29.430,10.590,483.300,139.000,41.340,14.210,baseline
1289.000,368.700,107.600,26.380,1620.000,408.900,113.900,29.100,324.000,94.780,29.270,10.480,475.500,136.000,40.320,13.830,baseline
1277.000,366.700,106.300,26.140,1617.000,408.000,113.700,29.070,320.500,93.800,29.020,10.400,473.400,135.200,40.120,13.710,baseline
1275.000,365.500,106.100,26.060,1614.000,407.600,113.800,29.000,320.800,93.890,29.010,10.400,471.700,135.100,40.030,13.700,baseline
1274.000,364.900,106.100,26.040,1617.000,408.500,113.800,29.030,318.500,93.910,29.010,10.420,472.600,135.400,40.210,13.790,baseline
1275.000,365.300,106.400,26.050,1616.000,408.500,113.800,29.100,321.600,93.980,29.070,10.440,473.400,135.700,40.240,13.820,baseline
1277.000,365.200,106.300,26.140,1618.000,408.500,114.000,29.170,321.400,94.200,29.130,10.480,475.200,136.300,40.500,13.930,baseline
1280.000,366.000,106.900,26.350,1621.000,409.500,114.400,29.230,322.400,94.600,29.280,10.520,478.300,137.200,40.780,14.000,baseline
1284.000,368.000,106.900,26.400,1624.000,409.900,114.400,29.270,324.100,94.910,29.320,10.570,480.300,138.000,41.040,14.120,baseline
1287.000,367.900,107.300,26.520,1618.000,410.800,114.400,29.330,323.200,95.020,29.500,10.610,482.500,138.600,41.350,14.220,baseline
1291.000,369.400,108.000,26.590,1623.000,410.200,114.500,29.250,324.800,95.540,29.540,10.610,482.100,137.300,40.730,13.970,baseline
1281.000,367.300,106.500,26.190,1616.000,408.900,113.900,29.080,322.800,94.230,29.060,10.430,473.800,135.500,40.240,13.780,baseline
1277.000,366.400,106.000,26.110,1616.000,408.600,114.100,29.090,318.100,93.910,29.000,10.420,472.700,135.100,40.080,13.720,baseline
1275.000,364.700,106.300,26.000,1615.000,408.600,113.900,29.120,320.200,93.830,29.070,10.410,473.000,135.400,40.180,13.780,baseline
1276.000,365.300,106.300,26.130,1615.000,408.800,113.800,29.130,320.700,94.070,29.080,10.460,474.100,135.500,40.200,13.790,baseline
1277.000,366.100,106.000,26.150,1617.000,408.800,114.200,29.180,319.800,94.100,29.150,10.470,474.100,136.000,40.400,13.900,baseline
1280.000,366.200,106.600,26.230,1619.000,409.600,114.300,29.220,322.100,94.520,29.260,10.520,476.400,136.700,40.720,13.980,baseline
1283.000,366.700,106.700,26.370,1623.000,409.900,114.500,29.260,323.400,94.970,29.350,10.550,480.100,137.500,41.000,14.060,baseline
1287.000,367.700,107.200,26.450,1622.000,410.600,114.500,29.300,324.500,94.890,29.490,10.600,482.300,138.400,41.330,14.190,baseline
1290.000,368.900,107.600,26.580,1624.000,410.800,114.800,29.390,325.200,95.400,29.570,10.640,485.200,139.300,41.570,14.310,baseline
1295.000,372.000,108.100,26.670,1629.000,411.100,114.800,29.310,327.700,95.940,29.650,10.690,486.800,139.200,41.190,14.110,baseline
1286.000,367.900,106.800,26.320,1620.000,409.700,114.300,29.210,321.900,94.160,29.160,10.470,475.200,135.900,40.410,13.860,baseline
1281.000,367.100,106.300,26.200,1619.000,409.500,113.900,29.170,317.900,94.080,29.050,10.440,473.500,135.500,40.240,13.780,baseline
1279.000,365.600,106.100,26.110,1620.000,408.800,114.000,29.250,319.900,94.070,29.060,10.430,473.700,135.600,40.320,13.830,baseline
1280.000,365.000,106.600,26.150,1618.000,408.900,114.000,29.160,321.600,94.170,29.170,10.480,475.300,136.000,40.430,13.860,baseline
1281.000,366.900,106.300,26.230,1621.000,409.400,114.200,29.260,322.900,94.470,29.130,10.480,476.200,136.400,40.580,13.960,baseline
1283.000,367.600,106.800,26.290,1624.000,410.500,114.500,29.250,321.800,94.750,29.240,10.540,478.300,137.300,40.880,14.030,baseline
1287.000,368.400,107.200,26.390,1623.000,410.900,114.600,29.400,323.400,94.680,29.420,10.570,482.000,138.100,41.140,14.150,baseline
1290.000,369.800,107.400,26.540,1625.000,410.900,114.700,29.370,325.100,95.310,29.470,10.610,484.200,138.900,41.450,14.290,baseline
1294.000,370.600,107.800,26.600,1627.000,411.500,115.000,29.410,326.600,95.560,29.600,10.650,486.900,139.800,41.620,14.370,baseline
1298.000,371.900,108.500,26.810,1628.000,411.400,115.100,29.400,326.400,95.870,29.710,10.680,489.000,140.000,41.610,14.260,baseline
1291.000,368.900,107.300,26.450,1621.000,409.400,114.400,29.190,324.400,95.080,29.260,10.500,476.800,136.900,40.560,13.920,baseline
1284.000,368.000,106.800,26.340,1621.000,409.100,114.100,29.180,320.600,94.300,29.220,10.470,476.900,136.300,40.520,13.920,baseline
1283.000,367.800,106.700,26.220,1624.000,409.100,114.200,29.180,320.500,93.970,29.100,10.460,476.300,136.200,40.580,13.910,baseline
1284.000,366.700,107.100,26.310,1622.000,409.000,114.200,29.190,322.200,94.280,29.240,10.480,478.500,136.600,40.660,13.990,baseline
1285.000,368.400,107.000,26.380,1622.000,409.300,114.500,29.250,321.800,94.440,29.250,10.520,479.000,137.200,40.910,14.050,baseline
1287.000,368.600,107.600,26.460,1623.000,409.900,114.400,29.310,322.900,94.480,29.340,10.550,481.800,137.700,41.040,14.150,baseline
1290.000,369.500,107.600,26.580,1628.000,410.900,114.700,29.320,324.600,95.060,29.480,10.610,483.900,138.800,41.360,14.230,baseline
1294.000,370.600,108.300,26.630,1625.000,411.100,114.800,29.360,325.400,95.110,29.560,10.620,485.600,139.600,41.640,14.360,baseline
1298.000,371.700,108.800,26.820,1631.000,411.900,114.900,29.390,326.300,95.720,29.650,10.690,488.900,140.800,41.880,14.450,baseline
1301.000,373.100,108.500,26.690,1623.000,410.300,114.300,29.170,327.900,95.660,29.500,10.560,482.100,137.500,40.940,14.050,baseline
1287.000,369.900,107.300,26.440,1620.000,409.800,114.100,29.140,322.400,94.350,29.220,10.470,478.100,136.900,40.780,13.970,baseline
1286.000,368.400,107.100,26.380,1621.000,409.000,114.200,29.160,321.400,94.730,29.210,10.490,479.000,136.900,40.740,13.990,baseline
1286.000,368.700,107.300,26.410,1619.000,409.500,114.200,29.110,323.800,94.660,29.260,10.500,480.400,137.300,40.820,14.050,baseline
1286.000,369.500,107.100,26.480,1620.000,409.600,114.100,29.160,324.000,94.740,29.290,10.510,480.400,137.900,40.940,14.070,baseline
1289.000,369.000,107.500,26.510,1623.000,410.600,114.500,29.210,324.300,94.990,29.430,10.570,482.600,138.100,41.260,14.230,baseline
1292.000,370.300,108.000,26.650,1628.000,410.600,114.400,29.260,325.600,95.460,29.540,10.610,484.600,139.200,41.550,14.320,baseline
1296.000,370.200,108.600,26.770,1629.000,411.600,114.500,29.290,326.900,95.700,29.610,10.630,487.600,139.900,41.690,14.440,baseline
1301.000,371.300,108.500,26.870,1627.000,412.300,114.900,29.330,325.400,96.050,29.700,10.680,490.700,141.000,42.090,14.540,baseline
1305.000,373.600,108.800,26.880,1627.000,411.200,114.700,29.220,329.700,96.010,29.710,10.650,486.600,138.700,41.320,14.170,baseline
1291.000,370.300,107.600,26.540,1622.000,409.500,114.100,29.030,322.700,94.850,29.290,10.450,479.500,137.100,40.970,14.020,baseline
1287.000,367.800,107.600,26.430,1620.000,409.500,114.000,29.040,322.200,94.330,29.220,10.470,478.600,136.900,40.710,13.990,baseline
1286.000,368.000,107.300,26.410,1616.000,408.900,113.700,29.040,323.200,94.490,29.230,10.480,478.700,137.500,40.940,14.040,baseline
1287.000,368.300,107.500,26.440,1620.000,409.200,113.800,29.100,322.800,94.870,29.280,10.500,479.400,137.400,40.980,14.080,baseline
1288.000,369.700,107.200,26.460,1621.000,410.300,114.300,29.080,321.900,94.720,29.400,10.530,481.600,138.200,41.320,14.170,baseline
1291.000,369.400,107.600,26.620,1626.000,410.400,114.400,29.200,325.700,94.980,29.490,10.570,484.000,139.100,41.530,14.280,baseline
1294.000,370.900,107.900,26.700,1627.000,409.900,114.400,29.160,325.600,95.540,29.560,10.640,486.600,140.000,41.810,14.380,baseline
1297.000,371.500,108.400,26.740,1627.000,410.700,114.600,29.190,326.500,96.020,29.730,10.680,488.700,141.200,42.190,14.530,baseline
1301.000,373.600,108.900,26.840,1625.000,410.000,114.400,29.120,327.600,96.340,29.850,10.680,491.700,140.600,41.940,14.310,baseline
1285.000,367.900,107.000,26.490,1616.000,408.700,114.100,28.950,324.000,94.750,29.300,10.510,479.100,137.500,41.040,14.060,easy
1285.000,368.200,107.300,26.410,1617.000,408.700,113.900,29.040,322.400,94.790,29.340,10.510,481.000,137.800,41.200,14.150,easy
1288.000,369.000,107.600,26.540,1622.000,409.300,114.200,29.080,323.600,94.730,29.390,10.550,482.700,138.400,41.370,14.250,easy
1291.000,369.800,107.600,26.620,1624.000,409.600,114.300,29.090,323.500,95.130,29.550,10.600,485.200,139.200,41.630,14.320,easy
1294.000,370.200,108.200,26.640,1625.000,410.200,114.400,29.130,325.500,95.650,29.630,10.620,487.500,140.100,41.820,14.430,easy
1298.000,372.800,108.800,26.810,1625.000,410.600,114.600,29.160,328.000,96.050,29.690,10.690,491.000,140.700,42.000,14.420,easy
1294.000,370.500,107.800,26.580,1619.000,408.800,113.800,28.980,324.400,95.040,29.390,10.510,480.000,137.300,40.940,14.070,easy
1285.000,367.700,107.400,26.390,1617.000,408.600,113.800,28.940,322.800,94.410,29.220,10.470,479.000,136.800,40.750,14.030,easy
1283.000,367.500,106.800,26.310,1616.000,408.100,113.700,28.960,322.600,94.560,29.150,10.450,478.600,136.900,40.980,14.060,easy
1284.000,367.500,107.000,26.380,1618.000,408.200,113.700,28.980,323.200,94.610,29.250,10.510,478.900,137.200,40.940,14.060,easy
1284.000,367.300,107.300,26.370,1618.000,408.400,113.800,28.980,320.800,94.650,29.290,10.500,480.300,137.800,41.040,14.130,easy
1286.000,368.700,107.400,26.450,1618.000,408.900,113.800,29.000,323.200,94.890,29.440,10.560,482.600,138.400,41.320,14.190,easy
1288.000,368.800,107.500,26.570,1619.000,409.300,113.900,29.080,325.400,95.080,29.450,10.590,484.900,138.900,41.590,14.300,easy
1292.000,370.700,107.900,26.630,1624.000,409.900,114.400,29.090,327.000,95.490,29.590,10.620,486.300,139.600,41.790,14.420,easy
1295.000,370.200,108.200,26.730,1624.000,408.800,114.000,29.080,326.200,95.850,29.660,10.660,488.300,139.400,41.450,14.210,easy
1287.000,368.700,107.000,26.440,1618.000,407.400,113.700,28.950,322.000,94.800,29.240,10.480,478.600,137.000,40.830,14.020,easy
1282.000,368.200,107.200,26.320,1615.000,407.500,113.700,28.950,321.400,94.390,29.230,10.460,478.100,136.600,40.780,13.970,easy
1282.000,366.900,106.900,26.320,1621.000,407.500,113.500,28.950,321.600,94.200,29.230,10.460,479.000,137.200,40.840,14.040,easy
1282.000,366.400,106.800,26.300,1616.000,408.200,113.700,28.950,322.600,94.660,29.270,10.510,479.300,137.300,40.970,14.050,easy
1284.000,367.400,107.100,26.370,1618.000,407.900,113.700,29.000,323.100,94.600,29.360,10.520,481.400,137.600,41.100,14.130,easy
1287.000,367.600,107.500,26.450,1618.000,408.200,114.100,29.060,324.400,94.860,29.360,10.570,482.000,138.300,41.320,14.240,easy
1289.000,370.000,107.900,26.560,1623.000,409.500,114.100,29.080,324.000,95.230,29.510,10.610,485.100,139.200,41.650,14.340,easy
1293.000,369.900,108.100,26.690,1620.000,410.200,114.300,29.150,325.200,95.370,29.600,10.640,487.900,140.200,41.870,14.480,easy
1296.000,371.900,108.300,26.750,1621.000,409.100,114.000,29.050,326.000,95.730,29.660,10.660,486.400,139.100,41.390,14.190,easy
1286.000,369.600,107.300,26.440,1615.000,407.600,113.600,28.930,323.500,94.490,29.220,10.450,478.800,136.600,40.750,13.990,easy
1282.000,367.900,106.900,26.290,1610.000,406.700,113.600,28.870,320.600,94.140,29.170,10.460,476.800,136.700,40.730,13.910,easy
1279.000,366.700,106.900,26.220,1613.000,408.200,113.700,28.980,321.300,94.240,29.130,10.440,477.400,136.700,40.780,14.010,easy
1281.000,365.900,106.700,26.300,1612.000,407.000,113.500,28.930,323.200,94.650,29.240,10.470,478.100,137.000,40.850,14.020,easy
1281.000,367.200,106.800,26.350,1614.000,407.500,113.700,28.970,323.000,94.600,29.220,10.500,480.500,137.300,41.070,14.090,easy
1282.000,367.000,106.900,26.390,1620.000,407.400,113.800,29.010,322.700,94.790,29.310,10.530,481.800,138.100,41.260,14.190,easy
1286.000,368.600,107.200,26.480,1620.000,408.000,113.900,29.070,323.700,95.270,29.490,10.580,484.400,138.800,41.440,14.300,easy
1289.000,369.700,107.800,26.560,1620.000,408.300,114.000,29.140,325.200,95.360,29.600,10.620,486.700,139.600,41.790,14.400,easy
1293.000,369.700,108.100,26.630,1616.000,408.700,113.900,29.020,325.900,95.730,29.660,10.640,486.900,139.100,41.360,14.150,easy
1283.000,367.500,107.100,26.320,1612.000,407.800,113.400,28.930,323.100,94.450,29.190,10.460,477.100,136.400,40.610,13.970,easy
1279.000,366.900,106.700,26.200,1608.000,406.100,113.300,28.890,321.500,94.210,29.150,10.420,476.300,136.400,40.570,13.910,easy
1277.000,365.900,106.100,26.170,1611.000,406.300,113.400,28.850,321.100,94.010,29.060,10.430,476.000,136.500,40.600,13.940,easy
1277.000,366.000,106.400,26.140,1611.000,406.100,113.500,28.870,321.800,94.160,29.120,10.470,477.400,136.600,40.690,13.980,easy
1277.000,366.100,106.400,26.210,1610.000,406.600,113.500,28.960,321.300,94.360,29.200,10.500,477.700,137.000,40.910,14.050,easy
1279.000,366.500,106.600,26.320,1612.000,406.800,113.600,28.980,322.100,94.470,29.280,10.520,479.600,137.800,41.120,14.140,easy
1283.000,368.100,107.200,26.380,1612.000,408.300,113.500,29.050,325.200,95.100,29.370,10.550,482.300,138.400,41.300,14.240,easy
1286.000,368.400,107.200,26.480,1618.000,408.300,113.900,29.080,322.400,95.190,29.460,10.610,484.300,139.100,41.630,14.350,easy
1290.000,369.500,107.700,26.580,1619.000,408.200,113.900,29.020,325.900,95.570,29.590,10.630,488.700,140.000,41.800,14.330,easy
1286.000,368.200,107.200,26.340,1608.000,406.700,113.500,28.880,323.700,94.640,29.260,10.490,478.200,136.600,40.760,13.970,easy
1277.000,365.200,106.700,26.160,1609.000,406.100,113.400,28.880,320.600,94.120,29.080,10.440,476.100,136.400,40.620,13.900,easy
1275.000,365.000,106.500,26.080,1610.000,406.400,113.100,28.910,319.300,93.930,29.140,10.420,476.000,136.100,40.550,13.920,easy
1275.000,365.000,106.200,26.170,1608.000,406.400,113.400,28.870,321.300,94.070,29.190,10.460,476.100,136.500,40.760,13.960,easy
1276.000,365.800,106.400,26.170,1613.000,406.300,113.300,28.900,321.500,94.250,29.180,10.460,477.500,136.900,40.750,14.030,easy
1278.000,365.700,106.700,26.210,1612.000,406.700,113.600,29.000,321.200,94.280,29.270,10.510,479.300,137.500,41.030,14.100,easy
1281.000,366.000,106.600,26.330,1610.000,407.000,113.600,29.010,323.400,94.700,29.330,10.540,481.300,138.200,41.240,14.200,easy
1284.000,368.400,106.600,26.400,1616.000,407.800,114.000,29.060,324.600,94.900,29.390,10.580,483.300,138.900,41.480,14.300,easy
1288.000,368.600,107.500,26.480,1613.000,407.500,113.500,28.990,322.700,95.080,29.490,10.610,481.800,137.800,41.020,14.030,easy
1277.000,366.200,106.400,26.160,1610.000,406.700,113.300,28.870,322.200,94.120,29.070,10.430,476.100,136.000,40.620,13.920,easy
1275.000,364.400,106.200,26.080,1613.000,405.500,113.300,28.900,319.300,93.760,29.110,10.430,475.300,135.900,40.560,13.880,easy
1274.000,363.500,106.100,26.070,1611.000,406.100,113.300,28.950,320.100,94.200,29.140,10.450,476.000,136.400,40.670,13.980,easy
1275.000,364.300,106.200,26.140,1609.000,406.000,113.200,28.930,320.700,94.190,29.200,10.460,476.100,136.700,40.720,13.970,easy
1276.000,364.800,106.700,26.200,1615.000,406.700,113.600,28.980,319.600,94.280,29.200,10.480,478.400,137.200,41.010,14.070,easy
1279.000,365.500,107.000,26.290,1616.000,406.900,113.700,29.030,322.900,94.560,29.350,10.530,480.600,137.900,41.180,14.180,easy
1282.000,368.200,107.100,26.310,1612.000,407.700,113.900,29.090,323.500,94.860,29.420,10.580,482.800,138.500,41.360,14.270,easy
1286.000,369.100,107.400,26.480,1619.000,408.100,113.900,29.090,323.400,95.130,29.560,10.600,485.100,139.200,41.660,14.310,easy
1286.000,368.200,107.000,26.340,1609.000,406.800,113.500,28.990,324.500,94.760,29.290,10.490,477.400,136.500,40.730,13.950,easy
1276.000,364.500,106.100,26.110,1607.000,406.400,113.200,28.880,321.200,93.810,29.070,10.420,475.400,136.100,40.500,13.860,easy
1273.000,365.400,105.800,26.010,1609.000,405.500,113.200,28.900,321.700,93.640,29.020,10.420,474.400,135.700,40.540,13.870,easy
1274.000,364.200,106.100,26.020,1614.000,406.400,113.300,28.910,319.500,94.350,29.150,10.450,475.700,136.200,40.650,13.900,easy
1274.000,363.700,106.300,26.050,1611.000,406.200,113.500,28.970,320.000,94.240,29.130,10.480,476.700,136.500,40.770,13.970,easy
1277.000,364.800,106.300,26.140,1611.000,407.600,113.600,29.040,321.800,94.270,29.320,10.520,479.300,137.300,40.920,14.070,easy
1280.000,366.800,106.800,26.230,1612.000,407.400,113.700,29.080,322.100,94.690,29.390,10.550,480.400,138.100,41.110,14.150,easy
1283.000,367.000,107.000,26.310,1614.000,407.900,113.800,29.090,323.600,94.900,29.420,10.570,482.600,138.400,41.440,14.260,easy
1287.000,367.400,107.500,26.400,1616.000,408.300,113.900,29.170,323.800,95.200,29.550,10.630,485.100,139.300,41.650,14.290,easy
1285.000,367.900,106.900,26.260,1609.000,407.000,113.500,28.980,326.200,94.640,29.280,10.490,476.900,136.700,40.660,13.940,easy
1277.000,364.800,106.200,26.060,1610.000,406.400,113.300,28.900,319.500,93.870,29.130,10.430,475.200,135.800,40.450,13.850,easy
1274.000,364.300,105.700,25.910,1610.000,406.100,113.200,28.880,321.700,93.920,29.040,10.410,474.400,135.900,40.520,13.850,easy
1273.000,364.900,105.800,25.960,1609.000,406.800,113.300,28.980,320.700,93.890,29.170,10.460,476.400,136.400,40.600,13.890,easy
1275.000,365.000,105.800,26.090,1612.000,406.700,113.600,29.030,321.700,94.230,29.160,10.480,476.100,136.600,40.700,13.980,easy
1276.000,364.700,106.200,26.060,1613.000,407.100,113.500,29.030,321.200,94.410,29.270,10.520,477.300,137.400,40.980,14.060,easy
1280.000,365.500,106.200,26.160,1618.000,407.700,113.900,29.070,322.000,94.690,29.370,10.550,479.500,137.800,41.190,14.170,easy
1283.000,367.700,107.000,26.240,1615.000,408.100,114.100,29.160,323.200,95.020,29.430,10.590,483.400,138.500,41.450,14.240,easy
1286.000,367.700,107.500,26.430,1619.000,408.700,114.300,29.170,322.500,95.060,29.530,10.640,485.200,139.400,41.680,14.330,easy
1288.000,367.800,107.200,26.190,1611.000,407.500,113.500,29.020,326.000,94.840,29.380,10.510,478.800,136.500,40.690,13.950,easy
1277.000,365.700,106.000,26.040,1609.000,406.500,113.500,29.010,321.500,94.020,29.090,10.470,476.200,136.100,40.610,13.890,easy
1277.000,364.100,106.100,26.000,1615.000,406.800,113.500,28.970,320.600,94.100,29.140,10.450,475.700,136.200,40.540,13.890,easy
1277.000,364.300,106.200,25.980,1613.000,406.700,113.600,28.990,321.400,94.260,29.240,10.470,476.900,136.500,40.740,13.950,easy
1277.000,364.200,105.900,26.050,1610.000,407.000,113.700,29.060,321.500,94.380,29.260,10.510,476.600,136.700,40.830,14.000,easy
1279.000,365.800,105.900,26.220,1614.000,407.100,113.900,29.100,322.500,94.430,29.320,10.550,478.500,137.300,41.070,14.080,easy
1281.000,366.300,106.700,26.220,1615.000,407.300,114.000,29.180,322.800,94.720,29.400,10.580,481.900,138.400,41.290,14.150,easy
1284.000,366.100,106.700,26.300,1618.000,408.300,114.300,29.210,323.200,94.960,29.510,10.620,483.300,138.600,41.540,14.290,easy
1288.000,368.500,107.400,26.480,1618.000,409.300,114.500,29.260,324.600,95.230,29.590,10.660,485.900,139.700,41.780,14.390,easy
1291.000,368.500,107.300,26.290,1609.000,407.300,113.800,29.150,324.000,95.280,29.430,10.550,479.200,137.200,40.870,14.020,easy
1280.000,365.200,106.400,26.110,1615.000,407.600,113.800,29.090,320.800,94.270,29.190,10.480,477.700,136.400,40.770,13.960,easy
1278.000,364.900,106.200,25.990,1615.000,406.400,113.700,29.050,321.400,94.080,29.150,10.500,476.600,136.700,40.640,13.960,easy
1279.000,364.200,106.200,26.020,1614.000,407.500,114.000,29.120,320.400,94.400,29.280,10.510,479.200,137.000,40.820,14.020,easy
1280.000,366.100,106.300,26.030,1613.000,407.700,113.900,29.110,323.400,94.700,29.420,10.540,479.700,137.300,40.970,14.060,easy
1282.000,365.300,106.700,26.140,1614.000,408.000,114.300,29.210,321.800,94.590,29.450,10.580,481.400,138.100,41.200,14.180,easy
1285.000,367.800,107.000,26.290,1616.000,408.500,114.400,29.250,324.400,95.050,29.550,10.610,482.700,138.800,41.390,14.270,easy
1289.000,368.500,107.300,26.380,1619.000,408.800,114.600,29.320,326.300,95.540,29.650,10.660,485.900,139.700,41.710,14.360,easy
1293.000,371.300,107.700,26.470,1622.000,410.100,115.000,29.280,325.300,95.780,29.690,10.710,488.300,140.300,41.970,14.440,easy
1293.000,369.000,107.100,26.280,1617.000,407.500,114.000,29.110,324.700,95.360,29.440,10.570,480.800,137.200,40.950,14.030,easy
1281.000,367.600,106.500,26.100,1612.000,407.000,114.000,29.090,321.400,94.580,29.340,10.500,478.100,136.900,40.780,13.990,easy
1280.000,365.300,106.000,25.980,1612.000,407.400,114.000,29.080,321.800,94.430,29.250,10.490,477.300,136.800,40.710,13.970,easy
1280.000,365.700,106.200,25.990,1615.000,408.000,114.000,29.130,322.100,94.430,29.250,10.550,479.600,137.100,40.980,14.040,easy
1281.000,366.200,106.400,26.090,1614.000,407.800,114.200,29.190,322.600,94.370,29.390,10.530,479.900,137.500,41.040,14.080,easy
1283.000,366.000,106.500,26.120,1617.000,408.800,114.300,29.240,324.400,94.890,29.460,10.590,481.500,138.100,41.110,14.140,easy
1286.000,366.600,106.800,26.210,1617.000,409.200,114.400,29.270,323.700,95.180,29.530,10.630,483.700,138.900,41.510,14.240,easy
1290.000,368.400,107.400,26.350,1620.000,409.700,114.500,29.290,325.300,95.150,29.630,10.660,485.100,139.400,41.690,14.320,easy
1293.000,369.300,107.600,26.450,1622.000,410.600,114.700,29.340,325.400,95.610,29.670,10.720,488.300,140.100,41.940,14.460,easy
1298.000,370.600,107.800,26.550,1624.000,409.700,114.500,29.300,327.400,95.830,29.830,10.720,489.500,140.000,41.620,14.260,easy
1288.000,367.300,106.800,26.180,1615.000,408.400,114.200,29.130,322.400,94.590,29.320,10.550,479.100,137.200,40.970,14.010,easy
1283.000,366.800,106.800,26.090,1614.000,407.300,114.000,29.130,321.600,94.560,29.310,10.520,478.700,137.000,40.760,14.010,easy
1282.000,365.900,106.600,26.010,1616.000,408.000,114.300,29.170,322.900,94.400,29.290,10.520,478.200,137.000,40.960,14.000,easy
1283.000,365.300,106.400,26.070,1612.000,408.000,114.200,29.150,322.700,94.250,29.370,10.560,480.500,137.500,41.030,14.030,easy
1282.000,366.600,106.700,25.960,1614.000,408.500,114.200,29.190,322.300,94.930,29.380,10.580,481.800,137.900,41.160,14.130,easy
1286.000,367.000,106.700,26.180,1616.000,409.100,114.200,29.280,323.600,95.080,29.540,10.640,483.900,138.700,41.330,14.240,easy
1289.000,368.400,107.200,26.300,1619.000,409.700,114.400,29.320,325.600,95.360,29.590,10.660,486.900,139.500,41.660,14.340,easy
1292.000,368.700,107.700,26.420,1621.000,410.400,114.700,29.380,326.500,95.590,29.770,10.710,487.200,140.100,41.950,14.450,easy
1297.000,371.000,108.100,26.470,1620.000,411.700,115.000,29.410,328.500,96.180,29.790,10.730,491.300,141.000,42.230,14.560,easy
1303.000,371.100,108.500,26.560,1622.000,410.400,114.500,29.230,330.800,96.260,29.920,10.750,488.800,139.600,41.620,14.260,easy
1289.000,369.400,107.000,26.150,1616.000,408.700,114.000,29.160,322.400,94.630,29.310,10.560,481.000,137.900,41.060,14.080,easy
1285.000,365.800,106.500,26.060,1617.000,408.700,114.200,29.200,321.100,94.780,29.330,10.530,480.800,137.500,40.960,13.990,easy
1283.000,366.000,106.600,25.990,1616.000,408.300,114.300,29.200,322.100,94.700,29.290,10.530,480.800,137.700,41.050,14.120,easy
1284.000,366.600,106.700,26.020,1618.000,408.500,114.300,29.200,323.000,94.980,29.340,10.570,481.500,138.000,41.240,14.140,easy
1286.000,368.100,106.700,26.090,1617.000,408.600,114.600,29.200,321.400,94.850,29.440,10.600,483.000,138.800,41.300,14.220,easy
1289.000,367.600,107.000,26.180,1618.000,409.300,114.400,29.300,326.000,95.400,29.540,10.620,485.600,139.400,41.590,14.320,easy
1292.000,367.900,107.500,26.310,1620.000,410.300,114.900,29.290,327.700,95.520,29.680,10.680,487.600,140.000,41.850,14.380,easy
1296.000,369.900,107.800,26.380,1622.000,410.500,115.000,29.400,325.300,95.930,29.800,10.720,490.300,141.000,42.180,14.520,easy
1300.000,371.200,108.000,26.540,1625.000,411.600,114.800,29.340,327.500,96.200,29.900,10.770,493.000,141.200,41.980,14.360,easy
1293.000,368.300,107.200,26.220,1617.000,409.000,114.400,29.210,322.800,94.900,29.500,10.580,483.300,138.200,41.220,14.120,easy
1287.000,367.000,106.400,26.120,1615.000,408.500,114.200,29.190,323.700,94.990,29.390,10.550,481.900,137.900,41.040,14.110,easy
1285.000,368.400,106.600,26.050,1617.000,408.600,114.200,29.220,322.600,94.740,29.470,10.550,482.200,137.900,41.170,14.140,easy
1286.000,367.000,106.900,26.110,1618.000,408.700,114.300,29.210,323.900,94.770,29.470,10.580,483.500,138.500,41.270,14.160,easy
1287.000,367.000,106.600,26.130,1620.000,409.300,114.500,29.280,324.300,94.950,29.480,10.600,485.300,138.900,41.550,14.270,easy
1290.000,368.300,107.000,26.170,1619.000,409.700,114.900,29.300,323.800,95.350,29.600,10.660,486.200,139.700,41.750,14.340,easy
1293.000,369.500,107.100,26.260,1620.000,410.400,114.900,29.410,325.000,95.630,29.700,10.680,488.600,140.200,41.990,14.450,easy
1296.000,369.800,107.700,26.350,1626.000,410.700,115.000,29.410,326.300,95.840,29.800,10.720,491.900,141.400,42.220,14.560,easy
1302.000,372.400,108.200,26.490,1625.000,411.400,114.900,29.320,328.300,96.180,29.890,10.760,494.400,141.100,41.790,14.360,easy
1292.000,367.000,107.000,26.140,1618.000,409.700,114.400,29.250,324.100,95.040,29.420,10.550,484.000,138.000,41.180,14.130,easy
1286.000,367.500,106.600,26.060,1620.000,408.600,114.300,29.210,326.000,94.850,29.410,10.540,482.400,138.000,40.990,14.090,easy
1284.000,366.800,106.400,25.980,1616.000,408.500,114.400,29.180,325.100,94.720,29.460,10.560,483.500,138.200,41.180,14.140,easy
1286.000,367.800,106.400,26.080,1618.000,408.200,114.500,29.180,325.600,94.940,29.450,10.580,483.900,138.600,41.250,14.140,easy
1286.000,366.400,106.500,26.050,1619.000,408.700,114.400,29.210,322.400,95.170,29.480,10.600,484.600,138.900,41.340,14.250,easy
1289.000,368.500,106.700,26.130,1622.000,409.000,114.600,29.240,324.000,95.500,29.540,10.640,486.900,139.400,41.670,14.310,easy
1292.000,368.100,107.400,26.200,1623.000,408.800,115.000,29.320,325.100,95.580,29.670,10.690,489.400,140.300,41.880,14.440,easy
1295.000,371.100,107.500,26.310,1624.000,410.600,114.900,29.400,325.800,96.040,29.730,10.690,491.200,141.100,42.110,14.510,easy
1300.000,370.700,108.200,26.410,1623.000,410.600,114.800,29.310,329.300,96.290,29.830,10.760,491.300,140.500,41.730,14.300,easy
1290.000,368.200,106.400,26.090,1614.000,408.700,114.300,29.200,324.100,95.000,29.420,10.550,482.800,137.900,41.130,14.090,easy
1285.000,367.200,106.400,25.970,1613.000,407.400,113.900,29.130,321.500,94.690,29.350,10.510,482.200,137.800,41.000,14.050,easy
1282.000,366.400,106.000,25.840,1613.000,407.900,114.200,29.200,321.400,94.570,29.270,10.540,480.900,137.800,41.140,14.090,easy
1283.000,365.200,106.700,25.930,1615.000,409.100,114.200,29.170,322.600,94.880,29.420,10.550,483.200,138.000,41.170,14.080,easy
1285.000,366.300,106.300,25.960,1616.000,408.800,114.300,29.210,321.800,94.710,29.410,10.580,483.100,138.400,41.280,14.150,easy
1286.000,367.600,106.500,25.970,1617.000,409.200,114.600,29.240,322.700,95.370,29.480,10.610,484.400,139.000,41.440,14.260,easy
1290.000,368.300,106.900,26.140,1617.000,409.900,114.700,29.320,324.500,95.380,29.640,10.630,487.500,139.600,41.710,14.350,easy
1292.000,369.600,107.000,26.140,1619.000,409.800,114.800,29.390,327.400,95.670,29.720,10.700,489.400,140.500,41.930,14.420,easy
1296.000,369.600,107.600,26.340,1621.000,410.200,114.900,29.380,326.500,95.920,29.820,10.700,492.300,141.000,42.070,14.390,easy
1292.000,367.100,106.800,26.050,1616.000,407.700,114.400,29.250,324.900,95.080,29.470,10.570,483.400,137.700,41.130,14.080,easy
1283.000,365.300,106.300,25.910,1616.000,408.000,114.300,29.150,322.500,94.690,29.310,10.500,480.800,138.000,41.000,14.010,easy
1281.000,364.700,105.900,25.770,1612.000,407.600,114.300,29.170,322.200,94.670,29.320,10.500,480.600,137.200,40.940,14.020,easy
1282.000,365.900,106.100,25.840,1613.000,407.300,114.400,29.230,323.200,94.650,29.380,10.540,481.900,137.700,41.020,14.090,easy
1282.000,365.100,106.200,25.880,1613.000,407.400,114.300,29.220,322.600,94.740,29.360,10.560,482.800,138.100,41.220,14.140,easy
1283.000,366.300,106.200,25.920,1612.000,408.100,114.500,29.290,324.100,95.040,29.490,10.590,484.800,138.700,41.350,14.200,easy
1286.000,366.700,106.400,26.050,1614.000,408.300,114.700,29.300,323.900,95.090,29.590,10.630,486.800,139.500,41.660,14.310,easy
1289.000,368.800,106.800,26.140,1615.000,409.900,114.800,29.370,325.300,95.540,29.630,10.670,488.300,139.900,41.840,14.370,easy
1292.000,367.700,107.300,26.230,1620.000,410.100,114.800,29.360,325.500,95.930,29.740,10.700,489.900,139.900,41.670,14.260,easy
1286.000,366.800,106.500,25.980,1615.000,407.700,114.300,29.250,322.200,94.740,29.350,10.530,481.300,137.900,41.000,14.060,easy
1280.000,366.200,106.100,25.840,1613.000,406.900,114.400,29.190,323.700,94.520,29.290,10.510,480.600,137.500,40.950,14.000,easy
1280.000,365.000,106.000,25.750,1613.000,407.600,114.400,29.240,325.100,94.480,29.330,10.540,481.300,137.700,41.070,14.070,easy
1280.000,365.500,106.100,25.800,1612.000,407.200,114.100,29.310,322.500,94.780,29.400,10.560,481.800,137.600,41.060,14.080,easy
1280.000,364.600,106.000,25.830,1611.000,407.800,114.200,29.280,324.300,94.770,29.430,10.570,482.800,138.200,41.250,14.150,easy
1283.000,365.500,106.200,25.890,1615.000,407.800,114.700,29.310,324.500,95.040,29.560,10.610,486.000,139.100,41.400,14.230,easy
1286.000,366.000,106.900,26.010,1615.000,408.800,114.700,29.360,323.800,95.320,29.580,10.640,486.800,139.400,41.650,14.320,easy
1289.000,367.900,107.200,26.110,1622.000,409.500,114.900,29.350,326.900,95.500,29.680,10.670,488.800,140.100,41.850,14.350,easy
1288.000,366.100,106.500,25.980,1612.000,407.900,114.300,29.170,322.400,95.090,29.430,10.580,482.500,137.600,41.060,14.050,easy
1279.000,364.500,105.800,25.800,1607.000,407.600,114.100,29.180,322.900,94.550,29.340,10.510,480.500,137.300,40.850,13.990,easy
1276.000,364.100,105.500,25.700,1611.000,407.200,114.100,29.190,320.700,94.320,29.250,10.510,479.600,137.100,40.790,13.990,easy
1278.000,365.500,105.600,25.710,1614.000,407.100,114.200,29.260,323.700,94.600,29.360,10.550,481.900,137.600,41.030,14.060,easy
1278.000,364.800,105.800,25.760,1613.000,407.700,114.300,29.290,323.800,94.490,29.350,10.560,480.400,137.600,41.060,14.090,easy
1280.000,364.700,106.100,25.790,1612.000,407.700,114.500,29.320,323.000,94.780,29.480,10.600,483.100,138.500,41.300,14.190,easy
1282.000,366.800,106.200,25.960,1611.000,408.400,114.800,29.380,324.000,95.220,29.540,10.630,485.700,139.100,41.520,14.260,easy
1285.000,368.300,106.800,26.020,1616.000,408.800,115.100,29.400,323.400,95.390,29.570,10.650,486.700,139.400,41.690,14.380,easy
1288.000,367.400,107.000,26.130,1614.000,409.800,114.700,29.370,326.600,95.550,29.720,10.710,489.100,139.800,41.620,14.270,easy
1282.000,365.000,106.100,25.800,1613.000,407.000,114.300,29.220,323.600,94.460,29.330,10.540,480.400,137.600,40.850,14.030,easy
1276.000,363.600,105.800,25.650,1609.000,407.100,114.100,29.180,323.900,94.510,29.250,10.500,479.100,137.000,40.760,13.970,easy
1273.000,363.100,105.100,25.670,1607.000,406.300,114.300,29.200,322.900,94.380,29.210,10.510,479.200,136.900,40.950,13.930,easy
1274.000,363.400,105.500,25.670,1607.000,406.500,114.400,29.300,321.600,94.640,29.250,10.530,479.200,137.200,40.820,14.020,easy
1275.000,363.300,105.900,25.730,1610.000,406.800,114.300,29.280,322.600,94.440,29.310,10.550,480.500,137.600,41.070,14.070,easy
1277.000,364.000,105.800,25.820,1608.000,407.700,114.400,29.310,322.500,94.430,29.390,10.570,482.200,138.200,41.290,14.140,easy
1280.000,365.300,105.700,25.880,1610.000,408.100,114.700,29.380,325.600,94.760,29.510,10.620,484.700,138.700,41.420,14.240,easy
1283.000,366.300,106.800,25.970,1612.000,408.400,114.800,29.410,323.300,95.270,29.540,10.660,485.200,139.300,41.690,14.330,easy
1285.000,367.700,106.700,26.050,1614.000,409.000,114.700,29.400,326.600,95.520,29.620,10.680,487.800,139.500,41.540,14.220,easy
1281.000,365.100,106.100,25.770,1609.000,406.900,114.400,29.260,324.300,94.710,29.310,10.540,479.300,137.200,40.910,14.010,easy
1274.000,364.000,105.600,25.700,1609.000,406.900,114.000,29.240,322.100,94.030,29.200,10.520,479.000,136.700,40.780,13.970,easy
1272.000,362.500,105.100,25.600,1610.000,406.400,113.900,29.200,322.900,94.040,29.180,10.500,479.300,136.900,40.800,13.980,easy
1273.000,362.500,105.300,25.600,1610.000,406.400,114.100,29.270,321.300,94.390,29.230,10.530,479.100,137.100,40.880,14.020,easy
1273.000,363.200,105.400,25.690,1611.000,407.300,114.500,29.260,322.200,94.270,29.300,10.540,480.100,137.300,41.070,14.080,easy
1276.000,363.400,105.500,25.830,1610.000,407.300,114.400,29.320,323.200,94.370,29.330,10.580,482.100,138.100,41.210,14.180,easy
1278.000,363.500,105.900,25.910,1609.000,407.600,114.800,29.400,324.000,94.740,29.470,10.610,484.600,138.800,41.510,14.270,easy
1282.000,366.200,105.900,26.000,1612.000,408.500,114.700,29.410,325.200,94.880,29.480,10.650,486.000,139.400,41.660,14.330,easy
1284.000,367.200,106.900,26.120,1616.000,408.100,114.800,29.460,324.800,95.120,29.620,10.670,487.500,140.100,41.910,14.460,easy
1289.000,368.600,107.100,26.160,1616.000,408.300,114.800,29.380,324.500,95.310,29.610,10.690,488.500,139.300,41.590,14.230,easy
1279.000,364.900,105.800,25.870,1611.000,407.100,114.300,29.290,322.100,94.500,29.250,10.520,480.700,137.600,41.020,14.090,easy
1276.000,363.500,105.600,25.770,1610.000,406.800,114.200,29.220,321.400,94.200,29.210,10.490,480.500,137.300,41.000,14.060,easy
1273.000,362.900,105.700,25.750,1610.000,406.400,114.200,29.260,320.200,94.280,29.200,10.510,481.200,137.700,41.110,14.110,easy
1276.000,364.300,105.700,25.770,1608.000,406.900,114.300,29.320,320.700,94.440,29.240,10.530,480.900,137.800,41.150,14.150,easy
1276.000,363.300,105.700,25.810,1610.000,407.800,114.300,29.360,322.500,94.040,29.310,10.550,481.500,138.200,41.390,14.210,easy
1279.000,365.300,106.300,25.950,1612.000,408.200,114.400,29.370,322.100,94.520,29.340,10.580,483.800,138.800,41.660,14.300,easy
1282.000,366.500,106.400,26.040,1618.000,408.200,114.700,29.410,322.700,94.980,29.410,10.610,485.300,139.300,41.780,14.400,easy
1285.000,367.100,106.700,26.130,1616.000,409.500,115.000,29.450,323.700,95.100,29.510,10.630,487.500,140.300,41.990,14.460,easy
1288.000,368.100,107.100,26.210,1616.000,409.100,114.700,29.330,323.200,95.310,29.530,10.670,487.900,139.500,41.660,14.300,easy
1280.000,366.000,106.000,25.890,1606.000,407.400,114.400,29.300,322.100,94.250,29.190,10.500,481.400,138.000,41.260,14.150,easy
1277.000,364.700,105.800,25.870,1610.000,407.000,114.100,29.240,321.500,94.400,29.220,10.490,481.400,137.800,41.170,14.130,easy
1275.000,364.100,105.800,25.860,1608.000,407.400,114.200,29.290,320.100,94.010,29.200,10.490,481.000,138.100,41.290,14.180,easy
1277.000,364.700,106.100,25.910,1613.000,407.500,114.400,29.360,322.900,94.290,29.240,10.530,482.300,138.500,41.390,14.240,easy
1279.000,365.100,106.300,25.950,1614.000,408.700,114.600,29.360,320.800,94.210,29.200,10.530,483.600,138.700,41.470,14.300,easy
1281.000,365.800,106.500,26.040,1612.000,408.700,114.600,29.380,322.800,94.660,29.350,10.570,486.000,139.300,41.790,14.390,easy
1284.000,366.000,106.800,26.110,1614.000,408.300,114.900,29.390,323.300,94.760,29.430,10.580,488.100,140.300,41.900,14.490,easy
1287.000,367.000,107.400,26.240,1616.000,409.400,115.000,29.450,322.500,95.090,29.450,10.600,489.400,140.700,42.210,14.560,easy
1291.000,368.900,107.700,26.370,1621.000,410.100,115.000,29.420,326.300,95.480,29.620,10.670,493.200,141.200,42.260,14.520,easy
1287.000,366.300,106.700,26.070,1610.000,406.900,114.500,29.260,321.900,94.430,29.270,10.510,483.500,138.300,41.400,14.240,easy
1279.000,365.700,106.200,26.030,1608.000,407.200,114.400,29.250,321.500,94.110,29.200,10.450,481.200,138.200,41.250,14.180,easy
1277.000,365.000,105.900,25.880,1608.000,407.500,114.400,29.240,320.200,93.960,29.100,10.460,481.000,137.900,41.260,14.200,easy
1278.000,365.000,106.000,25.940,1613.000,408.000,114.400,29.250,324.300,94.070,29.130,10.450,482.800,138.400,41.410,14.250,easy
1279.000,365.000,106.600,26.010,1614.000,407.900,114.400,29.270,320.500,94.260,29.130,10.480,482.700,138.500,41.440,14.290,easy
1280.000,365.900,106.600,26.060,1613.000,408.500,114.500,29.270,323.400,94.270,29.210,10.500,484.600,139.400,41.680,14.380,easy
1283.000,367.300,107.200,26.160,1615.000,408.700,114.800,29.370,323.200,94.570,29.310,10.530,485.900,139.800,41.980,14.470,easy
1287.000,368.300,107.300,26.270,1617.000,409.000,115.000,29.390,322.900,95.120,29.370,10.570,488.600,140.600,42.240,14.560,easy
1291.000,368.800,107.300,26.340,1620.000,409.700,115.000,29.450,324.700,95.220,29.450,10.600,492.000,141.400,42.380,14.660,easy
1295.000,368.300,107.700,26.370,1612.000,408.000,114.400,29.210,326.300,95.170,29.310,10.500,485.400,139.100,41.660,14.330,easy
1281.000,366.000,106.500,26.090,1609.000,407.900,114.200,29.190,320.800,93.880,29.100,10.430,482.400,138.600,41.380,14.240,easy
1280.000,365.400,106.000,26.020,1607.000,407.000,114.200,29.200,321.300,93.940,29.080,10.400,480.900,138.400,41.380,14.200,easy
1278.000,365.000,106.200,25.960,1609.000,407.400,114.400,29.190,321.900,94.030,29.040,10.410,483.200,138.600,41.570,14.280,easy
1281.000,365.100,106.400,26.010,1609.000,406.900,114.300,29.190,321.400,94.130,29.130,10.440,482.100,138.900,41.550,14.330,easy
1282.000,365.600,106.400,26.070,1617.000,408.600,114.600,29.280,323.600,94.380,29.090,10.460,485.500,139.500,41.800,14.440,easy
1284.000,366.000,106.800,26.110,1614.000,408.800,114.700,29.300,321.700,94.360,29.210,10.490,486.100,140.100,42.030,14.500,easy
1288.000,368.600,107.300,26.320,1618.000,408.500,114.800,29.290,322.900,94.740,29.270,10.510,487.900,140.600,42.180,14.600,easy
1291.000,368.500,107.400,26.370,1618.000,409.900,114.900,29.370,322.700,95.020,29.370,10.560,491.300,141.300,42.470,14.710,easy
1295.000,369.900,108.000,26.400,1616.000,408.000,114.500,29.140,325.400,95.070,29.370,10.510,488.000,139.900,41.880,14.420,easy
1283.000,366.700,106.600,26.140,1610.000,407.400,114.300,29.180,322.500,94.030,28.990,10.390,483.000,138.600,41.560,14.350,easy
1282.000,366.300,106.500,26.020,1609.000,407.700,114.100,29.100,320.700,93.920,29.020,10.380,483.500,138.500,41.540,14.290,easy
1280.000,365.700,106.200,26.070,1608.000,407.300,114.300,29.140,321.400,93.890,28.960,10.400,483.800,139.100,41.690,14.370,easy
1282.000,366.100,106.500,26.140,1612.000,407.900,114.300,29.190,321.400,94.150,29.090,10.410,484.500,139.300,41.780,14.380,easy
1283.000,366.400,106.800,26.160,1615.000,407.500,114.300,29.180,324.600,93.990,29.110,10.450,486.500,139.900,41.970,14.490,easy
1287.000,367.900,107.100,26.290,1616.000,408.600,114.500,29.230,322.700,94.460,29.220,10.480,487.300,140.400,42.170,14.540,easy
1289.000,368.600,107.500,26.420,1614.000,409.100,114.800,29.270,324.200,94.550,29.230,10.500,490.200,141.000,42.350,14.670,easy
1294.000,369.700,107.700,26.440,1619.000,410.000,115.000,29.320,321.900,94.780,29.290,10.520,492.900,141.600,42.570,14.770,easy
1297.000,372.500,108.100,26.580,1621.000,408.800,114.800,29.230,326.400,95.320,29.410,10.550,492.600,141.600,42.430,14.600,easy
1288.000,368.800,107.100,26.250,1614.000,408.000,114.300,29.110,324.100,94.200,29.030,10.390,484.300,139.200,41.770,14.380,easy
1284.000,365.600,106.900,26.170,1610.000,407.200,114.300,29.050,321.100,93.870,28.950,10.370,485.100,139.100,41.640,14.380,easy
1282.000,365.400,106.800,26.030,1612.000,407.500,114.100,29.100,321.100,93.790,28.980,10.360,484.600,139.000,41.680,14.380,easy
1284.000,367.100,106.800,26.160,1615.000,407.400,114.000,29.110,323.000,93.890,28.980,10.370,486.000,139.600,41.790,14.430,easy
1284.000,366.600,106.700,26.190,1610.000,407.300,114.300,29.100,322.300,93.900,29.050,10.400,486.500,139.900,42.010,14.530,easy
1287.000,368.500,107.600,26.330,1612.000,408.300,114.400,29.220,323.600,94.250,29.070,10.440,488.500,140.500,42.150,14.610,easy
1290.000,369.400,107.700,26.380,1618.000,409.100,114.600,29.240,323.600,94.630,29.190,10.460,490.600,141.200,42.460,14.700,easy
1294.000,370.500,107.700,26.540,1619.000,409.200,114.700,29.240,325.000,94.730,29.270,10.510,491.800,141.800,42.690,14.780,easy
1297.000,371.000,108.100,26.550,1618.000,409.200,114.900,29.230,325.000,94.820,29.330,10.520,494.800,142.500,42.740,14.730,easy
1293.000,368.900,107.400,26.370,1611.000,406.900,114.200,29.070,323.500,94.200,29.050,10.400,485.800,139.700,41.960,14.480,easy
1285.000,367.800,106.700,26.170,1611.000,407.000,114.300,29.050,320.300,93.870,28.940,10.340,484.700,139.500,41.710,14.430,easy
1283.000,365.900,106.600,26.120,1613.000,407.200,114.200,29.030,322.500,93.820,28.940,10.330,484.400,139.000,41.790,14.460,easy
1283.000,365.700,106.700,26.190,1612.000,407.100,114.300,29.060,323.800,94.080,28.950,10.360,486.100,139.500,41.880,14.440,easy
1285.000,367.000,107.000,26.220,1612.000,408.000,114.100,29.140,325.100,94.230,28.960,10.380,486.700,139.900,42.060,14.560,easy
1287.000,367.200,107.400,26.360,1612.000,408.200,114.300,29.120,323.600,94.120,29.090,10.420,488.700,140.500,42.230,14.620,easy
1290.000,367.900,107.700,26.460,1613.000,408.200,114.800,29.210,324.200,94.330,29.180,10.450,490.800,141.200,42.430,14.750,easy
1294.000,369.200,108.200,26.470,1617.000,408.700,114.800,29.180,323.700,94.820,29.230,10.490,492.100,141.900,42.640,14.800,easy
1297.000,370.800,108.300,26.610,1619.000,410.000,115.000,29.300,323.900,95.010,29.310,10.490,495.500,142.600,42.920,14.900,easy
1300.000,370.800,108.100,26.560,1613.000,408.200,114.300,29.110,326.400,94.680,29.110,10.390,489.100,140.200,42.110,14.550,easy
1287.000,368.400,107.100,26.340,1613.000,408.600,114.200,29.090,321.400,93.900,28.960,10.340,485.500,139.400,41.990,14.450,easy
1286.000,367.500,106.900,26.230,1609.000,407.000,114.100,28.980,321.500,94.030,28.910,10.340,485.700,139.400,41.870,14.440,easy
1285.000,367.600,107.200,26.290,1612.000,407.100,114.200,29.100,321.000,93.970,28.990,10.360,487.000,139.700,41.990,14.510,easy
1287.000,368.200,107.300,26.300,1614.000,406.600,113.900,29.070,322.800,94.360,28.980,10.350,487.300,140.100,42.170,14.540,easy
1288.000,367.500,107.500,26.380,1615.000,408.000,114.600,29.140,322.100,93.990,29.010,10.400,487.800,140.500,42.290,14.610,easy
1291.000,369.200,107.900,26.450,1617.000,407.700,114.500,29.150,323.100,94.450,29.110,10.420,490.500,141.200,42.500,14.710,easy
1293.000,370.800,108.100,26.560,1619.000,408.600,114.800,29.180,323.500,94.480,29.190,10.440,491.700,141.700,42.670,14.840,easy
1297.000,370.700,108.500,26.650,1621.000,408.800,114.600,29.060,325.400,94.710,29.270,10.470,493.100,141.400,42.440,14.660,easy
1290.000,368.900,107.100,26.360,1611.000,407.200,113.900,28.990,323.900,93.720,28.940,10.350,485.700,139.400,41.850,14.490,easy
1286.000,365.400,107.000,26.240,1608.000,406.200,114.100,28.960,323.200,93.770,28.860,10.310,485.100,139.600,41.850,14.450,easy
1284.000,366.300,107.100,26.210,1611.000,406.300,113.900,28.960,321.700,93.770,28.900,10.330,485.400,139.700,41.880,14.510,easy
1287.000,369.100,107.000,26.310,1609.000,406.900,114.100,29.010,324.200,94.170,28.950,10.340,486.900,139.700,42.030,14.530,easy
1287.000,368.400,107.300,26.340,1611.000,407.300,114.300,29.070,323.000,93.900,28.980,10.370,487.200,140.300,42.120,14.610,easy
1290.000,368.400,107.900,26.400,1613.000,407.700,114.200,29.030,324.300,94.160,29.080,10.400,490.300,140.600,42.310,14.660,easy
1292.000,369.000,107.900,26.450,1616.000,407.700,114.600,29.060,322.900,94.510,29.130,10.410,490.700,141.500,42.660,14.760,easy
1295.000,370.300,108.000,26.590,1616.000,408.300,114.400,29.110,325.800,94.680,29.240,10.460,493.800,142.000,42.750,14.810,easy
1293.000,368.600,108.100,26.390,1607.000,407.200,113.900,29.010,322.300,94.050,28.940,10.350,485.600,139.400,41.860,14.490,easy
1285.000,366.300,106.800,26.250,1613.000,406.000,113.900,28.930,319.700,93.470,28.770,10.300,484.000,138.900,41.640,14.430,easy
1282.000,367.000,106.700,26.180,1606.000,405.600,113.800,28.900,324.400,93.650,28.730,10.280,483.900,139.100,41.690,14.400,easy
1282.000,365.900,106.800,26.220,1608.000,406.300,113.800,28.940,322.200,93.530,28.810,10.300,484.700,139.300,41.820,14.430,easy
1283.000,365.900,106.900,26.180,1607.000,406.000,113.800,28.970,322.000,93.530,28.860,10.320,484.700,139.300,41.870,14.490,easy
1285.000,367.300,107.200,26.290,1608.000,406.900,113.900,28.970,321.200,93.810,28.910,10.350,486.600,140.000,42.110,14.550,easy
1287.000,368.300,107.300,26.340,1611.000,407.400,114.100,29.060,322.300,94.170,29.040,10.380,487.800,140.600,42.270,14.650,easy
1290.000,368.400,107.300,26.510,1613.000,407.900,114.500,29.110,322.800,94.290,29.060,10.400,490.000,141.300,42.440,14.690,easy
1293.000,369.400,107.800,26.540,1611.000,407.500,114.300,29.050,326.200,94.380,29.180,10.440,491.500,141.200,42.270,14.590,easy
1287.000,367.000,106.900,26.220,1608.000,406.100,113.700,28.930,321.400,93.750,28.850,10.310,482.800,138.700,41.640,14.390,easy
1281.000,366.200,106.500,26.130,1606.000,406.200,113.500,28.850,320.300,93.440,28.760,10.280,481.700,138.400,41.560,14.320,easy
1279.000,365.700,106.200,26.030,1606.000,405.300,113.500,28.850,320.600,93.400,28.700,10.250,481.100,138.300,41.530,14.340,easy
1280.000,365.400,106.500,26.080,1602.000,405.100,113.700,28.910,320.600,93.470,28.760,10.290,482.800,138.600,41.660,14.390,easy
1280.000,365.900,106.600,26.110,1609.000,406.300,113.800,28.950,321.800,93.340,28.850,10.320,484.000,139.000,41.740,14.430,easy
1282.000,365.900,106.900,26.200,1606.000,406.800,114.000,28.940,319.800,93.680,28.870,10.330,485.100,139.300,41.970,14.480,easy
1285.000,366.800,107.200,26.280,1608.000,406.200,114.100,29.080,320.100,93.810,28.950,10.350,485.900,140.200,42.140,14.570,easy
1287.000,368.200,107.700,26.410,1616.000,407.200,114.400,29.060,323.000,93.950,29.040,10.400,489.100,140.700,42.280,14.700,easy
1292.000,367.600,107.800,26.380,1611.000,406.200,113.700,28.940,324.200,94.260,29.100,10.390,487.400,139.700,41.870,14.450,easy
1281.000,367.600,106.700,26.220,1604.000,405.500,113.800,28.910,320.400,93.460,28.710,10.270,480.400,138.300,41.520,14.330,easy
1278.000,365.700,106.200,26.080,1605.000,404.900,113.500,28.900,318.500,93.180,28.730,10.250,481.100,138.000,41.420,14.260,easy
1276.000,364.900,106.100,26.000,1604.000,405.600,113.800,28.940,317.900,93.160,28.690,10.270,481.000,138.100,41.560,14.340,easy
1277.000,364.300,106.400,26.100,1604.000,405.100,113.700,28.970,318.300,93.200,28.740,10.270,481.100,138.200,41.540,14.360,easy
1278.000,365.800,106.400,26.080,1608.000,405.700,113.800,28.980,321.500,93.440,28.780,10.310,482.700,139.100,41.800,14.430,easy
1281.000,364.700,106.900,26.150,1609.000,406.500,113.900,28.990,320.300,93.580,28.830,10.350,484.300,139.400,41.870,14.510,easy
1284.000,365.800,107.200,26.210,1610.000,406.500,114.000,29.030,322.300,93.840,28.920,10.370,485.400,139.800,42.060,14.590,easy
1286.000,367.000,107.300,26.300,1609.000,407.800,114.300,29.090,320.400,94.040,28.980,10.390,487.300,140.600,42.270,14.640,easy
1290.000,368.200,107.700,26.300,1611.000,406.000,113.800,28.940,323.000,94.110,28.940,10.370,485.800,139.100,41.710,14.400,easy
1279.000,365.400,106.500,26.080,1601.000,405.200,113.700,28.890,319.900,93.210,28.660,10.270,481.500,138.100,41.490,14.290,easy
1277.000,364.300,106.200,25.990,1605.000,405.200,113.600,28.890,318.900,93.090,28.710,10.250,479.400,138.100,41.420,14.250,easy
1276.000,364.300,106.300,26.000,1602.000,404.800,113.700,28.900,319.200,93.220,28.690,10.280,481.700,138.500,41.560,14.350,easy
1277.000,365.500,106.100,26.050,1607.000,405.800,113.700,28.950,320.000,93.260,28.730,10.290,481.400,138.500,41.590,14.340,easy
1280.000,365.400,106.500,26.080,1608.000,405.200,113.900,28.980,321.200,93.320,28.720,10.300,483.100,139.100,41.770,14.430,easy
1281.000,366.200,106.700,26.240,1609.000,405.800,113.900,29.030,321.200,93.550,28.910,10.340,484.400,139.800,41.960,14.470,easy
1284.000,367.100,106.900,26.270,1607.000,406.300,113.900,29.040,321.700,93.570,28.970,10.350,485.900,140.000,42.060,14.610,easy
1287.000,367.800,107.800,26.380,1613.000,407.200,114.100,29.080,320.900,93.970,29.000,10.390,488.300,140.700,42.340,14.650,easy
1288.000,368.300,107.500,26.220,1609.000,405.400,113.800,28.930,320.200,93.620,28.860,10.320,483.200,138.900,41.580,14.360,easy
1278.000,364.600,106.600,26.060,1603.000,405.500,113.600,28.920,318.800,93.240,28.670,10.260,480.600,138.100,41.420,14.270,easy
1276.000,364.400,106.100,25.950,1603.000,405.100,113.500,28.870,319.200,93.130,28.660,10.240,479.700,137.800,41.330,14.260,easy
1274.000,364.000,105.900,26.080,1602.000,404.800,113.500,28.860,318.400,93.040,28.620,10.260,481.300,138.100,41.440,14.290,easy
1276.000,363.900,106.000,26.040,1601.000,405.200,113.700,28.940,318.000,92.970,28.710,10.280,481.500,138.400,41.570,14.360,easy
1278.000,365.800,106.600,26.100,1601.000,405.000,113.500,28.970,321.000,93.660,28.780,10.310,482.600,138.800,41.690,14.440,easy
1281.000,366.300,106.500,26.160,1605.000,405.400,114.100,28.990,321.100,93.620,28.870,10.330,484.000,139.800,41.810,14.520,easy
1284.000,366.400,106.900,26.250,1611.000,406.600,114.100,29.020,322.500,93.670,28.940,10.360,486.400,140.000,42.090,14.580,easy
1286.000,368.100,107.100,26.310,1610.000,406.600,114.100,29.050,320.300,93.930,28.980,10.390,488.700,140.900,42.350,14.670,easy
1290.000,367.900,107.600,26.360,1609.000,405.900,113.800,29.010,322.800,93.860,29.010,10.370,485.700,139.300,41.840,14.420,easy
1279.000,365.300,106.700,26.120,1605.000,405.000,113.500,28.920,321.500,93.290,28.670,10.270,481.700,138.300,41.540,14.320,easy
1277.000,363.600,106.500,26.030,1605.000,404.800,113.400,28.920,320.500,93.360,28.660,10.240,480.900,138.000,41.360,14.280,easy
1275.000,364.600,106.300,26.050,1605.000,405.300,113.600,28.880,320.200,93.040,28.690,10.240,480.200,138.300,41.480,14.330,easy
1277.000,364.700,106.000,25.970,1604.000,404.700,113.700,28.850,318.500,93.210,28.660,10.260,482.100,138.300,41.570,14.350,easy
1278.000,363.400,106.300,26.060,1601.000,405.500,113.600,28.980,320.000,93.320,28.780,10.280,482.500,139.200,41.720,14.420,easy
1282.000,365.600,106.800,26.150,1607.000,405.700,113.900,29.000,320.600,93.520,28.830,10.320,484.200,139.500,41.900,14.540,easy
1284.000,366.300,107.000,26.280,1611.000,406.000,114.000,29.050,320.600,93.990,28.860,10.330,486.100,140.400,42.090,14.590,easy
1286.000,367.600,107.500,26.390,1611.000,406.300,114.100,29.090,319.300,94.230,28.940,10.380,488.000,140.700,42.390,14.680,easy
1291.000,368.200,107.800,26.510,1617.000,407.500,114.500,29.090,322.800,94.150,29.030,10.400,489.900,141.300,42.510,14.730,easy
1290.000,368.500,107.100,26.290,1604.000,407.000,113.800,28.990,322.700,94.020,28.890,10.310,484.400,139.300,41.730,14.440,easy
1281.000,366.500,106.700,26.170,1606.000,406.100,113.800,28.930,319.600,93.360,28.710,10.270,482.700,138.800,41.670,14.400,easy
1279.000,366.100,106.500,26.100,1604.000,405.400,113.700,28.930,320.900,93.560,28.680,10.260,482.300,138.800,41.710,14.400,easy
1280.000,365.000,106.800,26.170,1607.000,405.600,113.600,28.890,321.500,93.470,28.740,10.290,483.100,139.100,41.840,14.450,easy
1280.000,364.900,106.300,26.110,1603.000,404.900,113.700,28.890,321.300,93.240,28.710,10.270,483.700,138.800,41.660,14.390,bogus
1279.000,365.200,106.500,26.180,1606.000,405.500,113.600,28.880,319.000,93.210,28.750,10.270,483.400,139.000,41.690,14.440,bogus
1281.000,366.200,106.600,26.170,1608.000,406.100,113.600,28.910,322.100,93.450,28.820,10.290,484.500,139.200,41.770,14.450,bogus
1281.000,365.700,106.900,26.210,1609.000,405.500,114.000,28.900,320.400,93.640,28.880,10.310,485.600,139.600,42.000,14.520,bogus
1283.000,367.200,107.500,26.300,1613.000,406.500,113.800,28.930,322.400,94.010,28.870,10.350,487.400,140.400,42.230,14.590,bogus
1275.000,363.900,106.300,25.950,1608.000,405.800,113.900,28.860,325.900,95.000,29.430,10.580,487.800,140.600,42.400,14.740,hard
1278.000,364.800,106.500,26.110,1610.000,406.800,113.900,28.830,325.600,95.440,29.590,10.600,490.900,141.700,42.640,14.840,hard
1279.000,365.100,106.200,25.870,1603.000,404.300,113.300,28.710,325.700,95.030,29.400,10.510,484.000,139.200,41.910,14.490,hard
1267.000,361.200,105.700,25.790,1600.000,403.600,113.100,28.680,322.600,94.450,29.190,10.420,482.000,138.900,41.700,14.420,hard
1264.000,360.400,105.300,25.580,1600.000,403.100,113.200,28.630,322.200,94.230,29.130,10.450,481.600,138.500,41.700,14.430,hard
1265.000,360.200,105.100,25.650,1600.000,404.200,113.500,28.710,324.000,94.410,29.250,10.450,482.500,139.000,41.770,14.480,hard
1266.000,361.500,105.100,25.670,1600.000,404.600,113.400,28.750,325.800,94.670,29.280,10.460,484.000,139.300,41.890,14.550,hard
1267.000,362.300,105.600,25.740,1604.000,405.200,113.500,28.720,324.300,94.720,29.320,10.500,484.900,140.100,42.150,14.640,hard
1271.000,363.100,105.700,25.910,1607.000,405.000,113.800,28.850,325.300,95.010,29.380,10.540,486.600,140.600,42.380,14.710,hard
1275.000,363.400,106.600,26.000,1609.000,406.400,113.800,28.840,325.600,95.130,29.540,10.550,489.300,141.500,42.700,14.820,hard
1280.000,364.300,106.300,25.960,1602.000,405.400,113.200,28.770,325.500,95.330,29.470,10.530,485.500,139.800,41.990,14.520,hard
1267.000,361.100,105.500,25.680,1603.000,404.200,113.200,28.700,323.100,94.220,29.150,10.430,482.800,138.700,41.740,14.430,hard
1264.000,361.200,105.000,25.580,1601.000,404.000,113.100,28.700,323.500,94.410,29.170,10.410,481.600,138.800,41.700,14.390,hard
1261.000,359.500,104.800,25.560,1599.000,404.000,113.200,28.710,321.000,94.200,29.130,10.430,482.800,139.000,41.700,14.450,hard
1264.000,360.900,105.000,25.600,1601.000,404.300,113.700,28.740,322.100,94.490,29.220,10.430,482.200,139.000,41.870,14.510,hard
1266.000,360.700,105.100,25.640,1603.000,405.100,113.500,28.770,322.900,94.480,29.250,10.460,484.500,139.700,42.030,14.610,hard
1268.000,362.500,105.700,25.770,1598.000,405.800,113.500,28.860,322.200,94.840,29.330,10.480,485.800,140.100,42.170,14.670,hard
1273.000,363.500,106.000,25.910,1604.000,407.000,114.100,28.860,323.600,95.040,29.460,10.530,487.800,141.200,42.550,14.780,hard
1277.000,364.100,106.600,25.960,1605.000,405.800,113.700,28.830,324.500,95.020,29.490,10.550,488.700,140.600,42.250,14.620,hard
1267.000,361.900,104.700,25.690,1599.000,404.300,113.300,28.710,322.000,94.460,29.190,10.420,482.800,138.800,41.760,14.450,hard
1263.000,361.300,104.700,25.560,1600.000,403.800,113.100,28.690,321.400,94.420,29.170,10.410,481.100,138.400,41.710,14.420,hard
1262.000,359.700,104.900,25.530,1600.000,404.900,113.500,28.730,320.300,94.150,29.220,10.410,481.300,139.100,41.830,14.490,hard
1263.000,361.500,105.300,25.590,1598.000,404.200,113.300,28.800,322.800,94.540,29.200,10.430,483.300,139.200,41.900,14.470,hard
1264.000,360.600,105.200,25.640,1604.000,404.600,113.700,28.810,321.900,94.430,29.260,10.460,484.100,139.400,42.030,14.570,hard
1266.000,361.300,105.300,25.680,1606.000,405.200,113.600,28.860,323.100,94.920,29.360,10.480,485.500,140.300,42.240,14.660,hard
1270.000,362.800,105.800,25.840,1604.000,405.800,113.700,28.920,324.100,94.910,29.400,10.520,487.800,140.800,42.460,14.760,hard
1273.000,363.900,106.000,25.850,1607.000,405.500,113.500,28.800,325.300,95.310,29.490,10.510,486.900,139.900,42.030,14.550,hard
1263.000,359.400,105.100,25.560,1598.000,404.100,113.300,28.720,320.800,94.470,29.170,10.390,481.600,138.600,41.750,14.410,hard
1260.000,359.400,104.400,25.440,1597.000,404.200,113.700,28.730,321.200,94.390,29.130,10.370,480.600,138.300,41.590,14.390,hard
1260.000,358.500,104.300,25.420,1600.000,404.400,113.300,28.780,319.600,94.140,29.090,10.400,481.700,138.900,41.870,14.430,hard
1260.000,359.600,104.700,25.500,1600.000,405.300,113.300,28.800,322.700,94.190,29.140,10.430,482.400,138.700,41.770,14.450,hard
1262.000,360.000,105.000,25.590,1602.000,404.600,113.800,28.840,322.500,94.280,29.250,10.450,483.100,139.500,42.000,14.570,hard
1265.000,361.100,105.200,25.700,1603.000,405.900,113.900,28.880,321.500,94.820,29.320,10.480,485.000,139.900,42.230,14.650,hard
1268.000,363.100,105.600,25.740,1609.000,406.100,114.000,28.930,323.700,95.100,29.340,10.510,487.600,140.700,42.370,14.750,hard
1274.000,364.300,105.900,25.740,1604.000,405.600,113.600,28.830,325.100,95.050,29.430,10.500,486.000,139.800,41.980,14.520,hard
1262.000,359.100,104.600,25.470,1599.000,404.400,113.300,28.780,322.700,94.180,29.080,10.400,480.700,138.400,41.530,14.390,hard
1258.000,358.400,104.400,25.380,1600.000,404.400,113.400,28.740,321.800,93.970,29.060,10.380,479.700,137.900,41.470,14.310,hard
1256.000,358.500,104.400,25.340,1599.000,404.000,113.400,28.760,320.600,94.070,29.010,10.380,480.000,138.000,41.510,14.360,hard
1258.000,359.300,104.500,25.400,1603.000,404.000,113.500,28.800,321.900,94.230,29.160,10.380,480.800,138.200,41.600,14.400,hard
1258.000,359.100,104.400,25.460,1600.000,404.800,113.400,28.830,322.400,94.310,29.150,10.440,482.100,138.600,41.790,14.490,hard
1262.000,360.100,104.900,25.590,1602.000,405.700,113.800,28.870,322.300,94.420,29.240,10.460,482.500,139.400,41.920,14.540,hard
1265.000,361.600,105.100,25.660,1605.000,406.100,114.000,28.990,324.200,94.540,29.270,10.520,485.300,140.100,42.120,14.680,hard
1268.000,362.300,105.500,25.650,1605.000,404.900,113.700,28.770,322.200,94.870,29.330,10.490,483.900,139.000,41.720,14.410,hard
1258.000,358.700,104.100,25.390,1595.000,403.800,113.300,28.730,321.500,94.180,29.050,10.370,478.500,137.700,41.360,14.300,hard
1254.000,356.700,104.000,25.300,1595.000,404.100,113.200,28.740,322.000,93.900,28.990,10.350,478.200,137.300,41.240,14.210,hard
1252.000,357.100,103.900,25.260,1598.000,403.900,113.200,28.790,320.200,93.930,29.030,10.380,478.200,137.700,41.350,14.320,hard
1255.000,358.800,104.100,25.220,1597.000,404.100,113.400,28.780,321.600,94.080,29.030,10.390,478.200,137.700,41.380,14.310,hard
1256.000,358.200,104.400,25.300,1604.000,404.400,113.600,28.850,321.800,94.280,29.150,10.430,480.300,138.400,41.520,14.410,hard
1258.000,358.200,104.600,25.440,1602.000,405.300,113.500,28.870,323.300,94.500,29.170,10.470,481.200,138.800,41.680,14.440,hard
1261.000,359.200,105.200,25.530,1602.000,406.200,113.700,28.950,320.100,94.690,29.300,10.500,482.400,139.500,41.940,14.570,hard
1265.000,360.200,105.100,25.550,1600.000,405.400,113.500,28.840,324.600,94.690,29.330,10.480,481.200,138.400,41.570,14.350,hard
1256.000,358.400,104.200,25.270,1596.000,404.000,113.300,28.740,322.200,94.050,29.090,10.410,477.900,137.300,41.220,14.260,hard
1252.000,356.000,103.800,25.180,1597.000,403.700,113.300,28.740,320.100,94.020,29.060,10.390,476.600,137.100,41.150,14.200,hard
1251.000,357.000,103.500,25.190,1597.000,404.000,113.400,28.740,320.200,93.820,29.060,10.420,477.000,137.600,41.240,14.240,hard
1253.000,357.500,104.300,25.290,1598.000,404.100,113.400,28.790,320.800,94.040,29.140,10.430,477.700,137.400,41.240,14.270,hard
1253.000,356.600,103.900,25.290,1598.000,404.800,113.700,28.850,320.700,94.200,29.190,10.460,478.700,138.100,41.500,14.350,hard
1256.000,358.600,104.000,25.370,1601.000,405.200,113.700,28.940,320.800,94.430,29.280,10.490,480.000,138.600,41.650,14.430,hard
1260.000,360.000,104.700,25.540,1603.000,405.300,114.000,28.880,320.800,94.500,29.370,10.530,482.400,139.500,41.890,14.540,hard
1262.000,360.200,104.600,25.380,1599.000,404.400,113.300,28.770,323.800,94.720,29.220,10.480,478.500,137.700,41.350,14.250,hard
1252.000,357.500,103.700,25.130,1597.000,403.800,113.300,28.780,320.600,94.030,29.020,10.430,476.000,137.100,41.100,14.210,hard
1250.000,357.100,103.600,25.070,1595.000,404.100,113.200,28.760,321.700,93.950,29.050,10.400,475.700,136.800,40.990,14.180,hard
1250.000,354.700,103.600,25.120,1597.000,403.600,113.300,28.780,320.200,93.680,29.130,10.440,476.800,137.200,41.110,14.220,hard
1251.000,357.400,103.800,25.200,1596.000,403.800,113.500,28.880,320.100,94.170,29.140,10.450,476.200,137.300,41.170,14.260,hard
1253.000,357.500,103.400,25.280,1599.000,404.500,113.600,28.870,321.500,94.120,29.220,10.480,478.600,137.900,41.400,14.310,hard
1256.000,357.800,104.200,25.350,1599.000,405.000,113.600,28.890,320.200,94.510,29.280,10.540,479.800,138.500,41.650,14.440,hard
1258.000,358.800,104.600,25.410,1604.000,405.300,113.900,28.920,323.800,94.840,29.340,10.560,482.100,139.200,41.770,14.530,hard
1261.000,358.800,104.400,25.350,1602.000,404.700,113.300,28.820,322.900,94.670,29.320,10.510,478.300,137.700,41.280,14.250,hard
1250.000,356.900,103.400,25.100,1599.000,403.500,113.100,28.780,321.500,94.170,29.110,10.430,474.900,136.600,41.060,14.130,hard
1248.000,354.600,103.100,25.030,1598.000,403.800,113.400,28.800,321.400,93.970,29.080,10.410,474.400,136.600,40.900,14.070,hard
1247.000,355.400,103.400,25.040,1597.000,404.100,113.400,28.790,321.100,93.810,29.150,10.430,476.000,137.000,41.050,14.160,hard
1248.000,354.700,103.200,25.070,1596.000,403.600,113.200,28.810,320.200,94.060,29.190,10.470,475.900,137.000,41.060,14.190,hard
1249.000,356.000,103.900,25.150,1597.000,404.900,113.500,28.820,321.100,94.130,29.230,10.480,477.400,137.500,41.320,14.300,hard
1253.000,356.600,104.100,25.220,1599.000,404.300,113.700,28.900,321.800,94.500,29.290,10.530,478.300,138.100,41.460,14.360,hard
1256.000,357.700,104.300,25.310,1602.000,405.500,113.900,28.970,323.200,94.700,29.350,10.550,480.500,139.000,41.700,14.460,hard
1260.000,359.800,104.800,25.360,1598.000,404.700,113.600,28.830,323.300,94.850,29.390,10.520,478.500,137.700,41.180,14.220,hard
1251.000,356.100,103.400,25.110,1597.000,404.500,113.300,28.830,321.900,94.170,29.090,10.450,474.300,136.700,41.000,14.130,hard
1248.000,356.300,103.000,24.990,1592.000,403.900,113.200,28.790,320.000,93.860,29.120,10.450,473.600,136.200,40.890,14.080,hard
1247.000,354.200,103.100,25.010,1594.000,403.100,113.500,28.820,322.200,93.990,29.120,10.470,474.700,136.700,41.040,14.170,hard
1249.000,355.700,103.200,25.010,1597.000,404.500,113.500,28.860,320.900,94.170,29.190,10.470,475.000,136.600,41.050,14.190,hard
1250.000,356.900,103.500,25.140,1599.000,404.200,113.700,28.910,319.000,94.260,29.250,10.480,476.700,137.600,41.270,14.260,hard
1253.000,357.000,103.800,25.180,1600.000,405.300,113.600,28.920,319.500,94.430,29.320,10.540,478.300,137.800,41.480,14.350,hard
1256.000,357.500,104.000,25.240,1606.000,406.300,114.000,29.000,323.500,94.750,29.450,10.560,480.300,138.500,41.550,14.400,hard
1258.000,358.900,104.100,25.200,1600.000,404.600,113.400,28.840,322.800,94.570,29.210,10.500,475.900,136.900,41.030,14.140,hard
1249.000,355.800,103.400,25.010,1597.000,404.300,113.400,28.840,319.900,94.210,29.110,10.450,475.300,136.400,40.980,14.090,hard
1246.000,354.700,102.900,24.990,1597.000,403.600,113.400,28.780,320.800,94.040,29.220,10.450,472.900,136.200,40.880,14.090,hard
1247.000,355.600,103.500,25.040,1599.000,404.500,113.400,28.900,319.600,94.330,29.200,10.470,474.800,136.600,40.960,14.160,hard
1248.000,354.900,103.100,25.010,1603.000,404.100,113.800,28.890,319.600,94.240,29.190,10.510,474.900,137.000,41.070,14.140,hard
1250.000,355.200,103.200,25.090,1600.000,405.200,113.900,28.930,322.600,94.260,29.330,10.540,477.400,137.600,41.310,14.270,hard
1253.000,357.700,103.600,25.230,1602.000,405.300,113.900,28.990,321.800,94.540,29.350,10.570,478.100,138.200,41.600,14.350,hard
1257.000,357.300,104.200,25.360,1605.000,406.300,114.000,29.000,323.500,94.850,29.460,10.590,480.300,138.700,41.610,14.340,hard
1255.000,357.800,103.300,25.120,1599.000,404.200,113.700,28.870,321.800,94.440,29.250,10.510,474.600,136.800,41.010,14.120,hard
1248.000,354.500,103.200,24.960,1598.000,403.900,113.500,28.850,319.700,94.210,29.180,10.460,473.400,136.400,40.820,14.040,hard
1246.000,354.400,102.900,24.880,1599.000,403.500,113.400,28.820,320.600,94.220,29.180,10.460,473.600,136.200,40.760,14.070,hard
1245.000,353.900,103.100,24.940,1599.000,404.700,113.500,28.920,319.800,94.330,29.270,10.510,473.500,136.500,40.890,14.110,hard
1246.000,355.100,103.300,24.990,1600.000,404.500,113.600,28.940,319.600,94.200,29.220,10.530,474.800,136.900,40.980,14.180,hard
1249.000,356.100,103.400,25.070,1603.000,405.600,113.900,28.960,321.000,94.560,29.340,10.560,476.100,137.300,41.260,14.280,hard
1253.000,356.400,103.500,25.160,1602.000,406.000,113.900,29.030,322.400,94.860,29.400,10.580,478.300,137.900,41.380,14.330,hard
1256.000,357.800,104.200,25.320,1608.000,406.000,114.300,29.010,321.300,94.980,29.490,10.620,479.900,138.400,41.530,14.350,hard
1254.000,357.600,103.400,25.050,1599.000,405.200,113.500,28.880,322.800,94.550,29.300,10.530,474.300,136.700,40.980,14.090,hard
1247.000,354.900,103.000,25.000,1596.000,404.600,113.400,28.850,320.600,94.400,29.200,10.500,473.300,136.400,40.640,14.050,hard
1245.000,355.100,102.700,24.820,1597.000,403.400,113.700,28.850,321.500,94.050,29.150,10.460,472.600,136.000,40.760,14.070,hard
1246.000,354.000,102.900,24.910,1604.000,404.100,113.500,28.900,321.600,94.220,29.200,10.520,474.100,136.400,40.850,14.110,hard
1246.000,354.200,102.800,24.920,1603.000,404.500,113.500,29.000,319.300,94.250,29.260,10.520,473.600,136.800,41.010,14.140,hard
1249.000,355.500,103.300,25.000,1604.000,405.100,113.700,29.030,322.000,94.650,29.300,10.570,476.300,137.200,41.160,14.250,hard
1251.000,355.300,103.500,25.100,1603.000,406.000,114.100,29.040,322.300,94.510,29.410,10.590,476.600,137.700,41.280,14.320,hard
1253.000,357.000,103.800,25.160,1603.000,406.100,114.100,29.060,323.400,95.090,29.470,10.620,479.200,138.300,41.560,14.360,hard
1258.000,358.300,104.100,25.270,1608.000,406.900,114.000,29.010,322.700,95.130,29.490,10.650,480.800,137.900,41.350,14.260,hard
1251.000,355.000,103.600,25.000,1601.000,404.600,113.600,28.930,321.800,94.420,29.310,10.520,474.800,136.500,40.960,14.090,hard
1246.000,354.200,102.800,24.930,1602.000,404.500,113.700,28.920,318.800,94.550,29.200,10.470,472.600,136.100,40.770,14.030,hard
1244.000,353.200,102.500,24.840,1603.000,404.600,113.400,28.960,320.200,94.130,29.230,10.500,473.400,136.600,40.880,14.110,hard
1246.000,354.300,103.100,24.940,1602.000,404.400,113.600,28.990,322.600,94.380,29.210,10.530,474.000,136.500,40.870,14.150,hard
1248.000,355.900,102.900,25.050,1606.000,405.400,113.800,29.040,320.300,94.390,29.320,10.540,474.900,137.100,41.170,14.210,hard
1250.000,356.100,103.100,25.060,1606.000,405.500,113.900,29.040,323.200,94.720,29.320,10.600,477.600,137.500,41.300,14.290,hard
1254.000,357.400,103.600,25.130,1607.000,406.500,114.100,29.110,321.300,94.910,29.470,10.610,478.200,138.100,41.600,14.360,hard
1257.000,357.700,104.200,25.330,1609.000,406.700,114.300,29.170,322.600,95.050,29.520,10.650,480.900,138.900,41.710,14.490,hard
1261.000,358.900,104.300,25.270,1608.000,406.600,114.100,28.980,323.500,95.230,29.580,10.630,478.800,137.700,41.290,14.230,hard
1250.000,355.700,103.400,25.010,1601.000,405.000,113.800,29.030,323.300,94.440,29.330,10.530,475.000,136.800,40.940,14.150,hard
1248.000,355.300,103.000,24.950,1600.000,405.100,113.600,28.970,320.400,94.560,29.230,10.520,474.700,136.700,40.880,14.100,hard
1247.000,354.800,103.100,24.960,1602.000,404.700,113.700,28.960,321.400,94.280,29.260,10.530,474.300,136.900,41.100,14.170,hard
1249.000,355.500,102.900,25.020,1600.000,405.500,113.600,29.020,322.000,94.460,29.320,10.540,475.300,137.200,41.130,14.200,hard
1251.000,356.100,103.400,25.030,1606.000,406.200,113.900,29.040,320.800,94.660,29.320,10.570,477.000,137.600,41.250,14.250,hard
1253.000,356.900,103.400,25.140,1607.000,406.300,114.000,29.050,323.300,94.810,29.380,10.580,478.600,138.100,41.380,14.310,hard
1256.000,358.100,103.900,25.300,1608.000,407.300,114.300,29.160,323.900,95.170,29.470,10.600,480.400,138.500,41.750,14.450,hard
1261.000,359.000,104.400,25.350,1612.000,407.200,114.300,29.120,322.600,95.270,29.560,10.650,481.800,138.900,41.590,14.350,hard
1256.000,357.600,103.500,25.080,1603.000,405.800,113.700,29.030,321.300,94.490,29.320,10.520,476.100,136.800,41.080,14.160,hard
1251.000,355.500,102.900,24.960,1599.000,406.200,113.800,28.980,322.800,94.570,29.260,10.520,474.800,136.800,40.890,14.110,hard
1249.000,355.800,102.800,24.980,1604.000,405.100,113.800,29.020,321.400,94.390,29.280,10.530,475.100,137.100,41.110,14.160,hard
1251.000,356.100,103.200,25.020,1611.000,405.900,113.800,29.050,319.800,94.650,29.320,10.540,476.600,137.000,41.170,14.210,hard
1253.000,355.600,103.900,25.090,1609.000,405.500,113.900,29.060,322.900,94.910,29.400,10.580,478.100,137.700,41.240,14.280,hard
1256.000,356.000,103.600,25.230,1610.000,407.100,114.500,29.080,322.700,95.120,29.470,10.620,479.900,138.200,41.480,14.390,hard
1259.000,356.800,104.000,25.240,1610.000,408.200,114.200,29.200,324.100,95.210,29.530,10.640,480.800,138.900,41.640,14.460,hard
1263.000,358.500,104.400,25.380,1613.000,408.400,114.600,29.180,323.900,95.320,29.560,10.680,483.200,139.500,41.900,14.540,hard
1267.000,359.500,104.900,25.460,1609.000,407.900,114.300,29.110,323.900,95.430,29.620,10.670,481.500,138.500,41.440,14.320,hard
1257.000,356.800,103.800,25.170,1612.000,406.500,113.900,29.050,323.100,94.810,29.280,10.550,476.500,137.400,41.210,14.200,hard
1255.000,355.500,103.100,25.030,1608.000,406.400,113.900,29.010,321.800,94.460,29.320,10.530,476.000,136.900,41.040,14.150,hard
1253.000,356.600,103.200,25.040,1609.000,406.500,114.100,29.100,322.400,94.330,29.320,10.540,476.800,137.800,41.230,14.210,hard
1255.000,356.900,103.700,25.050,1609.000,406.700,114.000,29.070,323.200,95.000,29.400,10.580,477.200,137.600,41.260,14.250,hard
1256.000,356.600,103.800,25.090,1607.000,406.600,114.200,29.170,322.500,95.020,29.470,10.590,479.100,138.000,41.370,14.320,hard
1259.000,357.800,104.300,25.270,1613.000,408.400,114.600,29.210,321.700,95.430,29.530,10.650,481.400,138.400,41.690,14.380,hard
1263.000,358.200,104.200,25.330,1616.000,408.400,114.600,29.170,324.200,95.360,29.590,10.660,482.300,139.100,41.800,14.500,hard
1266.000,359.800,104.500,25.450,1618.000,409.000,114.800,29.240,328.100,95.670,29.630,10.690,484.900,139.800,42.060,14.610,hard
1271.000,360.600,105.300,25.470,1617.000,408.600,114.400,29.120,327.100,95.880,29.700,10.680,482.700,138.700,41.580,14.340,hard
1258.000,356.900,104.000,25.240,1607.000,407.200,114.200,29.090,324.000,94.780,29.430,10.570,478.700,137.500,41.190,14.230,hard
1256.000,356.200,103.300,25.110,1610.000,406.800,113.900,28.980,320.800,94.930,29.340,10.540,477.400,137.400,41.130,14.220,hard
1254.000,356.100,103.200,25.070,1611.000,407.000,114.200,29.030,323.100,95.040,29.390,10.560,478.000,137.600,41.190,14.270,hard
1256.000,355.100,103.500,25.100,1609.000,406.600,114.300,29.110,323.800,95.020,29.390,10.590,478.500,137.800,41.210,14.240,hard
1258.000,357.700,103.500,25.180,1616.000,408.700,114.500,29.130,322.500,95.120,29.480,10.600,480.700,138.100,41.430,14.350,hard
1260.000,359.100,104.100,25.240,1614.000,408.900,114.600,29.190,324.800,95.500,29.550,10.660,481.200,138.700,41.670,14.440,hard
1265.000,359.700,104.600,25.270,1617.000,409.500,114.700,29.210,325.700,95.550,29.590,10.670,483.800,139.600,41.900,14.500,hard
1267.000,359.600,104.900,25.450,1617.000,409.600,114.700,29.270,327.400,95.800,29.700,10.710,485.300,140.200,42.060,14.630,hard
1272.000,361.000,105.000,25.550,1619.000,409.200,114.600,29.180,326.200,95.970,29.780,10.680,483.400,139.300,41.710,14.390,hard
1260.000,357.800,104.100,25.170,1608.000,407.800,114.300,29.010,322.700,95.290,29.450,10.590,479.300,138.100,41.300,14.250,hard
1257.000,356.800,103.800,25.160,1610.000,406.600,114.000,29.040,323.900,94.980,29.370,10.590,479.000,137.900,41.190,14.240,hard
1256.000,356.400,103.700,25.080,1608.000,407.200,114.000,29.070,322.800,94.990,29.460,10.600,479.200,138.000,41.320,14.280,hard
1257.000,357.700,103.800,25.100,1610.000,407.200,114.200,29.130,323.200,95.160,29.500,10.620,479.000,138.300,41.400,14.330,hard
1259.000,359.800,103.700,25.210,1612.000,408.200,114.500,29.100,324.900,95.380,29.520,10.620,480.500,138.700,41.560,14.390,hard
1262.000,359.300,104.300,25.290,1613.000,408.500,114.600,29.140,322.700,95.540,29.550,10.650,481.900,139.100,41.810,14.430,hard
1265.000,359.900,104.500,25.360,1618.000,409.600,114.700,29.230,324.300,95.770,29.680,10.680,484.300,139.900,41.960,14.550,hard
1269.000,360.100,105.000,25.490,1619.000,409.900,114.900,29.330,326.600,96.030,29.820,10.730,486.700,140.500,42.170,14.630,hard
1270.000,361.100,104.500,25.320,1616.000,407.600,114.200,29.110,323.900,95.610,29.590,10.630,480.900,138.300,41.500,14.310,hard
1259.000,358.400,104.100,25.150,1612.000,407.700,114.200,29.000,323.100,94.910,29.470,10.580,479.100,137.700,41.210,14.230,hard
1256.000,356.900,103.700,25.030,1611.000,407.800,114.000,29.040,324.400,94.990,29.360,10.570,478.100,137.600,41.250,14.240,hard
1256.000,357.400,104.000,25.110,1613.000,407.200,114.400,29.100,321.700,95.150,29.530,10.590,479.500,138.200,41.330,14.270,hard
1257.000,357.100,103.700,25.110,1611.000,407.800,114.200,29.090,321.600,95.110,29.550,10.600,479.900,138.300,41.440,14.320,hard
1259.000,357.400,103.900,25.260,1615.000,408.500,114.400,29.160,324.600,95.380,29.560,10.640,481.800,139.200,41.520,14.400,hard
1262.000,359.000,104.300,25.300,1613.000,408.700,114.700,29.170,328.000,95.620,29.650,10.690,483.600,139.800,41.840,14.520,hard
1266.000,361.200,104.500,25.450,1614.000,409.500,114.800,29.210,324.500,95.900,29.690,10.700,485.700,140.300,42.060,14.630,hard
1271.000,361.200,104.900,25.560,1621.000,409.200,115.000,29.230,324.400,96.060,29.840,10.730,486.500,140.400,41.990,14.500,hard
1264.000,358.400,104.300,25.300,1610.000,407.500,114.200,29.050,325.200,95.420,29.560,10.620,479.500,138.100,41.230,14.290,hard
1257.000,357.700,104.000,25.030,1609.000,406.800,113.900,29.030,325.300,95.040,29.410,10.580,478.600,137.500,41.110,14.200,hard
1253.000,356.800,103.000,25.020,1610.000,407.200,114.000,29.030,322.900,95.080,29.410,10.560,478.200,137.600,41.130,14.220,hard
1254.000,357.600,103.700,25.120,1609.000,408.200,114.300,28.990,322.900,95.400,29.450,10.590,478.800,137.900,41.270,14.250,hard
1255.000,355.900,103.500,25.140,1614.000,408.300,114.100,29.110,324.300,95.140,29.480,10.610,480.500,138.500,41.370,14.290,hard
1258.000,357.700,103.800,25.180,1612.000,407.800,114.200,29.110,324.400,95.520,29.530,10.650,480.500,138.700,41.480,14.380,hard
1260.000,358.400,104.100,25.290,1612.000,409.300,114.500,29.170,326.800,96.050,29.570,10.680,483.400,139.200,41.780,14.460,hard
1264.000,359.400,104.400,25.370,1620.000,408.600,114.500,29.190,326.400,95.820,29.730,10.700,485.500,140.300,41.900,14.540,hard
1268.000,361.100,104.600,25.480,1620.000,410.300,114.900,29.260,327.300,96.180,29.820,10.770,487.500,140.600,42.230,14.610,hard
1272.000,361.100,104.400,25.320,1613.000,407.900,114.400,29.070,327.400,95.980,29.630,10.660,480.400,138.200,41.360,14.280,hard
1256.000,356.800,103.600,25.080,1610.000,407.500,114.000,29.020,324.100,95.000,29.480,10.580,479.200,138.100,41.140,14.210,hard
1254.000,356.400,103.400,24.980,1606.000,406.200,113.900,28.960,324.000,95.010,29.420,10.570,478.000,137.200,40.990,14.180,hard
1253.000,357.100,103.300,25.000,1608.000,407.100,113.900,29.000,325.900,95.140,29.460,10.600,478.800,137.900,41.230,14.220,hard
1254.000,355.400,103.300,25.010,1613.000,407.000,114.200,29.060,325.300,95.290,29.510,10.620,478.900,138.300,41.260,14.230,hard
1256.000,357.700,103.300,25.090,1613.000,407.300,114.200,29.050,325.800,95.710,29.560,10.640,480.800,138.300,41.480,14.320,hard
1259.000,357.600,103.900,25.170,1614.000,408.500,114.600,29.140,325.400,95.650,29.680,10.700,482.100,139.200,41.680,14.440,hard
1264.000,358.800,104.100,25.300,1617.000,408.700,114.700,29.230,325.100,95.860,29.720,10.710,484.000,139.600,41.940,14.490,hard
1267.000,359.700,104.600,25.410,1622.000,409.900,114.900,29.210,328.300,96.030,29.820,10.750,486.900,140.400,42.160,14.610,hard
1271.000,360.500,104.900,25.370,1613.000,408.400,114.200,29.080,329.300,96.350,29.840,10.710,483.000,138.600,41.370,14.300,hard
1257.000,356.100,103.600,25.080,1606.000,407.600,114.000,29.000,324.000,95.250,29.530,10.610,479.200,137.900,41.130,14.200,hard
1254.000,356.200,103.200,25.020,1607.000,407.500,114.100,28.970,326.300,95.130,29.440,10.610,477.900,137.700,41.080,14.180,hard
1253.000,355.900,103.500,24.990,1609.000,407.400,114.200,28.980,326.600,95.110,29.520,10.620,479.200,138.000,41.120,14.210,hard
1254.000,356.400,103.300,25.040,1612.000,406.800,114.200,29.070,325.700,95.320,29.500,10.640,479.900,138.000,41.270,14.270,hard
1256.000,357.000,103.500,25.080,1611.000,407.700,114.300,29.070,323.700,95.650,29.600,10.640,480.600,138.700,41.470,14.320,hard
1259.000,358.800,104.000,25.150,1615.000,408.600,114.400,29.090,328.200,95.450,29.700,10.690,482.500,139.200,41.580,14.410,hard
1263.000,359.100,104.400,25.290,1619.000,408.700,115.000,29.240,328.300,96.080,29.730,10.720,484.300,140.000,41.800,14.500,hard
1268.000,360.900,104.900,25.420,1622.000,409.800,114.800,29.160,326.200,96.090,29.890,10.770,487.300,140.400,42.070,14.500,hard
1266.000,358.000,104.100,25.180,1611.000,408.100,114.300,29.040,328.600,95.890,29.670,10.630,480.400,137.900,41.190,14.200,hard
1254.000,356.800,103.500,24.970,1611.000,406.700,114.200,28.970,324.600,95.500,29.460,10.590,478.300,137.700,41.010,14.170,hard
1252.000,355.400,102.900,24.920,1611.000,407.100,114.000,28.990,323.800,95.250,29.490,10.580,477.000,137.600,40.970,14.150,hard
1252.000,356.400,103.400,24.920,1610.000,407.000,114.200,29.060,324.700,95.440,29.540,10.630,479.000,137.700,41.090,14.190,hard
1254.000,355.800,103.100,24.980,1605.000,407.800,114.100,29.050,324.800,95.510,29.550,10.640,479.000,138.100,41.140,14.260,hard
1256.000,356.800,103.800,25.020,1612.000,407.700,114.300,29.070,325.700,95.440,29.640,10.690,480.800,138.600,41.450,14.310,hard
1259.000,357.900,103.700,25.150,1616.000,408.500,114.700,29.120,327.600,95.770,29.770,10.710,483.800,139.400,41.660,14.430,hard
1263.000,359.600,104.500,25.320,1615.000,408.900,114.700,29.210,327.900,96.380,29.770,10.750,485.200,139.600,41.850,14.470,hard
1267.000,360.400,104.400,25.400,1618.000,409.700,114.900,29.170,326.400,96.450,29.910,10.790,487.200,140.400,41.990,14.480,hard
1264.000,358.200,103.900,25.090,1610.000,407.700,114.300,29.040,326.700,95.980,29.630,10.660,480.000,137.700,41.140,14.170,hard
1253.000,356.000,102.900,24.920,1607.000,407.000,113.900,28.930,325.900,95.260,29.510,10.620,477.800,137.100,40.880,14.100,hard
1250.000,355.200,102.800,24.850,1609.000,405.800,113.900,28.950,324.800,95.530,29.430,10.590,477.000,137.000,40.840,14.080,hard
1250.000,355.300,102.800,24.860,1607.000,407.500,114.000,28.990,326.300,95.300,29.550,10.620,478.500,137.300,40.930,14.110,hard
1250.000,354.300,103.200,24.890,1607.000,407.200,114.100,29.050,323.700,95.420,29.480,10.640,479.000,137.600,41.100,14.170,hard
1253.000,356.100,103.200,24.970,1612.000,407.900,114.500,29.050,324.500,95.570,29.630,10.680,479.900,138.000,41.220,14.290,hard
1256.000,356.300,103.500,25.060,1616.000,408.000,114.600,29.170,324.400,95.690,29.690,10.710,482.600,138.700,41.470,14.310,hard
1260.000,356.800,104.000,25.200,1615.000,409.300,114.500,29.190,324.600,95.980,29.840,10.740,483.800,139.500,41.720,14.430,hard
1263.000,359.100,104.300,25.240,1619.000,409.800,114.800,29.160,327.400,96.400,29.880,10.780,486.200,139.900,41.850,14.390,hard
1261.000,358.700,103.500,25.000,1609.000,407.100,114.200,28.990,324.900,95.970,29.640,10.650,478.100,137.400,40.910,14.090,hard
1251.000,355.900,102.800,24.820,1607.000,406.700,114.100,29.000,324.300,95.160,29.440,10.620,477.400,136.900,40.770,14.010,hard
1248.000,353.900,102.500,24.700,1606.000,405.900,114.000,28.940,325.600,95.310,29.460,10.580,476.400,136.600,40.720,14.010,hard
1248.000,354.200,102.500,24.740,1610.000,406.400,114.000,29.060,324.000,95.290,29.540,10.640,477.000,136.700,40.900,14.060,hard
1249.000,353.700,102.600,24.730,1604.000,406.900,114.000,29.020,326.100,95.390,29.530,10.650,478.000,137.300,40.980,14.090,hard
1250.000,354.100,103.100,24.890,1607.000,407.500,114.100,29.110,324.000,95.540,29.660,10.670,479.300,137.600,41.060,14.210,hard
1253.000,354.500,103.300,24.960,1612.000,408.200,114.400,29.130,327.000,95.720,29.740,10.720,481.500,138.300,41.340,14.290,hard
1258.000,356.300,103.500,25.040,1616.000,409.000,114.600,29.180,326.300,96.000,29.850,10.740,482.900,139.100,41.510,14.360,hard
1263.000,358.200,104.100,25.160,1615.000,409.100,114.700,29.230,325.800,96.560,29.910,10.800,484.500,139.800,41.770,14.420,hard
1260.000,357.100,103.300,24.960,1608.000,407.400,114.300,29.060,327.300,95.850,29.680,10.690,478.400,137.000,40.860,14.090,hard
1250.000,354.600,102.500,24.830,1604.000,406.700,113.900,29.010,327.500,95.400,29.510,10.630,476.000,136.500,40.740,14.000,hard
1248.000,353.800,102.300,24.700,1608.000,405.900,114.100,29.030,324.400,95.330,29.480,10.630,476.600,136.700,40.750,14.000,hard
1248.000,353.700,102.300,24.700,1609.000,406.900,114.000,29.080,326.900,95.420,29.620,10.640,477.300,137.000,40.850,14.060,hard
1248.000,353.800,102.600,24.770,1610.000,407.300,114.200,29.100,326.000,95.350,29.610,10.660,477.100,137.000,40.890,14.080,hard
1250.000,355.100,102.900,24.820,1610.000,407.700,114.500,29.120,325.400,95.760,29.660,10.720,478.700,137.400,41.130,14.160,hard
1252.000,356.500,102.900,24.940,1611.000,407.800,114.500,29.130,325.600,96.010,29.810,10.750,481.300,138.500,41.340,14.220,hard
1257.000,355.800,103.500,25.000,1614.000,408.400,114.800,29.230,325.200,96.160,29.850,10.780,483.100,138.800,41.530,14.350,hard
1261.000,358.400,104.000,25.050,1615.000,408.700,114.400,29.110,327.900,96.340,29.850,10.790,481.600,138.300,41.070,14.140,hard
