A-DC1,A-DC2,A-DC3,A-DC4,A-DC5,A-DC6,A-DC7,A-DC8,B-DC1,B-DC2,B-DC3,B-DC4,B-DC5,B-DC6,B-DC7,B-DC8,condition
1398.000,349.800,88.090,17.530,1640.000,404.000,103.700,19.670,224.900,57.120,22.130,12.030,271.000,81.590,27.390,14.640,baseline
1397.000,350.200,87.690,17.540,1644.000,403.400,103.500,19.740,225.400,57.370,22.210,12.000,272.000,81.920,27.530,14.730,baseline
1399.000,351.100,88.170,17.650,1647.000,404.200,104.000,19.810,225.500,57.140,22.240,12.050,273.200,82.280,27.600,14.780,baseline
1399.000,351.800,88.070,17.630,1646.000,403.600,103.800,19.760,225.700,57.630,22.310,12.070,273.800,82.300,27.740,14.860,baseline
1401.000,352.400,88.650,17.730,1648.000,405.200,104.000,19.820,227.700,57.770,22.350,12.120,275.300,82.750,28.010,14.970,baseline
1404.000,352.900,88.770,17.780,1652.000,406.400,104.300,19.890,225.900,57.860,22.480,12.180,277.500,83.440,28.220,15.090,baseline
1409.000,352.600,89.230,17.810,1652.000,405.800,104.100,19.800,230.200,58.230,22.550,12.190,277.800,83.670,28.100,14.910,baseline
1401.000,350.200,88.560,17.560,1646.000,404.800,103.700,19.770,230.000,57.880,22.370,12.060,272.800,81.770,27.550,14.670,baseline
1397.000,349.800,88.410,17.620,1647.000,404.000,103.900,19.790,226.700,57.320,22.250,12.030,272.500,81.920,27.520,14.670,baseline
1399.000,351.000,88.950,17.620,1650.000,408.000,104.800,19.810,225.700,57.400,22.290,12.030,273.300,82.340,27.710,14.770,baseline
1403.000,352.800,88.540,17.680,1644.000,406.300,104.300,19.720,225.700,57.600,22.330,12.060,273.900,82.370,27.730,14.810,baseline
1398.000,351.000,88.700,17.590,1638.000,402.900,103.300,19.660,227.500,57.830,22.410,12.090,274.900,82.540,27.880,14.920,baseline
1389.000,350.600,87.880,17.590,1626.000,400.200,102.900,19.570,227.700,58.060,22.470,12.150,276.600,83.040,28.080,15.030,baseline
1385.000,349.400,87.930,17.670,1626.000,401.400,103.600,19.680,227.900,58.130,22.620,12.210,278.000,83.770,28.370,15.060,baseline
1389.000,349.300,87.770,17.510,1627.000,400.800,102.900,19.520,230.200,58.080,22.540,12.090,274.400,82.320,27.690,14.730,baseline
1381.000,347.100,87.430,17.410,1623.000,398.900,102.700,19.550,226.000,57.710,22.280,12.010,272.900,82.120,27.620,14.680,baseline
1379.000,346.400,87.390,17.410,1626.000,399.700,102.700,19.540,227.700,57.810,22.400,12.040,273.500,82.390,27.740,14.790,baseline
1381.000,347.800,87.440,17.410,1625.000,399.200,102.600,19.510,229.100,58.110,22.440,12.060,274.700,82.740,27.910,14.850,baseline
1380.000,348.100,87.800,17.460,1629.000,399.400,102.400,19.500,228.100,57.840,22.470,12.090,275.300,82.970,27.940,14.980,baseline
1381.000,346.100,87.560,17.490,1623.000,398.500,102.400,19.560,229.700,58.110,22.590,12.170,277.000,83.550,28.210,15.060,baseline
1382.000,348.800,87.640,17.540,1621.000,398.600,102.600,19.490,228.200,58.580,22.690,12.250,278.100,83.980,28.540,15.240,baseline
1383.000,347.000,87.550,17.490,1619.000,398.900,102.100,19.370,230.000,58.650,22.760,12.270,278.000,83.780,28.220,14.970,baseline
1372.000,345.300,86.760,17.270,1614.000,396.900,101.800,19.320,227.900,57.990,22.490,12.120,273.400,82.490,27.790,14.840,baseline
1367.000,343.600,86.590,17.260,1611.000,396.000,101.700,19.350,227.300,57.800,22.480,12.110,273.200,82.240,27.810,14.850,baseline
1368.000,343.400,86.720,17.290,1613.000,395.500,101.700,19.360,226.700,58.080,22.560,12.160,274.400,82.980,27.930,14.980,baseline
1369.000,345.600,86.680,17.260,1612.000,395.500,101.600,19.340,229.200,58.050,22.580,12.190,274.500,83.020,28.120,15.030,baseline
1370.000,343.900,86.840,17.340,1612.000,395.900,101.600,19.370,228.100,58.090,22.670,12.270,274.900,83.130,28.370,15.160,baseline
1374.000,344.800,87.400,17.450,1618.000,397.300,102.100,19.490,228.300,58.450,22.750,12.320,276.800,83.730,28.600,15.300,baseline
1379.000,347.300,87.670,17.570,1621.000,398.700,102.100,19.500,231.400,58.480,22.830,12.400,278.100,83.950,28.570,15.310,baseline
1378.000,345.200,87.020,17.430,1621.000,398.100,102.100,19.450,229.400,58.300,22.610,12.250,273.300,82.580,27.970,15.000,baseline
1377.000,346.000,87.020,17.420,1624.000,398.100,102.200,19.460,226.700,57.850,22.500,12.200,272.500,82.380,28.010,14.980,baseline
1379.000,346.100,87.600,17.490,1625.000,399.300,102.700,19.510,227.200,57.820,22.560,12.210,273.300,82.540,28.070,15.060,baseline
1385.000,347.800,87.730,17.520,1635.000,400.900,102.900,19.540,229.600,57.830,22.560,12.190,274.000,83.080,28.100,15.100,baseline
1388.000,347.700,88.090,17.580,1632.000,400.700,103.100,19.610,228.500,58.240,22.600,12.250,274.700,83.240,28.290,15.190,baseline
1392.000,350.200,87.850,17.680,1642.000,402.800,103.300,19.660,229.900,58.150,22.670,12.290,276.100,83.630,28.500,15.310,baseline
1396.000,350.000,88.530,17.730,1644.000,403.100,103.400,19.650,229.900,58.320,22.810,12.360,278.300,83.930,28.640,15.330,baseline
1395.000,348.000,87.880,17.590,1636.000,400.800,103.000,19.590,229.400,58.490,22.700,12.270,274.100,82.890,28.070,15.000,baseline
1389.000,349.000,87.940,17.490,1638.000,400.800,103.000,19.630,226.500,57.780,22.520,12.180,272.700,82.580,28.020,15.010,baseline
1389.000,348.500,88.310,17.550,1637.000,401.700,103.300,19.680,226.400,57.850,22.570,12.250,274.400,82.720,28.200,15.090,baseline
1391.000,349.100,87.910,17.590,1641.000,402.300,103.200,19.670,228.500,57.910,22.580,12.240,274.700,83.040,28.240,15.130,baseline
1395.000,349.300,88.290,17.630,1642.000,403.100,103.500,19.710,226.900,57.930,22.600,12.250,275.400,83.240,28.360,15.140,baseline
1398.000,350.700,88.600,17.780,1646.000,403.300,103.600,19.820,229.600,58.050,22.730,12.290,276.600,83.750,28.520,15.310,baseline
1401.000,352.400,89.100,17.810,1645.000,404.200,104.000,19.760,229.400,58.590,22.700,12.320,278.200,84.360,28.720,15.360,baseline
1400.000,351.900,88.630,17.730,1646.000,403.700,103.700,19.740,230.300,58.530,22.700,12.220,275.600,83.200,28.130,15.020,baseline
1396.000,350.700,88.620,17.730,1647.000,404.000,104.000,19.790,229.600,58.000,22.580,12.170,274.100,82.920,28.140,15.010,baseline
1399.000,351.900,88.330,17.750,1643.000,404.100,103.900,19.830,228.800,58.000,22.600,12.200,275.400,83.410,28.290,15.090,baseline
1401.000,351.500,88.650,17.780,1650.000,404.700,104.000,19.850,230.100,58.230,22.630,12.200,276.600,83.720,28.340,15.110,baseline
1403.000,353.800,89.120,17.830,1651.000,405.800,104.400,19.920,229.200,58.260,22.650,12.210,277.500,83.940,28.520,15.190,baseline
1407.000,355.500,89.220,17.960,1653.000,406.100,104.400,19.940,230.500,58.490,22.750,12.260,279.000,84.610,28.640,15.330,baseline
1410.000,355.300,89.740,18.040,1658.000,406.900,104.900,19.960,230.100,58.770,22.860,12.300,280.700,84.890,28.810,15.350,baseline
1410.000,352.700,89.090,17.850,1655.000,405.500,104.300,19.860,230.500,58.540,22.770,12.210,277.200,83.810,28.300,15.050,baseline
1406.000,351.600,89.220,17.850,1656.000,406.200,104.400,19.950,229.000,58.120,22.600,12.180,275.700,83.440,28.330,15.050,baseline
1408.000,352.200,89.480,17.880,1657.000,406.400,104.600,19.930,231.400,58.650,22.680,12.170,277.200,84.280,28.510,15.170,baseline
1409.000,353.600,89.440,17.900,1658.000,406.200,104.400,19.910,232.000,58.730,22.720,12.200,277.800,84.140,28.580,15.210,baseline
1410.000,354.900,89.420,17.880,1659.000,407.200,104.700,20.010,232.200,58.440,22.800,12.250,279.000,84.350,28.690,15.310,baseline
1415.000,354.600,89.970,18.100,1660.000,408.700,105.200,20.080,230.600,58.640,22.810,12.290,280.700,84.870,28.890,15.380,baseline
1418.000,357.200,90.150,18.200,1665.000,409.100,105.300,20.060,231.500,58.740,22.900,12.340,281.600,85.150,28.900,15.400,baseline
1415.000,355.400,89.650,17.960,1662.000,407.200,104.800,20.030,233.000,58.670,22.840,12.230,277.700,83.800,28.470,15.100,baseline
1412.000,355.300,89.530,17.970,1661.000,408.000,105.000,20.050,229.600,58.420,22.680,12.200,277.100,83.570,28.390,15.100,baseline
1413.000,354.800,89.590,18.020,1664.000,409.500,105.200,20.120,228.900,58.440,22.650,12.160,277.600,83.970,28.540,15.160,baseline
1415.000,356.000,90.190,18.060,1664.000,408.300,105.300,20.140,228.800,58.550,22.720,12.190,278.300,84.210,28.540,15.170,baseline
1415.000,355.600,90.310,18.110,1664.000,409.900,105.400,20.160,229.900,58.670,22.790,12.240,279.100,84.440,28.690,15.290,baseline
1417.000,356.900,90.340,18.160,1665.000,410.100,105.400,20.190,231.600,58.450,22.860,12.270,280.400,84.920,28.730,15.380,baseline
1421.000,358.600,90.970,18.120,1664.000,409.800,105.400,20.130,233.100,58.880,22.900,12.310,281.900,85.280,28.940,15.340,baseline
1415.000,355.300,89.640,17.920,1658.000,408.600,105.100,20.050,228.500,58.630,22.680,12.160,277.000,83.590,28.240,15.020,baseline
1411.000,353.500,89.510,17.970,1658.000,407.900,104.900,20.000,229.900,58.300,22.660,12.140,276.000,83.630,28.230,15.000,baseline
1410.000,354.500,89.680,17.960,1660.000,408.800,105.200,20.020,231.400,58.030,22.610,12.150,276.900,83.700,28.320,15.070,baseline
1412.000,354.500,89.400,18.030,1661.000,409.400,104.900,20.070,230.100,58.450,22.700,12.170,277.000,83.820,28.340,15.110,baseline
1413.000,356.200,89.650,18.010,1659.000,408.500,105.200,20.070,231.500,58.450,22.670,12.200,277.500,84.080,28.570,15.190,baseline
1415.000,355.600,89.630,18.060,1659.000,408.800,105.200,20.110,230.900,58.690,22.770,12.220,279.700,84.670,28.680,15.310,baseline
1418.000,357.300,90.110,18.140,1659.000,409.100,105.200,20.100,230.700,58.780,22.820,12.270,281.300,84.910,28.700,15.220,baseline
1412.000,354.400,89.520,17.910,1655.000,407.900,104.800,20.000,230.500,58.760,22.620,12.130,275.700,83.180,28.160,14.910,baseline
1408.000,353.000,89.160,17.860,1656.000,408.000,104.600,19.960,227.500,58.120,22.520,12.090,275.600,82.980,28.000,14.840,baseline
1406.000,353.100,89.120,17.790,1657.000,407.600,104.500,19.960,227.000,58.200,22.460,12.080,275.500,83.250,28.040,14.880,baseline
1406.000,352.800,88.900,17.790,1655.000,407.500,104.700,19.950,229.300,58.320,22.490,12.090,276.100,83.260,28.030,14.910,baseline
1407.000,353.800,89.370,17.840,1656.000,408.500,105.200,19.990,230.800,58.220,22.550,12.130,277.100,83.560,28.250,15.000,baseline
1408.000,354.900,89.080,17.890,1653.000,408.100,104.800,20.000,227.100,58.170,22.610,12.160,278.100,84.090,28.330,15.110,baseline
1411.000,356.400,89.530,17.970,1662.000,408.000,105.000,20.000,229.800,58.620,22.650,12.190,279.300,84.480,28.580,15.180,baseline
1410.000,354.800,89.320,17.800,1652.000,407.200,104.700,19.910,230.300,58.790,22.590,12.110,276.900,83.090,27.980,14.850,baseline
1401.000,352.700,88.560,17.750,1650.000,406.900,104.600,19.950,227.000,58.050,22.420,12.020,274.000,82.500,27.790,14.740,baseline
1402.000,352.700,89.210,17.800,1655.000,407.700,104.800,20.010,229.300,57.870,22.400,12.020,273.700,82.700,27.820,14.770,baseline
1402.000,353.600,89.020,17.840,1653.000,407.100,104.600,19.950,228.200,57.970,22.410,12.030,275.400,82.940,27.820,14.810,baseline
1402.000,353.000,88.900,17.800,1647.000,407.600,104.900,19.980,228.000,57.640,22.420,12.050,275.000,83.070,28.060,14.880,baseline
1403.000,354.300,89.530,17.800,1652.000,407.600,104.900,19.960,229.500,57.960,22.510,12.090,276.800,83.430,28.110,14.990,baseline
1405.000,353.300,89.560,17.860,1652.000,408.300,105.000,19.950,229.500,58.410,22.540,12.150,277.800,84.100,28.310,15.100,baseline
1409.000,355.400,89.600,17.890,1651.000,407.100,104.900,19.960,229.700,58.700,22.590,12.150,278.900,84.210,28.160,14.930,baseline
1400.000,351.600,88.690,17.690,1652.000,405.600,104.200,19.850,228.800,57.920,22.390,12.000,274.100,82.400,27.720,14.700,baseline
1396.000,350.400,88.420,17.710,1649.000,405.100,104.300,19.800,227.000,57.800,22.370,11.990,273.300,82.530,27.730,14.700,baseline
1397.000,350.300,88.720,17.750,1649.000,405.200,104.300,19.860,227.600,57.910,22.390,12.010,274.600,82.830,27.880,14.780,baseline
1397.000,352.600,88.870,17.740,1647.000,405.000,104.200,19.810,226.900,57.860,22.320,12.020,274.100,82.920,27.910,14.800,baseline
1397.000,352.600,88.750,17.750,1647.000,405.900,104.700,19.880,227.900,57.900,22.470,12.050,275.500,83.200,28.050,14.930,baseline
1399.000,352.200,89.170,17.810,1646.000,406.200,104.500,19.910,229.900,58.120,22.530,12.080,276.800,83.630,28.200,15.060,baseline
1403.000,353.400,89.120,17.900,1651.000,407.600,104.900,20.010,229.900,58.200,22.580,12.140,278.200,84.350,28.350,15.160,baseline
1406.000,354.600,89.570,17.840,1649.000,406.900,104.700,19.880,230.800,58.620,22.630,12.140,277.700,83.530,28.020,14.830,baseline
1397.000,351.800,89.020,17.750,1649.000,405.800,104.500,19.900,227.300,57.960,22.350,12.000,274.200,82.690,27.830,14.760,baseline
1396.000,352.300,88.810,17.730,1646.000,407.000,104.600,19.920,227.600,57.820,22.390,12.000,274.400,82.640,27.800,14.810,baseline
1398.000,352.900,89.270,17.830,1650.000,406.900,104.600,19.920,228.400,57.970,22.420,12.040,274.600,82.980,27.840,14.840,baseline
1398.000,353.600,89.290,17.840,1652.000,407.500,104.800,19.960,230.300,58.160,22.420,12.050,275.400,83.140,27.960,14.930,baseline
1401.000,351.800,89.610,17.890,1649.000,407.200,104.900,19.950,229.400,58.480,22.480,12.090,277.500,83.550,28.110,15.020,baseline
1403.000,352.800,89.810,17.930,1652.000,408.200,105.200,20.040,230.600,58.480,22.590,12.130,278.300,84.140,28.410,15.140,baseline
1408.000,356.300,90.310,18.060,1655.000,409.700,105.500,20.060,232.500,58.850,22.720,12.200,279.800,84.790,28.660,15.240,baseline
1407.000,355.800,89.490,17.890,1654.000,407.900,104.900,19.990,231.300,58.680,22.710,12.120,277.700,83.710,28.090,14.910,baseline
1399.000,353.600,89.280,17.850,1650.000,407.300,105.000,19.990,229.200,58.390,22.440,12.060,274.900,83.010,27.990,14.880,baseline
1401.000,353.500,89.460,17.860,1650.000,407.900,105.100,20.020,230.600,58.040,22.460,12.060,275.900,83.330,28.090,14.960,baseline
1403.000,355.000,89.580,17.920,1648.000,408.000,105.300,20.030,229.900,58.500,22.590,12.100,276.700,83.400,28.170,14.980,baseline
1404.000,354.600,90.100,17.930,1654.000,408.900,105.300,20.110,230.000,58.460,22.580,12.110,277.100,83.880,28.240,15.040,baseline
1407.000,356.400,90.170,18.060,1654.000,409.200,105.500,20.150,230.100,58.500,22.620,12.160,279.500,84.340,28.400,15.130,baseline
1411.000,356.500,90.490,18.130,1652.000,411.000,105.800,20.230,232.500,58.890,22.700,12.210,280.400,84.940,28.670,15.310,baseline
1416.000,359.100,90.800,18.250,1656.000,410.800,106.400,20.240,232.100,59.150,22.820,12.270,281.900,85.360,28.880,15.330,baseline
1413.000,357.400,90.460,18.100,1658.000,410.000,105.800,20.110,232.700,58.890,22.750,12.170,278.800,84.090,28.290,15.030,baseline
1407.000,355.000,90.080,18.080,1655.000,409.600,105.800,20.090,230.900,58.540,22.620,12.120,277.200,83.810,28.210,15.040,baseline
1409.000,356.000,90.050,18.100,1658.000,409.600,105.900,20.160,231.400,58.500,22.630,12.140,277.700,83.980,28.380,15.130,baseline
1412.000,356.500,90.460,18.180,1657.000,410.600,106.000,20.140,230.100,58.730,22.770,12.190,278.600,84.210,28.440,15.170,baseline
1413.000,358.600,90.320,18.190,1658.000,410.300,106.300,20.230,231.900,59.090,22.690,12.200,278.900,84.710,28.710,15.240,baseline
1416.000,359.400,90.890,18.220,1657.000,411.700,106.100,20.270,233.300,59.010,22.800,12.240,280.600,85.190,28.880,15.390,baseline
1420.000,359.900,91.180,18.340,1663.000,413.300,106.700,20.360,234.900,59.290,22.890,12.280,283.000,85.770,28.990,15.530,baseline
1425.000,360.400,91.590,18.390,1662.000,412.800,106.200,20.250,233.900,59.530,23.000,12.330,283.400,85.510,28.930,15.320,baseline
1416.000,358.600,90.880,18.150,1664.000,411.900,106.400,20.240,232.100,59.180,22.770,12.190,279.000,84.270,28.580,15.170,baseline
1415.000,358.500,91.140,18.220,1660.000,412.500,106.700,20.300,232.300,58.710,22.770,12.200,279.000,84.430,28.650,15.260,baseline
1418.000,359.500,91.560,18.250,1664.000,413.000,106.900,20.390,231.200,59.130,22.820,12.220,280.800,84.990,28.750,15.290,baseline
1420.000,360.300,91.590,18.290,1666.000,414.100,106.900,20.450,233.300,59.340,22.890,12.220,280.900,84.920,28.840,15.360,baseline
1422.000,361.900,91.970,18.370,1670.000,413.400,106.900,20.410,233.000,59.100,22.930,12.250,281.900,85.670,28.950,15.470,baseline
1426.000,362.600,92.100,18.530,1669.000,414.900,107.100,20.470,233.500,59.450,23.020,12.350,283.600,86.060,29.250,15.610,baseline
1430.000,364.200,92.290,18.540,1671.000,415.100,107.200,20.460,234.500,59.820,23.090,12.370,284.800,86.330,29.190,15.530,baseline
1422.000,360.800,91.480,18.320,1664.000,413.100,106.800,20.340,233.400,59.450,22.850,12.220,280.100,84.760,28.670,15.240,baseline
1420.000,360.500,91.250,18.350,1668.000,414.200,107.000,20.400,233.800,59.340,22.890,12.210,280.100,84.890,28.720,15.300,baseline
1421.000,360.900,91.750,18.380,1669.000,414.100,107.200,20.430,231.300,59.330,22.890,12.250,281.100,85.210,28.920,15.360,baseline
1423.000,361.800,91.550,18.430,1667.000,414.000,107.200,20.420,232.700,59.480,22.940,12.240,281.300,85.430,28.940,15.390,baseline
1425.000,363.000,92.380,18.490,1669.000,415.200,107.200,20.500,234.100,59.420,23.000,12.280,283.100,85.660,29.030,15.500,baseline
1426.000,362.700,92.100,18.550,1674.000,415.600,107.300,20.520,232.200,59.820,23.040,12.310,283.000,86.410,29.300,15.620,baseline
1430.000,364.100,92.830,18.600,1674.000,416.000,107.400,20.510,234.600,59.750,23.160,12.370,285.800,86.710,29.320,15.530,baseline
1425.000,361.600,92.060,18.370,1669.000,413.700,107.000,20.440,235.200,59.610,22.870,12.200,280.600,84.790,28.750,15.250,baseline
1421.000,362.200,91.620,18.400,1666.000,414.700,106.900,20.410,234.800,59.100,22.850,12.180,279.900,85.060,28.800,15.270,baseline
1422.000,360.400,92.040,18.410,1671.000,414.500,107.300,20.460,232.800,59.310,22.940,12.200,280.800,85.060,28.910,15.340,baseline
1423.000,362.200,91.980,18.460,1666.000,414.500,107.300,20.450,234.100,59.520,22.900,12.250,281.200,85.420,28.990,15.370,baseline
1424.000,362.800,92.040,18.470,1670.000,415.600,107.400,20.520,234.000,59.780,22.950,12.240,281.900,85.770,29.130,15.460,baseline
1427.000,363.800,92.400,18.630,1670.000,415.100,107.700,20.540,235.100,59.680,22.950,12.250,284.100,86.210,29.350,15.560,baseline
1429.000,363.600,92.580,18.580,1673.000,415.500,107.500,20.480,236.600,59.880,23.090,12.310,285.800,86.610,29.310,15.520,baseline
1424.000,362.600,91.640,18.390,1668.000,414.700,107.000,20.450,236.400,59.470,22.940,12.220,280.600,84.960,28.760,15.210,baseline
1420.000,361.800,91.690,18.360,1671.000,413.700,107.200,20.380,232.900,59.060,22.820,12.160,279.700,84.590,28.750,15.180,baseline
1417.000,359.200,91.420,18.330,1666.000,413.200,106.800,20.400,232.900,59.440,22.870,12.170,279.800,84.740,28.830,15.260,baseline
1418.000,360.400,91.770,18.330,1662.000,413.900,106.700,20.440,233.100,59.350,22.870,12.200,279.700,84.910,28.810,15.310,baseline
1418.000,361.100,91.550,18.330,1666.000,413.900,106.700,20.410,231.500,59.140,22.900,12.210,280.500,85.450,28.950,15.380,baseline
1421.000,361.800,91.570,18.370,1665.000,413.800,107.000,20.460,234.400,59.680,22.950,12.230,282.000,85.770,29.120,15.500,baseline
1423.000,361.500,92.140,18.480,1666.000,414.700,107.300,20.420,233.200,59.650,23.110,12.290,283.400,85.990,29.240,15.510,baseline
1419.000,359.800,91.460,18.280,1662.000,413.300,106.600,20.320,231.900,59.690,22.940,12.190,279.100,84.640,28.600,15.130,baseline
1413.000,358.300,90.550,18.180,1662.000,411.800,106.500,20.300,230.300,59.100,22.750,12.110,277.500,84.110,28.450,15.070,baseline
1411.000,358.900,90.530,18.160,1662.000,412.300,106.600,20.300,230.200,59.010,22.690,12.110,277.900,84.230,28.480,15.100,baseline
1411.000,358.200,90.650,18.160,1654.000,412.600,106.400,20.310,231.900,58.820,22.740,12.140,278.800,84.370,28.600,15.120,baseline
1410.000,357.600,90.670,18.220,1663.000,411.900,106.600,20.340,230.300,58.980,22.760,12.150,279.000,84.760,28.730,15.250,baseline
1412.000,360.100,90.760,18.240,1659.000,412.300,106.600,20.260,230.900,59.180,22.860,12.190,280.500,85.080,28.780,15.290,baseline
1414.000,359.500,91.410,18.260,1663.000,413.200,106.600,20.330,230.800,59.470,22.910,12.210,282.500,85.530,29.060,15.420,baseline
1418.000,360.600,91.370,18.270,1663.000,412.200,106.200,20.260,232.200,59.420,23.020,12.230,281.900,85.170,28.680,15.150,baseline
1407.000,356.900,90.790,18.050,1656.000,410.200,106.100,20.190,232.500,58.720,22.690,12.050,277.400,83.810,28.250,14.990,baseline
1404.000,355.700,89.920,18.020,1654.000,410.300,105.700,20.180,231.600,58.740,22.560,12.020,276.800,83.640,28.220,14.960,baseline
1403.000,355.600,89.760,18.030,1656.000,410.600,105.900,20.130,230.500,58.500,22.620,12.050,276.700,83.840,28.360,14.990,baseline
1403.000,355.500,90.280,17.970,1652.000,409.700,106.000,20.120,228.800,58.650,22.600,12.050,277.400,83.960,28.340,15.010,baseline
1403.000,355.800,89.890,18.050,1654.000,409.900,105.700,20.160,230.700,58.850,22.670,12.070,278.100,84.270,28.460,15.120,baseline
1406.000,358.000,90.070,18.080,1658.000,409.800,105.700,20.150,232.400,59.130,22.710,12.120,279.300,84.670,28.710,15.230,baseline
1407.000,358.600,90.710,18.100,1656.000,410.000,106.000,20.200,231.800,58.960,22.820,12.170,281.000,85.350,28.810,15.370,baseline
1410.000,358.900,90.370,18.060,1655.000,409.000,105.800,20.110,232.900,59.410,22.820,12.170,280.700,84.370,28.420,15.030,baseline
1399.000,353.100,89.550,17.880,1653.000,408.000,105.400,20.000,232.200,58.600,22.540,12.030,276.400,83.440,28.230,14.870,baseline
1396.000,351.900,89.360,17.780,1649.000,408.100,105.400,20.050,230.400,58.460,22.430,11.990,275.300,83.420,28.160,14.920,baseline
1396.000,353.600,89.620,17.850,1649.000,407.900,105.300,20.050,231.200,58.510,22.530,12.010,277.100,83.490,28.210,14.950,baseline
1396.000,353.300,89.440,17.850,1647.000,408.100,105.300,20.070,231.100,58.620,22.490,12.010,276.700,83.540,28.260,14.940,baseline
1397.000,353.100,89.300,17.840,1648.000,408.100,105.100,20.050,230.400,58.660,22.630,12.060,277.800,84.240,28.390,15.110,baseline
1400.000,354.200,89.380,17.910,1650.000,408.700,105.300,20.050,229.200,58.760,22.660,12.110,279.600,84.480,28.610,15.200,baseline
1403.000,355.200,90.170,18.020,1654.000,409.400,105.600,20.090,231.500,59.060,22.750,12.160,280.900,85.080,28.750,15.330,baseline
1405.000,355.700,90.140,17.940,1647.000,408.400,105.300,20.000,231.700,59.130,22.810,12.170,280.500,84.770,28.560,15.060,baseline
1395.000,353.800,88.940,17.830,1650.000,407.200,105.300,19.950,231.300,58.710,22.540,12.040,276.300,83.310,28.100,14.880,baseline
1394.000,352.300,88.860,17.730,1646.000,407.700,105.200,19.950,229.000,58.580,22.500,12.030,276.100,83.370,28.130,14.950,baseline
1393.000,354.000,88.930,17.800,1650.000,406.700,105.300,20.020,228.700,58.570,22.580,12.070,277.600,83.680,28.250,14.980,baseline
1394.000,352.500,89.060,17.750,1651.000,408.200,105.300,19.980,230.400,58.580,22.540,12.080,277.400,83.920,28.290,15.000,baseline
1395.000,353.200,89.090,17.820,1649.000,408.600,105.100,20.010,230.200,58.840,22.630,12.080,278.300,84.200,28.440,15.110,baseline
1398.000,354.300,89.700,17.910,1648.000,408.600,105.300,20.070,231.500,59.030,22.710,12.120,280.100,84.530,28.630,15.210,baseline
1401.000,355.500,89.990,17.940,1652.000,409.500,105.600,20.130,232.000,58.770,22.830,12.170,282.100,85.140,28.780,15.320,baseline
1406.000,356.200,89.990,18.040,1656.000,408.300,105.500,20.050,233.800,59.540,22.780,12.180,283.500,85.400,28.720,15.190,baseline
1397.000,352.500,88.970,17.850,1646.000,407.100,105.200,19.990,232.500,58.800,22.560,12.060,278.500,83.730,28.210,14.980,baseline
1394.000,352.200,88.580,17.780,1648.000,407.800,105.100,19.990,232.100,58.590,22.540,12.040,277.300,83.750,28.260,14.990,baseline
1395.000,353.200,89.060,17.800,1649.000,407.300,105.100,19.970,231.200,58.800,22.590,12.070,278.200,84.090,28.340,15.090,baseline
1396.000,354.000,89.370,17.880,1649.000,407.700,105.100,19.990,233.600,58.770,22.630,12.080,278.300,84.290,28.370,15.050,baseline
1398.000,354.000,89.380,17.890,1651.000,408.600,105.000,20.050,231.800,58.830,22.690,12.100,280.300,84.840,28.450,15.180,baseline
1400.000,356.000,89.550,17.990,1655.000,408.400,105.600,20.090,233.900,58.980,22.720,12.160,281.500,85.090,28.750,15.280,baseline
1404.000,355.800,90.100,18.090,1656.000,409.200,106.000,20.150,233.500,59.430,22.850,12.200,283.200,85.600,28.950,15.410,baseline
1408.000,357.200,90.800,18.120,1659.000,409.400,105.900,20.170,235.600,59.650,22.940,12.260,285.300,86.220,29.130,15.420,baseline
1403.000,354.700,89.770,17.950,1654.000,409.800,105.400,20.090,234.600,59.520,22.820,12.120,281.200,84.780,28.420,15.080,baseline
1400.000,354.800,89.510,17.890,1657.000,409.800,105.600,20.100,232.200,59.030,22.710,12.090,279.800,84.480,28.420,15.080,baseline
1400.000,354.200,89.530,17.970,1656.000,408.900,105.600,20.120,232.700,58.750,22.800,12.130,280.700,84.750,28.580,15.160,baseline
1402.000,354.600,90.050,17.960,1656.000,410.200,105.900,20.180,233.000,59.240,22.810,12.170,280.800,84.910,28.660,15.220,baseline
1403.000,356.200,90.120,18.070,1657.000,409.900,105.800,20.200,231.300,59.370,22.860,12.180,282.100,85.130,28.790,15.340,baseline
1407.000,358.200,90.180,18.150,1665.000,410.800,106.500,20.220,236.700,59.410,22.920,12.230,282.600,85.910,28.930,15.390,baseline
1410.000,357.100,90.740,18.250,1661.000,411.900,106.400,20.290,234.600,59.690,23.030,12.280,284.900,86.550,29.210,15.560,baseline
1416.000,359.700,91.150,18.360,1669.000,412.700,106.800,20.330,236.900,60.160,23.080,12.340,287.000,86.880,29.370,15.620,baseline
1412.000,357.900,90.160,18.110,1664.000,410.900,106.300,20.220,236.600,60.140,23.010,12.270,283.900,85.840,28.890,15.280,baseline
1406.000,356.900,90.140,18.070,1659.000,411.000,106.400,20.270,234.200,59.120,22.890,12.180,282.600,85.280,28.800,15.280,baseline
1408.000,358.200,90.700,18.130,1662.000,411.600,106.400,20.350,235.700,59.500,22.900,12.220,283.300,85.480,28.980,15.380,baseline
1410.000,356.500,90.590,18.200,1664.000,412.400,106.400,20.340,234.200,59.540,23.010,12.230,283.500,85.940,29.070,15.380,baseline
1412.000,359.400,91.050,18.240,1660.000,412.900,106.700,20.390,234.000,59.950,23.100,12.280,284.600,86.080,29.150,15.450,baseline
1416.000,359.600,91.450,18.310,1668.000,413.600,106.700,20.400,235.000,60.150,23.120,12.310,285.900,86.660,29.340,15.560,baseline
1419.000,360.400,91.860,18.380,1670.000,415.100,107.300,20.500,236.000,59.950,23.240,12.370,287.500,87.420,29.590,15.740,baseline
1425.000,361.500,91.940,18.550,1672.000,414.800,107.300,20.480,238.500,60.700,23.290,12.410,289.400,88.000,29.710,15.750,baseline
1421.000,360.700,91.260,18.320,1669.000,413.600,107.000,20.380,238.700,60.410,23.220,12.320,286.300,86.770,29.180,15.450,baseline
1417.000,359.000,91.330,18.330,1669.000,414.300,107.200,20.420,236.300,60.070,23.070,12.280,284.700,86.320,29.160,15.480,baseline
1418.000,360.100,91.620,18.390,1671.000,414.500,107.300,20.450,234.600,59.730,23.080,12.300,285.400,86.760,29.420,15.560,baseline
1421.000,362.100,91.970,18.460,1669.000,414.900,107.400,20.480,236.300,60.430,23.200,12.290,285.700,86.670,29.380,15.580,baseline
1423.000,362.200,92.110,18.540,1673.000,415.100,107.600,20.570,236.600,60.320,23.230,12.330,286.900,87.160,29.590,15.680,baseline
1426.000,363.800,92.260,18.540,1672.000,416.600,108.000,20.660,238.800,60.630,23.350,12.360,288.900,87.730,29.770,15.790,baseline
1429.000,364.800,92.890,18.650,1680.000,417.800,108.100,20.700,237.900,60.760,23.440,12.410,290.000,88.140,30.060,15.910,baseline
1434.000,365.800,93.140,18.650,1679.000,416.100,108.000,20.560,240.900,60.980,23.510,12.450,290.400,87.990,29.650,15.710,baseline
1424.000,363.100,92.310,18.480,1677.000,416.000,107.700,20.570,237.100,60.560,23.280,12.340,285.900,87.080,29.370,15.590,baseline
1424.000,361.200,92.420,18.520,1673.000,415.300,107.700,20.600,236.100,60.410,23.250,12.320,286.200,87.210,29.520,15.620,baseline
1427.000,362.700,92.540,18.580,1678.000,417.400,108.000,20.680,239.500,60.730,23.330,12.360,287.000,87.290,29.640,15.650,baseline
1428.000,365.300,92.500,18.620,1675.000,416.300,108.100,20.680,240.000,60.410,23.380,12.360,286.900,87.490,29.680,15.700,baseline
1431.000,364.000,92.930,18.670,1681.000,417.800,108.100,20.710,238.500,60.870,23.450,12.440,288.500,87.930,29.860,15.830,baseline
1433.000,365.900,93.350,18.810,1682.000,418.600,108.600,20.720,237.200,61.010,23.520,12.450,289.600,88.610,30.070,15.930,baseline
1438.000,366.700,93.360,18.820,1679.000,418.500,108.200,20.740,241.800,60.770,23.520,12.480,290.700,88.720,29.960,15.740,baseline
1428.000,363.100,92.010,18.570,1677.000,417.000,107.900,20.640,238.000,60.710,23.340,12.340,286.200,87.010,29.410,15.560,baseline
1427.000,364.600,92.280,18.610,1673.000,416.900,108.000,20.650,236.400,60.250,23.280,12.310,285.600,86.830,29.440,15.540,baseline
1428.000,364.400,92.610,18.640,1679.000,416.900,108.100,20.750,236.500,60.210,23.330,12.340,286.700,87.170,29.580,15.610,baseline
1429.000,363.800,93.050,18.610,1677.000,417.000,108.000,20.700,236.300,60.630,23.430,12.340,286.700,87.210,29.530,15.630,baseline
1430.000,365.400,93.100,18.680,1680.000,417.400,108.400,20.740,238.000,60.410,23.380,12.370,287.300,87.480,29.740,15.730,baseline
1434.000,365.800,93.270,18.770,1679.000,419.000,108.500,20.730,239.400,60.800,23.440,12.430,288.400,88.060,29.890,15.820,baseline
1436.000,366.400,93.470,18.800,1679.000,417.500,108.300,20.750,240.300,60.930,23.570,12.450,289.600,88.300,29.870,15.740,baseline
1429.000,363.300,92.320,18.590,1677.000,417.500,108.100,20.640,237.500,60.750,23.320,12.310,284.700,86.600,29.340,15.420,baseline
1425.000,363.400,92.430,18.560,1675.000,416.800,108.100,20.660,235.300,60.400,23.220,12.270,283.500,86.400,29.230,15.410,baseline
1424.000,362.700,92.160,18.530,1672.000,416.300,108.000,20.670,234.100,60.500,23.200,12.290,284.200,86.450,29.320,15.420,baseline
1425.000,363.400,92.360,18.550,1673.000,416.300,107.900,20.690,236.400,60.190,23.200,12.270,284.900,86.540,29.280,15.470,baseline
1426.000,365.300,92.330,18.530,1677.000,416.600,108.000,20.670,237.100,60.460,23.220,12.290,285.100,86.790,29.370,15.530,baseline
1427.000,364.100,92.560,18.640,1677.000,417.500,108.300,20.730,237.300,60.390,23.310,12.350,286.700,87.410,29.620,15.610,baseline
1430.000,365.000,92.930,18.730,1676.000,416.900,108.200,20.670,236.500,60.940,23.410,12.370,288.000,87.740,29.640,15.590,baseline
1426.000,362.400,92.170,18.500,1670.000,415.700,107.900,20.620,237.100,60.450,23.240,12.210,283.300,85.760,28.990,15.220,baseline
1417.000,361.600,91.640,18.400,1675.000,415.800,107.300,20.490,233.700,59.960,23.030,12.170,281.300,85.440,28.910,15.190,baseline
1416.000,360.700,91.800,18.420,1665.000,414.100,107.500,20.530,234.800,59.830,23.000,12.140,281.200,85.580,28.920,15.200,baseline
1416.000,360.300,91.430,18.330,1667.000,414.200,107.200,20.540,234.000,59.810,22.990,12.150,282.000,85.480,28.910,15.220,baseline
1415.000,360.700,91.510,18.390,1665.000,414.400,107.400,20.550,234.300,59.840,22.950,12.150,281.800,85.790,29.000,15.280,baseline
1417.000,361.600,91.820,18.460,1666.000,415.000,107.400,20.530,235.200,60.000,23.120,12.180,283.200,86.190,29.190,15.390,baseline
1419.000,361.600,92.040,18.480,1666.000,414.600,107.500,20.530,235.100,59.800,23.140,12.230,285.000,86.740,29.370,15.460,baseline
1420.000,362.400,91.440,18.370,1662.000,413.500,107.300,20.400,237.700,59.800,23.150,12.210,283.000,85.540,28.820,15.110,baseline
1410.000,357.200,90.960,18.240,1659.000,412.600,106.700,20.400,233.900,59.350,22.840,12.060,279.600,84.560,28.430,14.980,baseline
1406.000,357.800,90.490,18.200,1660.000,411.900,106.700,20.350,231.900,59.280,22.810,12.030,278.200,84.390,28.440,14.950,baseline
1405.000,358.200,90.680,18.120,1659.000,412.100,106.500,20.300,232.800,59.270,22.800,12.020,278.800,84.600,28.460,14.960,baseline
1403.000,357.700,90.460,18.170,1656.000,412.100,106.500,20.340,231.600,59.360,22.720,12.000,278.900,84.530,28.460,15.000,baseline
1404.000,356.400,90.080,18.100,1656.000,411.300,106.600,20.310,232.000,59.400,22.820,12.070,279.800,84.980,28.630,15.090,baseline
1405.000,356.500,91.010,18.170,1656.000,411.700,106.600,20.330,234.300,59.300,22.830,12.100,281.600,85.140,28.690,15.180,baseline
1407.000,357.500,90.940,18.230,1656.000,412.200,106.500,20.310,234.600,59.530,22.920,12.170,282.000,85.580,28.900,15.250,baseline
1407.000,357.300,90.470,18.060,1650.000,410.000,106.300,20.190,232.500,59.560,22.880,12.070,278.700,84.220,28.270,14.870,baseline
1398.000,353.900,89.710,17.920,1648.000,410.100,105.700,20.120,228.900,58.900,22.590,11.960,276.500,83.510,27.970,14.780,baseline
1397.000,353.300,89.580,17.940,1651.000,408.300,105.800,20.130,230.200,58.690,22.520,11.960,276.100,83.430,28.090,14.770,baseline
1396.000,353.700,89.630,17.870,1648.000,409.300,105.600,20.090,230.600,58.850,22.550,11.950,275.900,83.490,28.060,14.820,baseline
1394.000,352.900,89.300,17.920,1651.000,409.100,105.800,20.070,230.400,58.590,22.530,11.960,277.200,83.770,28.110,14.850,baseline
1395.000,354.200,89.630,17.980,1649.000,409.200,106.000,20.140,229.900,58.830,22.600,12.010,277.600,84.130,28.220,14.920,baseline
1397.000,354.800,89.990,17.980,1652.000,409.000,105.900,20.170,231.400,58.830,22.610,12.000,278.800,84.330,28.360,15.030,baseline
1399.000,356.200,90.220,18.060,1650.000,409.700,106.200,20.190,233.200,59.160,22.750,12.060,280.200,84.640,28.550,15.100,baseline
1401.000,357.000,90.090,17.920,1651.000,409.200,105.600,20.100,231.800,58.910,22.710,12.020,278.900,83.920,28.050,14.790,baseline
1393.000,351.800,89.330,17.750,1646.000,407.400,105.300,20.000,231.400,58.630,22.400,11.880,274.400,82.840,27.830,14.650,baseline
1389.000,352.800,88.890,17.760,1648.000,407.700,105.500,20.000,231.300,58.460,22.360,11.870,274.500,82.700,27.800,14.640,baseline
1390.000,352.600,89.250,17.790,1651.000,406.800,105.300,19.970,229.900,58.160,22.360,11.890,274.800,82.920,27.870,14.730,baseline
1389.000,351.900,89.320,17.700,1647.000,406.500,105.300,19.950,230.800,58.830,22.420,11.890,275.300,82.950,27.940,14.790,baseline
1390.000,351.400,89.210,17.780,1649.000,407.300,105.100,19.950,230.700,58.710,22.370,11.960,276.400,83.390,28.030,14.870,baseline
1391.000,353.300,88.840,17.760,1645.000,407.500,105.200,19.960,231.000,58.700,22.490,11.990,278.300,83.650,28.220,15.020,baseline
1393.000,352.700,89.430,17.860,1648.000,407.800,105.200,19.960,232.300,58.860,22.590,12.040,278.700,84.090,28.440,15.140,baseline
1397.000,353.200,89.540,17.860,1652.000,407.100,105.100,19.980,232.900,59.190,22.710,12.110,279.100,84.320,28.300,14.940,baseline
1390.000,351.100,88.810,17.660,1643.000,406.200,104.800,19.840,230.100,58.210,22.380,11.970,274.400,82.540,27.770,14.710,baseline
1387.000,351.000,88.300,17.590,1642.000,405.000,104.800,19.840,227.900,58.370,22.390,11.920,273.300,82.360,27.700,14.690,baseline
1387.000,350.900,88.250,17.650,1648.000,405.700,104.800,19.840,228.100,57.970,22.390,11.960,273.600,82.760,27.780,14.750,baseline
1388.000,352.400,88.670,17.600,1648.000,405.900,104.800,19.910,228.600,58.430,22.380,11.940,274.700,82.810,27.790,14.750,baseline
1390.000,350.800,88.820,17.710,1645.000,406.600,105.100,19.950,231.000,58.350,22.350,11.990,275.400,82.940,27.930,14.870,baseline
1392.000,351.900,88.940,17.830,1651.000,407.100,105.300,19.980,230.500,58.250,22.480,12.040,275.700,83.410,28.120,14.960,baseline
1396.000,352.800,89.400,17.870,1650.000,407.700,105.600,19.990,232.300,58.680,22.580,12.060,278.200,83.770,28.310,15.080,baseline
1400.000,354.100,89.920,17.920,1656.000,409.500,105.600,20.060,231.600,58.550,22.600,12.120,279.300,84.310,28.450,15.150,baseline
1400.000,353.800,89.400,17.810,1651.000,408.100,105.200,19.910,232.200,58.900,22.550,12.010,276.100,82.890,27.800,14.780,baseline
1393.000,352.300,89.200,17.740,1646.000,406.900,105.000,19.980,228.800,58.450,22.360,11.940,274.300,82.700,27.730,14.720,baseline
1393.000,353.500,89.140,17.750,1656.000,407.600,105.200,20.020,229.800,58.270,22.350,11.960,274.300,82.500,27.770,14.770,baseline
1395.000,353.100,89.360,17.820,1653.000,408.300,105.400,19.970,228.500,58.230,22.450,11.970,274.600,82.840,27.870,14.810,baseline
1396.000,352.400,89.600,17.840,1654.000,408.300,105.600,20.040,229.800,58.240,22.400,11.980,276.000,83.090,27.910,14.900,baseline
1399.000,354.000,90.020,17.880,1659.000,409.100,106.100,20.120,227.800,58.530,22.430,12.040,277.100,83.420,28.180,15.010,baseline
1403.000,355.600,90.220,17.980,1659.000,410.900,105.900,20.140,231.400,58.600,22.580,12.090,279.600,84.190,28.290,15.140,baseline
1406.000,355.500,90.380,18.110,1661.000,411.100,106.300,20.170,232.700,58.760,22.730,12.150,281.400,84.530,28.610,15.270,baseline
1411.000,357.600,91.020,18.170,1666.000,411.700,106.400,20.170,233.500,59.180,22.800,12.190,281.900,84.950,28.640,15.200,baseline
1406.000,355.900,90.030,17.950,1653.000,410.400,105.900,20.100,231.300,58.840,22.590,12.050,277.100,83.280,28.040,14.890,baseline
1403.000,355.700,89.900,17.980,1659.000,410.300,106.000,20.150,231.700,58.340,22.540,12.020,276.700,83.220,28.050,14.880,baseline
1404.000,355.400,90.120,18.080,1663.000,410.700,106.400,20.170,230.300,58.860,22.530,12.030,277.500,83.710,28.220,14.980,baseline
1407.000,356.700,89.860,17.990,1659.000,410.300,106.300,20.170,231.700,58.780,22.590,12.080,278.000,83.850,28.250,15.040,baseline
1408.000,356.300,90.690,18.050,1661.000,411.600,106.600,20.270,231.900,58.980,22.680,12.110,279.100,84.230,28.410,15.160,baseline
1410.000,358.300,90.810,18.170,1667.000,411.600,107.000,20.270,233.400,59.040,22.700,12.130,280.600,84.680,28.640,15.250,baseline
1415.000,358.600,91.260,18.180,1668.000,412.600,107.100,20.370,235.300,59.540,22.830,12.190,283.000,85.430,28.850,15.370,baseline
1418.000,360.900,91.630,18.410,1671.000,414.400,107.200,20.400,236.500,59.640,22.900,12.250,284.400,85.890,29.130,15.500,baseline
1421.000,360.400,91.530,18.220,1667.000,412.900,107.100,20.330,234.800,59.830,22.970,12.200,282.800,85.090,28.640,15.170,baseline
1411.000,357.500,90.900,18.150,1663.000,413.500,107.000,20.320,233.600,59.290,22.720,12.110,279.600,84.220,28.440,15.110,baseline
1413.000,358.200,90.900,18.170,1662.000,414.000,107.000,20.380,234.300,59.140,22.750,12.110,280.200,84.530,28.500,15.170,baseline
1416.000,360.000,91.820,18.260,1668.000,414.100,107.400,20.440,233.400,59.520,22.800,12.140,281.600,84.850,28.630,15.190,baseline
1418.000,359.800,91.970,18.390,1672.000,415.100,107.500,20.420,234.200,59.390,22.870,12.130,281.900,85.010,28.700,15.270,baseline
1420.000,360.500,92.270,18.470,1670.000,415.600,107.800,20.510,234.200,59.640,22.880,12.180,283.000,85.700,28.870,15.290,baseline
1424.000,363.100,92.500,18.610,1673.000,416.400,108.400,20.690,236.600,59.900,22.910,12.060,288.000,86.740,29.060,15.210,baseline
1428.000,365.100,93.000,18.650,1673.000,417.300,108.500,20.700,239.500,60.660,22.920,12.040,290.300,87.330,29.190,15.320,baseline
1427.000,362.800,92.460,18.520,1673.000,415.400,108.000,20.600,239.200,60.260,22.880,12.050,287.200,86.100,28.740,14.990,baseline
1420.000,361.100,92.430,18.510,1674.000,415.100,107.900,20.600,237.200,59.560,22.810,11.950,284.200,85.670,28.650,15.040,baseline
1420.000,362.400,92.120,18.480,1675.000,415.400,107.900,20.640,237.000,59.910,22.820,11.980,284.700,85.630,28.800,15.120,baseline
1423.000,364.000,92.480,18.520,1674.000,416.300,107.900,20.640,236.100,60.400,22.820,12.080,285.500,85.930,28.950,15.210,baseline
1422.000,363.600,92.450,18.560,1671.000,416.500,108.300,20.670,238.200,60.130,22.960,12.110,285.600,86.250,29.100,15.290,baseline
1426.000,364.000,92.770,18.620,1674.000,416.700,108.200,20.640,237.100,60.150,23.020,12.140,287.200,86.690,29.200,15.420,baseline
1427.000,364.500,92.870,18.720,1672.000,416.800,108.500,20.710,238.200,60.570,23.130,12.210,288.400,87.320,29.460,15.520,baseline
1430.000,367.400,93.590,18.740,1677.000,418.200,108.500,20.640,239.400,60.620,23.220,12.230,290.100,87.490,29.390,15.450,baseline
1423.000,362.700,92.390,18.490,1667.000,416.200,108.100,20.630,237.200,60.050,23.020,12.090,285.100,85.880,28.960,15.200,baseline
1419.000,361.200,92.490,18.530,1665.000,416.200,107.900,20.600,235.100,60.150,22.930,12.060,283.900,85.650,28.920,15.190,baseline
1418.000,363.000,92.310,18.490,1676.000,415.600,108.100,20.550,236.900,60.340,23.030,12.110,285.300,86.120,29.000,15.270,baseline
1420.000,362.300,92.040,18.480,1673.000,415.500,108.100,20.600,236.300,59.840,22.990,12.120,285.300,86.440,29.090,15.280,baseline
1419.000,361.000,92.180,18.530,1666.000,415.500,108.000,20.660,236.900,60.500,23.080,12.150,286.600,86.590,29.330,15.440,baseline
1422.000,363.600,92.720,18.610,1670.000,415.500,108.100,20.690,237.900,60.560,23.180,12.170,288.400,87.160,29.470,15.540,baseline
1424.000,364.200,93.300,18.680,1675.000,416.300,108.500,20.700,238.300,61.070,23.230,12.260,289.200,87.830,29.600,15.620,baseline
1424.000,361.600,92.460,18.500,1669.000,415.600,108.000,20.560,239.500,60.680,23.250,12.200,287.100,86.440,29.150,15.230,baseline
1415.000,361.200,91.690,18.370,1666.000,414.800,107.600,20.560,236.900,60.130,22.990,12.070,283.700,85.920,28.830,15.170,baseline
1412.000,358.400,92.000,18.430,1667.000,414.400,107.600,20.580,235.200,60.070,22.940,12.080,283.300,85.710,28.870,15.200,baseline
1414.000,359.800,91.850,18.490,1668.000,415.300,107.800,20.590,236.900,60.100,22.980,12.090,284.900,85.990,28.930,15.190,baseline
1413.000,360.400,91.740,18.460,1663.000,414.400,108.000,20.560,236.700,60.210,23.040,12.080,285.600,86.120,29.060,15.280,baseline
1414.000,361.900,92.570,18.520,1662.000,415.500,107.700,20.660,237.800,60.250,23.080,12.110,286.400,86.500,29.180,15.370,baseline
1417.000,361.600,92.450,18.610,1666.000,416.200,108.200,20.580,236.300,60.370,23.070,12.140,287.400,87.010,29.270,15.440,baseline
1420.000,365.100,92.590,18.610,1669.000,416.800,108.500,20.660,238.000,60.710,23.230,12.170,289.100,87.440,29.410,15.390,baseline
1413.000,360.700,91.580,18.370,1664.000,413.800,107.700,20.540,236.900,60.580,22.990,12.030,284.100,85.690,28.820,15.070,baseline
1405.000,358.700,91.280,18.310,1658.000,412.300,107.600,20.450,234.800,59.710,22.850,11.980,283.200,85.270,28.690,14.990,baseline
1402.000,358.000,90.900,18.270,1656.000,412.900,107.300,20.450,233.400,59.790,22.810,11.980,282.900,85.400,28.810,15.080,baseline
1402.000,358.900,91.490,18.270,1659.000,412.900,107.300,20.430,234.200,59.930,22.870,11.980,282.900,85.780,28.810,15.110,baseline
1401.000,358.300,91.410,18.210,1656.000,412.600,107.200,20.450,236.100,60.110,22.930,12.010,283.700,85.820,28.970,15.170,baseline
1402.000,357.300,91.550,18.280,1652.000,412.800,107.400,20.430,236.000,60.240,22.990,12.060,285.600,86.080,29.030,15.290,baseline
1404.000,358.600,91.330,18.300,1654.000,412.700,107.100,20.510,235.900,60.300,23.040,12.090,287.300,86.780,29.220,15.380,baseline
1407.000,360.500,92.100,18.470,1657.000,413.600,107.500,20.460,238.900,60.430,23.190,12.150,288.100,87.090,29.450,15.420,baseline
1400.000,358.500,90.660,18.180,1653.000,410.600,106.700,20.330,236.600,60.250,22.900,12.010,282.800,85.300,28.700,15.030,baseline
1393.000,354.600,90.240,18.030,1650.000,409.300,106.500,20.280,234.300,59.820,22.770,11.940,281.300,84.770,28.570,14.950,baseline
1389.000,353.400,89.830,17.960,1648.000,409.600,106.800,20.340,233.500,59.700,22.760,11.920,280.800,84.900,28.540,14.990,baseline
1389.000,354.400,89.600,18.020,1645.000,410.000,106.700,20.250,235.400,59.950,22.830,11.950,281.600,84.790,28.570,15.000,baseline
1388.000,353.700,90.010,17.950,1646.000,408.700,106.600,20.280,233.300,59.830,22.820,11.960,282.000,85.230,28.680,15.060,baseline
1389.000,354.900,90.540,18.040,1650.000,409.500,106.600,20.370,235.900,59.920,22.850,11.990,284.000,85.570,28.890,15.190,baseline
1392.000,355.000,90.670,18.090,1652.000,411.200,106.900,20.330,235.900,60.220,22.910,12.030,284.900,86.150,29.040,15.300,baseline
1394.000,356.300,90.680,18.150,1652.000,411.700,107.000,20.310,236.900,60.000,22.930,12.100,286.000,86.660,29.200,15.420,baseline
1398.000,357.200,90.560,18.110,1652.000,409.700,106.600,20.240,238.300,60.370,23.020,12.060,286.200,85.870,28.830,15.070,baseline
1386.000,352.800,89.740,17.910,1644.000,409.000,106.100,20.190,233.800,59.730,22.760,11.910,281.300,84.720,28.510,14.920,baseline
1383.000,351.900,89.540,17.820,1649.000,409.200,106.000,20.150,233.700,59.380,22.610,11.920,281.200,84.410,28.400,14.920,baseline
1382.000,352.800,89.320,17.850,1645.000,409.400,106.100,20.140,232.100,59.550,22.710,11.920,281.300,84.740,28.430,14.930,baseline
1381.000,350.900,89.370,17.820,1643.000,408.300,105.900,20.190,234.100,59.540,22.700,11.940,281.300,84.710,28.510,14.980,baseline
1383.000,352.800,89.510,17.890,1646.000,409.300,105.900,20.160,233.000,59.760,22.730,11.990,282.900,85.180,28.750,15.110,baseline
1384.000,354.600,89.710,17.890,1642.000,409.100,106.300,20.240,235.300,60.140,22.830,12.020,284.100,85.740,28.810,15.220,baseline
1387.000,354.200,90.070,18.020,1647.000,409.400,106.100,20.270,235.300,59.970,22.870,12.050,285.700,86.010,28.970,15.290,baseline
1391.000,355.500,90.400,18.000,1646.000,409.300,106.700,20.320,238.000,59.900,22.950,12.080,287.100,86.700,29.210,15.370,baseline
1392.000,354.100,89.740,17.980,1646.000,408.300,105.900,20.180,235.800,60.550,22.970,12.060,284.900,85.470,28.670,15.030,baseline
1381.000,351.600,89.540,17.800,1643.000,407.500,105.900,20.140,233.800,59.780,22.720,11.940,281.800,84.760,28.420,14.930,baseline
1379.000,350.500,89.070,17.760,1640.000,408.300,105.900,20.150,233.700,59.450,22.680,11.930,280.700,84.600,28.380,14.990,baseline
1381.000,351.500,89.140,17.780,1641.000,407.600,105.900,20.150,233.600,59.380,22.670,11.930,282.000,84.850,28.450,15.000,baseline
1380.000,350.500,89.270,17.810,1643.000,408.600,105.700,20.160,233.100,59.430,22.750,11.960,282.800,85.120,28.610,15.100,baseline
1382.000,352.100,90.030,17.860,1643.000,408.500,106.200,20.170,236.200,59.650,22.750,12.000,283.700,85.520,28.830,15.170,baseline
1385.000,353.000,89.350,17.870,1647.000,409.100,106.200,20.240,234.700,60.110,22.850,12.030,284.900,86.120,28.950,15.280,baseline
1388.000,354.000,89.800,17.970,1651.000,410.100,106.400,20.310,236.600,60.400,22.940,12.110,287.300,86.250,29.180,15.390,baseline
1392.000,355.300,90.530,18.080,1650.000,410.500,106.600,20.330,239.100,60.610,23.030,12.140,288.100,86.810,29.330,15.470,baseline
1392.000,354.200,89.630,17.880,1645.000,408.600,105.900,20.230,237.100,60.510,22.950,12.080,285.600,85.640,28.740,15.110,baseline
1391.000,353.600,90.390,18.050,1653.000,411.300,106.800,20.300,237.100,59.890,22.860,12.070,284.300,85.670,28.880,15.310,easy
1394.000,355.300,90.480,18.090,1650.000,410.500,106.800,20.430,235.800,59.980,22.910,12.120,286.800,86.560,29.190,15.440,easy
1397.000,357.100,90.990,18.100,1651.000,411.900,107.300,20.440,237.000,60.180,22.960,12.150,288.000,86.920,29.410,15.530,easy
1401.000,357.400,91.190,18.200,1661.000,411.700,107.200,20.400,237.600,60.950,23.120,12.230,290.000,87.630,29.510,15.520,easy
1397.000,355.600,90.210,18.000,1657.000,410.100,106.600,20.340,239.500,60.660,23.010,12.120,286.700,86.040,28.830,15.200,easy
1390.000,354.400,89.920,17.970,1652.000,410.100,106.600,20.280,237.000,60.280,22.900,11.990,284.600,85.640,28.890,15.180,easy
1390.000,354.200,89.880,18.030,1655.000,410.500,106.600,20.380,237.100,60.110,22.860,12.050,285.000,85.980,28.930,15.250,easy
1392.000,354.700,90.340,17.950,1655.000,409.900,106.600,20.360,236.900,60.440,22.980,12.100,286.000,86.040,28.970,15.270,easy
1394.000,354.500,90.630,18.040,1658.000,412.000,107.000,20.400,237.800,60.270,22.990,12.120,286.500,86.380,29.210,15.380,easy
1397.000,356.800,90.780,18.100,1664.000,412.600,107.000,20.430,238.700,60.710,23.080,12.160,288.200,86.930,29.240,15.490,easy
1401.000,357.200,91.170,18.220,1664.000,413.600,107.500,20.490,239.700,60.660,23.140,12.200,290.100,87.410,29.500,15.610,easy
1406.000,358.800,91.600,18.340,1664.000,414.200,107.600,20.560,240.400,60.700,23.190,12.270,290.800,88.000,29.830,15.790,easy
1411.000,360.700,91.780,18.360,1666.000,413.900,107.400,20.540,241.400,61.250,23.340,12.300,292.000,88.400,29.740,15.640,easy
1402.000,356.700,90.720,18.170,1659.000,412.400,107.400,20.480,241.100,61.060,23.180,12.170,287.900,86.870,29.220,15.380,easy
1400.000,357.100,90.550,18.160,1662.000,412.400,106.900,20.430,237.800,60.840,23.070,12.160,287.100,86.530,29.230,15.420,easy
1402.000,357.900,90.470,18.170,1663.000,412.700,107.200,20.530,237.500,60.780,23.120,12.180,288.100,86.960,29.340,15.470,easy
1403.000,358.100,91.110,18.240,1664.000,413.500,107.300,20.520,239.200,60.650,23.150,12.190,288.800,87.320,29.430,15.500,easy
1405.000,358.400,91.150,18.340,1666.000,414.000,107.600,20.610,238.200,61.000,23.180,12.210,289.100,87.500,29.510,15.600,easy
1409.000,358.300,91.470,18.340,1668.000,415.000,107.600,20.590,240.300,61.250,23.250,12.250,290.900,88.130,29.720,15.690,easy
1412.000,360.100,92.120,18.490,1667.000,415.900,107.800,20.690,240.900,61.450,23.390,12.300,292.400,88.720,29.940,15.830,easy
1417.000,362.700,91.960,18.580,1670.000,417.000,108.200,20.750,242.300,61.690,23.450,12.350,293.700,89.070,30.220,15.950,easy
1417.000,362.000,91.950,18.380,1668.000,414.600,107.600,20.600,242.300,61.840,23.420,12.300,291.800,88.370,29.700,15.650,easy
1408.000,359.200,91.120,18.360,1666.000,414.900,107.500,20.610,240.000,60.940,23.240,12.220,290.000,87.540,29.580,15.540,easy
1408.000,359.500,91.480,18.370,1663.000,414.600,107.700,20.670,240.400,61.050,23.250,12.230,289.600,87.780,29.660,15.590,easy
1411.000,359.700,91.680,18.400,1665.000,415.100,107.900,20.730,239.300,61.110,23.360,12.260,290.600,87.940,29.690,15.610,easy
1411.000,361.300,91.640,18.450,1663.000,416.200,108.100,20.650,241.100,61.280,23.360,12.250,290.500,88.030,29.800,15.640,easy
1413.000,361.600,91.760,18.520,1673.000,415.700,108.200,20.700,240.600,61.440,23.370,12.310,292.500,88.510,29.920,15.790,easy
1417.000,362.900,92.490,18.520,1668.000,415.900,108.200,20.830,242.900,61.500,23.490,12.330,293.400,89.180,30.110,15.890,easy
1421.000,363.600,92.840,18.660,1677.000,417.600,108.300,20.770,241.600,61.790,23.580,12.380,294.800,89.650,30.310,15.970,easy
1417.000,361.500,91.990,18.420,1670.000,413.800,108.000,20.630,242.500,61.850,23.480,12.310,291.800,88.160,29.770,15.600,easy
1409.000,359.700,91.250,18.400,1668.000,415.000,107.600,20.650,238.700,61.230,23.380,12.240,290.200,87.760,29.590,15.570,easy
1408.000,359.700,91.240,18.360,1666.000,414.800,107.700,20.650,237.700,61.330,23.320,12.230,289.300,87.910,29.640,15.580,easy
1411.000,360.500,92.100,18.390,1668.000,415.400,107.800,20.630,239.800,61.290,23.320,12.230,290.100,88.010,29.700,15.580,easy
1411.000,360.700,91.560,18.440,1664.000,415.300,107.800,20.710,240.400,61.660,23.370,12.260,290.800,88.180,29.770,15.640,easy
1412.000,360.000,91.880,18.500,1665.000,415.400,108.100,20.680,240.600,61.620,23.440,12.300,292.200,88.560,29.950,15.780,easy
1415.000,361.400,91.960,18.580,1668.000,417.300,108.400,20.730,241.700,61.870,23.540,12.350,292.500,89.210,30.160,15.890,easy
1420.000,363.800,92.790,18.690,1667.000,416.600,108.200,20.720,241.900,62.050,23.640,12.380,294.600,89.370,30.110,15.840,easy
1411.000,360.100,91.470,18.340,1663.000,413.800,107.600,20.600,242.900,61.400,23.380,12.250,290.200,87.710,29.540,15.470,easy
1404.000,357.100,91.090,18.310,1662.000,413.400,107.700,20.560,238.900,61.430,23.250,12.190,287.700,87.100,29.430,15.410,easy
1403.000,358.100,90.920,18.290,1658.000,414.300,107.200,20.610,238.100,61.040,23.170,12.200,287.900,87.430,29.450,15.430,easy
1403.000,358.100,90.880,18.240,1664.000,414.100,107.600,20.540,238.900,61.110,23.270,12.180,288.700,87.480,29.470,15.470,easy
1402.000,357.900,91.000,18.280,1659.000,413.000,107.200,20.620,239.000,61.080,23.330,12.210,288.600,87.610,29.590,15.480,easy
1404.000,359.000,91.090,18.290,1660.000,413.700,107.400,20.590,241.300,61.290,23.350,12.240,290.200,87.800,29.600,15.590,easy
1407.000,359.400,91.320,18.310,1662.000,414.200,107.700,20.660,240.700,61.370,23.400,12.270,291.300,88.370,29.850,15.700,easy
1410.000,359.600,91.640,18.430,1660.000,414.700,107.300,20.570,242.200,61.360,23.410,12.320,292.100,88.270,29.760,15.590,easy
1403.000,357.500,90.710,18.220,1660.000,412.200,106.800,20.460,238.500,61.450,23.260,12.160,287.000,86.940,29.140,15.270,easy
1396.000,355.300,90.190,18.080,1656.000,410.900,106.700,20.370,238.200,60.770,23.120,12.090,285.800,86.440,29.030,15.210,easy
1392.000,355.600,90.200,18.030,1651.000,410.700,106.700,20.460,237.100,60.770,23.120,12.090,286.000,86.270,29.000,15.200,easy
1393.000,354.000,90.060,17.990,1654.000,411.300,106.500,20.350,236.700,60.810,23.100,12.090,285.700,86.350,29.040,15.200,easy
1391.000,355.400,89.890,18.060,1649.000,411.100,106.700,20.330,237.800,61.050,23.090,12.110,285.900,86.700,29.120,15.290,easy
1393.000,355.000,90.280,18.030,1647.000,410.100,106.700,20.390,238.600,60.770,23.100,12.150,287.500,87.170,29.230,15.350,easy
1394.000,356.100,90.230,18.130,1653.000,411.500,106.700,20.390,238.300,60.920,23.170,12.170,288.300,87.570,29.370,15.450,easy
1398.000,356.300,90.790,18.160,1653.000,411.400,106.500,20.340,238.300,61.210,23.270,12.200,289.500,87.620,29.410,15.340,easy
1391.000,354.100,89.450,17.870,1644.000,409.800,105.700,20.260,238.500,60.830,23.060,12.080,284.900,86.180,28.890,15.040,easy
1384.000,351.400,89.290,17.810,1644.000,408.500,105.800,20.180,237.200,60.560,22.920,12.000,283.800,85.660,28.720,15.020,easy
1382.000,351.100,89.100,17.780,1641.000,408.100,105.600,20.180,235.700,60.350,22.950,12.030,283.900,85.470,28.720,15.060,easy
1383.000,351.100,89.400,17.740,1644.000,407.400,105.700,20.160,234.900,60.410,23.000,12.030,283.900,85.630,28.720,15.090,easy
1382.000,351.100,88.840,17.810,1641.000,408.100,105.800,20.190,236.300,60.250,22.960,12.040,284.500,85.950,28.910,15.110,easy
1385.000,352.600,89.080,17.850,1643.000,408.700,105.800,20.170,237.200,60.450,23.020,12.050,285.400,86.370,28.960,15.240,easy
1387.000,353.100,89.600,17.870,1647.000,408.700,105.800,20.210,237.000,60.630,23.080,12.100,286.600,86.570,29.170,15.310,easy
1390.000,353.900,89.630,17.970,1649.000,409.100,106.100,20.210,237.900,60.360,23.140,12.160,288.100,87.030,29.270,15.370,easy
1388.000,354.000,89.070,17.840,1643.000,406.800,105.500,20.160,239.600,60.750,23.050,12.090,285.100,85.780,28.780,15.000,easy
1380.000,349.900,88.480,17.690,1641.000,406.100,105.400,20.120,233.500,60.230,22.910,11.990,282.600,84.990,28.620,14.940,easy
1378.000,350.300,88.620,17.720,1640.000,406.500,105.700,20.110,234.100,59.790,22.810,11.970,282.600,85.220,28.600,15.020,easy
1379.000,350.700,88.750,17.670,1642.000,407.100,105.200,20.140,235.700,60.090,22.850,11.980,283.200,85.110,28.670,15.000,easy
1379.000,350.500,88.950,17.720,1642.000,407.700,105.400,20.100,234.900,60.360,22.800,11.980,283.200,85.500,28.690,15.060,easy
1381.000,352.000,88.950,17.740,1639.000,406.900,105.600,20.160,236.200,59.950,22.870,12.010,283.900,85.930,28.760,15.130,easy
1384.000,351.500,89.050,17.770,1643.000,407.200,105.400,20.160,237.200,60.430,22.980,12.070,285.200,86.310,28.970,15.250,easy
1387.000,353.400,89.480,17.870,1642.000,408.200,105.800,20.200,235.900,60.380,23.050,12.120,286.400,86.560,29.140,15.290,easy
1387.000,352.800,89.050,17.710,1642.000,406.800,105.300,20.080,236.000,60.270,22.980,12.040,283.600,85.490,28.580,14.950,easy
1379.000,349.900,88.330,17.570,1640.000,406.400,105.300,20.070,234.100,59.720,22.760,11.920,281.500,84.780,28.420,14.880,easy
1377.000,350.400,88.180,17.600,1641.000,406.500,105.200,20.000,233.200,60.080,22.740,11.950,281.100,84.820,28.450,14.930,easy
1379.000,348.800,88.290,17.620,1639.000,405.200,105.000,20.070,234.100,59.790,22.780,11.940,281.500,84.680,28.410,14.900,easy
1379.000,349.900,88.310,17.590,1640.000,405.600,105.100,20.040,234.600,59.730,22.780,11.940,281.600,84.910,28.450,14.990,easy
1381.000,350.400,88.800,17.660,1643.000,407.000,105.000,20.060,235.700,60.000,22.790,11.990,282.700,85.200,28.660,15.060,easy
1382.000,351.000,88.700,17.750,1641.000,406.500,105.200,20.080,234.000,59.770,22.850,12.020,284.000,85.620,28.790,15.170,easy
1387.000,352.800,89.350,17.810,1645.000,406.700,105.200,20.070,233.600,60.440,22.960,12.070,285.200,85.890,28.820,15.060,easy
1381.000,349.300,88.370,17.570,1641.000,405.700,104.800,20.000,234.900,59.870,22.660,11.910,279.700,84.400,28.180,14.780,easy
1376.000,347.600,87.830,17.510,1637.000,404.600,104.700,19.890,233.200,59.650,22.550,11.850,278.700,83.720,28.130,14.700,easy
1375.000,348.300,87.850,17.540,1638.000,405.500,104.500,19.950,232.900,59.620,22.540,11.850,279.000,83.970,28.210,14.710,easy
1377.000,349.100,88.080,17.500,1637.000,405.300,104.900,19.920,233.600,59.340,22.550,11.860,279.600,84.190,28.140,14.770,easy
1377.000,349.200,88.200,17.580,1638.000,405.100,104.700,19.980,229.600,59.380,22.530,11.870,279.100,84.020,28.270,14.850,easy
1380.000,348.500,88.140,17.580,1636.000,405.500,104.800,19.990,232.800,59.660,22.600,11.920,280.500,84.600,28.410,14.920,easy
1381.000,350.300,88.410,17.630,1641.000,405.900,105.100,20.030,233.800,59.600,22.680,11.950,281.800,85.020,28.560,15.010,easy
1385.000,351.000,88.640,17.720,1639.000,405.800,104.900,19.990,236.800,59.430,22.850,11.970,283.400,85.220,28.550,14.920,easy
1378.000,348.200,87.740,17.480,1638.000,404.900,104.500,19.920,234.800,59.140,22.520,11.820,277.700,83.380,27.900,14.620,easy
1375.000,347.100,87.590,17.390,1640.000,404.000,104.300,19.880,231.200,58.980,22.410,11.770,276.500,82.990,27.790,14.510,easy
1373.000,346.700,87.510,17.370,1638.000,403.800,104.300,19.880,231.400,58.960,22.400,11.770,276.300,83.010,27.770,14.540,easy
1375.000,347.500,87.760,17.420,1638.000,404.500,104.100,19.850,231.800,59.060,22.360,11.770,277.000,83.020,27.800,14.550,easy
1374.000,348.100,87.420,17.400,1634.000,404.500,104.500,19.890,232.200,58.620,22.370,11.770,277.000,83.290,27.820,14.650,easy
1376.000,347.100,88.100,17.460,1638.000,405.000,104.700,19.850,231.600,58.960,22.410,11.810,278.500,83.500,28.080,14.750,easy
1379.000,349.700,88.030,17.590,1641.000,404.500,104.800,19.920,234.400,58.840,22.470,11.870,279.800,84.130,28.190,14.850,easy
1383.000,350.800,88.490,17.630,1645.000,405.200,104.900,19.970,232.600,59.040,22.610,11.900,280.900,84.560,28.360,14.940,easy
1381.000,349.000,87.830,17.450,1637.000,403.900,104.100,19.850,234.900,59.650,22.500,11.800,277.200,83.050,27.750,14.500,easy
1374.000,346.900,87.360,17.350,1635.000,403.400,104.100,19.780,231.300,58.620,22.230,11.720,275.000,82.220,27.510,14.400,easy
1371.000,346.500,87.090,17.380,1636.000,403.400,104.000,19.790,230.400,58.360,22.240,11.680,274.000,82.350,27.510,14.450,easy
1373.000,347.300,87.380,17.420,1632.000,402.600,104.100,19.790,230.200,58.740,22.240,11.720,274.700,82.410,27.580,14.440,easy
1374.000,347.700,87.640,17.330,1635.000,402.800,104.200,19.790,232.000,58.770,22.190,11.720,275.400,82.550,27.650,14.510,easy
1375.000,347.300,87.840,17.460,1633.000,403.500,104.300,19.810,231.700,58.660,22.300,11.760,276.900,83.010,27.840,14.630,easy
1378.000,348.900,87.920,17.520,1640.000,404.500,104.400,19.860,232.200,58.930,22.400,11.800,278.900,83.710,28.070,14.740,easy
1382.000,350.500,88.160,17.560,1641.000,404.700,104.600,19.920,233.700,58.960,22.450,11.860,280.300,84.320,28.210,14.880,easy
1385.000,350.600,88.810,17.680,1636.000,405.300,104.500,19.850,234.600,59.200,22.580,11.940,280.900,84.400,28.310,14.850,easy
1380.000,348.900,87.720,17.410,1635.000,404.200,103.900,19.770,233.100,58.850,22.290,11.770,276.800,82.810,27.620,14.510,easy
1375.000,345.900,87.920,17.410,1631.000,402.900,104.000,19.790,231.000,58.490,22.220,11.730,275.100,82.390,27.600,14.470,easy
1375.000,347.000,87.670,17.430,1637.000,403.700,104.200,19.810,230.600,58.880,22.250,11.730,275.500,82.980,27.680,14.520,easy
1377.000,347.300,87.800,17.450,1641.000,403.900,104.200,19.830,231.200,58.800,22.260,11.760,276.400,82.900,27.710,14.530,easy
1378.000,348.200,87.920,17.480,1639.000,404.900,104.600,19.870,232.900,58.870,22.300,11.780,277.100,83.070,27.900,14.650,easy
1380.000,349.000,88.190,17.590,1642.000,404.700,104.600,19.900,233.200,58.910,22.350,11.840,278.900,83.770,28.110,14.790,easy
1384.000,350.200,88.510,17.640,1641.000,405.000,104.700,19.960,230.900,59.240,22.470,11.890,280.300,84.120,28.270,14.910,easy
1386.000,351.600,89.040,17.740,1642.000,407.300,105.000,20.000,232.200,59.770,22.580,11.920,282.500,84.820,28.470,15.050,easy
1389.000,352.100,88.790,17.660,1644.000,405.200,104.700,19.890,234.200,59.680,22.600,11.940,281.200,84.220,28.010,14.690,easy
1380.000,349.300,88.180,17.540,1640.000,404.700,104.600,19.880,231.100,58.660,22.370,11.780,277.300,82.890,27.760,14.570,easy
1379.000,349.700,87.970,17.540,1635.000,404.400,104.700,19.880,232.100,58.650,22.320,11.780,277.300,83.110,27.800,14.630,easy
1381.000,350.100,87.990,17.580,1635.000,406.200,104.600,19.900,231.300,58.820,22.420,11.820,278.800,83.360,27.940,14.670,easy
1382.000,350.300,88.260,17.590,1638.000,405.300,104.700,19.950,230.600,58.480,22.360,11.850,278.200,83.560,28.040,14.730,easy
1384.000,351.100,88.710,17.650,1642.000,405.700,104.800,19.960,230.600,59.240,22.460,11.890,279.600,84.260,28.170,14.840,easy
1387.000,352.000,88.670,17.750,1643.000,407.200,105.300,19.950,234.400,59.220,22.540,11.950,281.200,84.590,28.470,14.970,easy
1391.000,352.500,89.480,17.880,1647.000,406.400,105.600,20.100,236.300,59.370,22.650,12.000,284.000,85.360,28.640,15.110,easy
1393.000,353.900,89.360,17.820,1646.000,407.300,105.300,19.990,237.100,59.500,22.770,12.010,282.800,84.570,28.200,14.790,easy
1385.000,349.800,88.530,17.610,1640.000,406.700,105.100,19.990,232.800,59.090,22.450,11.850,277.800,83.510,27.970,14.630,easy
1383.000,350.600,88.570,17.600,1642.000,406.200,105.100,19.980,232.400,58.980,22.410,11.850,278.600,83.450,27.960,14.670,easy
1384.000,350.600,89.010,17.690,1645.000,406.400,105.300,19.990,231.700,59.100,22.440,11.860,279.100,83.580,28.010,14.710,easy
1385.000,351.400,88.960,17.750,1645.000,407.400,105.100,20.020,233.500,59.290,22.500,11.870,279.800,84.090,28.180,14.750,easy
1386.000,352.300,88.820,17.760,1645.000,407.400,105.500,20.050,234.700,59.430,22.600,11.910,281.000,84.250,28.260,14.910,easy
1389.000,353.200,89.450,17.880,1645.000,407.200,105.500,20.110,234.300,59.320,22.680,11.990,282.800,85.000,28.510,15.030,easy
1393.000,353.200,89.930,17.940,1644.000,408.200,105.600,20.140,234.500,59.760,22.830,12.040,284.300,85.540,28.780,15.140,easy
1396.000,355.400,90.270,18.000,1649.000,408.500,105.800,20.100,236.400,59.940,22.880,12.100,285.400,86.010,28.780,15.030,easy
1390.000,351.100,89.460,17.740,1648.000,407.800,105.500,20.030,235.700,59.530,22.620,11.930,280.000,83.910,28.050,14.690,easy
1385.000,351.000,88.750,17.680,1648.000,407.000,105.400,20.060,233.400,59.060,22.520,11.890,278.600,83.550,28.000,14.670,easy
1384.000,352.200,89.220,17.740,1642.000,406.400,105.300,20.060,233.100,59.200,22.490,11.880,279.400,83.860,28.060,14.750,easy
1386.000,352.400,89.170,17.720,1643.000,407.800,105.500,20.070,233.300,59.320,22.580,11.910,279.900,83.970,28.120,14.750,easy
1385.000,352.000,89.400,17.720,1641.000,407.000,105.300,20.100,234.200,59.260,22.640,11.960,280.500,84.560,28.260,14.850,easy
1388.000,353.700,89.530,17.800,1649.000,407.200,105.600,20.140,233.000,59.540,22.720,12.010,281.700,85.070,28.480,14.960,easy
1391.000,354.000,90.170,17.880,1647.000,408.500,106.100,20.150,234.800,59.800,22.810,12.050,284.000,85.670,28.690,15.110,easy
1395.000,355.200,90.060,17.960,1647.000,409.100,106.200,20.190,237.200,60.060,22.930,12.100,286.100,86.180,28.910,15.210,easy
1396.000,356.100,90.190,17.930,1651.000,408.000,105.600,20.140,236.400,60.100,22.930,12.070,283.300,84.880,28.400,14.790,easy
1387.000,352.100,89.160,17.760,1643.000,407.300,105.600,20.080,235.500,59.630,22.670,11.960,280.200,83.910,28.180,14.700,easy
1386.000,352.500,89.420,17.780,1640.000,407.200,105.600,20.100,233.600,59.330,22.600,11.920,279.700,84.080,28.120,14.740,easy
1387.000,353.900,89.420,17.860,1644.000,407.900,105.500,20.120,232.800,59.500,22.750,11.930,280.900,84.280,28.250,14.760,easy
1388.000,353.300,89.590,17.850,1649.000,407.800,105.900,20.150,237.000,59.770,22.680,11.990,281.400,84.700,28.420,14.860,easy
1390.000,354.000,89.820,17.930,1648.000,408.100,105.900,20.180,234.600,59.730,22.740,12.010,282.900,85.170,28.580,15.000,easy
1393.000,355.900,90.230,17.980,1647.000,409.200,105.900,20.220,234.600,59.980,22.860,12.080,284.400,85.680,28.780,15.130,easy
1397.000,355.900,90.390,18.050,1653.000,409.000,106.200,20.270,235.700,60.200,23.030,12.140,286.500,86.360,28.990,15.300,easy
1401.000,357.700,91.070,18.160,1654.000,411.100,106.100,20.330,237.200,60.630,23.140,12.200,287.800,86.850,29.120,15.250,easy
1398.000,355.100,89.870,17.960,1651.000,409.400,105.900,20.100,237.500,60.430,22.960,12.060,282.500,85.180,28.450,14.900,easy
1392.000,355.000,89.770,17.940,1650.000,408.900,105.800,20.180,236.300,59.820,22.810,12.010,281.900,84.950,28.420,14.930,easy
1392.000,353.700,90.250,17.980,1649.000,408.800,105.900,20.210,236.700,59.840,22.870,12.030,282.700,85.030,28.580,14.970,easy
1395.000,355.800,90.200,18.060,1652.000,408.700,105.900,20.210,236.800,60.020,22.900,12.040,283.600,85.330,28.610,15.000,easy
1395.000,356.400,90.150,18.030,1653.000,409.800,106.100,20.290,237.800,60.230,22.930,12.090,283.800,85.790,28.700,15.090,easy
1398.000,357.000,90.650,18.090,1650.000,410.100,106.500,20.290,236.200,59.990,23.060,12.120,285.200,86.110,28.990,15.210,easy
1402.000,358.900,90.730,18.190,1653.000,411.500,106.700,20.330,237.200,60.300,23.130,12.190,286.600,86.630,29.100,15.300,easy
1405.000,359.900,91.310,18.280,1657.000,411.400,106.800,20.410,237.100,60.900,23.190,12.240,288.800,87.330,29.330,15.460,easy
1408.000,359.900,90.970,18.240,1657.000,410.700,106.400,20.310,239.800,60.580,23.210,12.220,287.000,86.440,28.900,15.150,easy
1400.000,357.200,90.750,18.170,1656.000,410.200,106.600,20.310,236.400,60.190,22.980,12.110,283.900,85.520,28.710,15.060,easy
1399.000,357.200,90.730,18.140,1655.000,410.500,106.700,20.310,236.400,60.010,22.990,12.130,284.200,85.690,28.730,15.070,easy
1401.000,356.100,91.040,18.170,1656.000,411.500,106.900,20.330,236.700,60.370,23.100,12.130,284.700,85.820,28.790,15.110,easy
1403.000,358.200,90.960,18.200,1658.000,411.300,106.800,20.380,236.100,60.360,23.080,12.150,285.600,86.040,29.000,15.190,easy
1405.000,358.300,91.130,18.330,1657.000,411.600,107.100,20.410,236.300,60.300,23.160,12.170,287.400,86.480,29.130,15.330,easy
1408.000,358.900,91.530,18.400,1657.000,412.400,107.100,20.460,238.200,60.770,23.150,12.220,287.800,87.140,29.390,15.430,easy
1412.000,361.200,92.000,18.420,1661.000,412.100,107.500,20.500,239.300,60.800,23.300,12.300,289.800,87.550,29.510,15.540,easy
1413.000,359.700,91.610,18.320,1656.000,411.500,107.000,20.400,240.000,61.330,23.260,12.220,286.300,86.300,28.970,15.130,easy
1404.000,357.700,90.770,18.310,1659.000,411.900,106.900,20.400,236.700,60.420,23.010,12.110,284.600,85.840,28.760,15.090,easy
1404.000,358.400,90.980,18.280,1657.000,411.300,106.900,20.490,235.100,60.440,22.990,12.100,284.500,85.890,28.810,15.110,easy
1407.000,359.600,91.440,18.360,1658.000,410.900,107.000,20.400,236.900,60.440,23.110,12.140,285.400,86.190,28.970,15.180,easy
1407.000,359.000,91.050,18.350,1659.000,411.400,107.000,20.430,234.400,60.470,23.130,12.190,285.300,86.290,29.090,15.240,easy
1409.000,360.800,91.590,18.440,1663.000,412.300,107.000,20.470,235.800,60.400,23.160,12.210,287.100,86.810,29.210,15.370,easy
1411.000,359.800,91.860,18.480,1658.000,412.700,107.300,20.530,238.000,60.620,23.280,12.250,288.800,87.300,29.480,15.460,easy
1415.000,361.600,92.320,18.550,1669.000,413.000,107.200,20.520,240.800,61.100,23.340,12.310,290.500,87.860,29.590,15.570,easy
1415.000,361.700,91.580,18.430,1657.000,411.900,107.100,20.430,241.200,60.610,23.250,12.210,286.400,86.190,28.990,15.180,easy
1407.000,358.300,90.980,18.270,1657.000,412.300,107.000,20.450,236.700,60.440,23.090,12.100,283.700,85.720,28.790,15.100,easy
1408.000,359.600,91.340,18.300,1655.000,411.200,106.900,20.450,236.300,60.470,23.060,12.130,283.800,85.870,28.920,15.140,easy
1410.000,360.500,91.560,18.350,1658.000,411.800,106.900,20.430,236.100,60.530,23.060,12.150,285.300,86.120,29.010,15.180,easy
1408.000,358.900,91.370,18.390,1658.000,411.900,107.100,20.430,237.300,60.280,23.060,12.140,285.700,86.310,29.130,15.210,easy
1411.000,361.400,91.500,18.420,1662.000,412.400,107.000,20.450,238.800,60.500,23.150,12.200,286.900,86.720,29.200,15.360,easy
1412.000,361.600,91.670,18.460,1658.000,412.600,107.100,20.500,238.600,60.700,23.230,12.240,288.000,87.120,29.480,15.450,easy
1415.000,363.200,92.070,18.570,1661.000,412.800,107.200,20.570,240.200,60.770,23.310,12.310,289.400,87.840,29.660,15.540,easy
1418.000,362.300,92.140,18.470,1665.000,411.700,106.800,20.370,238.200,61.100,23.270,12.270,287.400,86.390,28.970,15.180,easy
1410.000,359.500,91.490,18.300,1658.000,411.300,106.900,20.450,237.400,60.420,23.040,12.120,284.000,85.640,28.750,15.080,easy
1408.000,359.400,91.050,18.260,1659.000,411.600,106.800,20.400,236.300,60.290,23.030,12.130,283.400,85.620,28.790,15.120,easy
1410.000,358.200,91.160,18.370,1658.000,412.200,107.200,20.420,236.900,59.890,23.060,12.160,283.900,86.030,28.920,15.130,easy
1410.000,360.500,91.100,18.380,1658.000,411.000,106.500,20.400,235.800,60.270,23.090,12.150,284.600,86.010,28.940,15.180,easy
1411.000,360.300,91.860,18.440,1658.000,411.800,107.000,20.420,237.200,60.400,23.070,12.180,285.300,86.510,29.030,15.260,easy
1412.000,360.600,91.670,18.480,1658.000,412.600,107.100,20.490,237.300,60.660,23.190,12.240,286.300,86.760,29.340,15.360,easy
1415.000,362.600,91.940,18.560,1661.000,412.200,107.200,20.520,240.200,60.760,23.330,12.270,288.500,87.570,29.540,15.530,easy
1419.000,361.600,91.920,18.540,1662.000,412.100,106.900,20.420,239.600,60.990,23.260,12.260,287.900,86.840,29.090,15.190,easy
1410.000,359.600,91.540,18.410,1660.000,411.200,107.000,20.440,238.100,60.410,22.940,12.140,283.800,85.890,28.770,15.120,easy
1409.000,360.300,91.500,18.330,1658.000,411.200,107.000,20.440,234.300,60.400,23.000,12.120,282.900,85.600,28.760,15.090,easy
1410.000,359.100,91.650,18.340,1657.000,411.100,106.700,20.460,237.400,60.210,23.020,12.150,284.900,86.090,28.930,15.180,easy
1411.000,359.400,91.610,18.410,1654.000,411.100,107.100,20.450,236.700,60.270,23.050,12.140,284.600,86.110,28.940,15.220,easy
1412.000,360.900,91.620,18.450,1658.000,412.200,107.200,20.440,236.500,60.430,23.140,12.210,286.000,86.270,29.140,15.330,easy
1415.000,361.300,92.040,18.520,1663.000,412.000,107.000,20.540,239.200,60.740,23.130,12.230,287.400,86.950,29.320,15.430,easy
1418.000,361.500,92.150,18.590,1661.000,412.800,107.200,20.530,238.400,60.890,23.250,12.280,288.500,87.620,29.520,15.540,easy
1421.000,363.100,92.620,18.620,1661.000,412.100,107.200,20.440,241.000,60.860,23.360,12.300,289.600,87.560,29.380,15.360,easy
1414.000,361.200,91.670,18.400,1657.000,411.100,106.700,20.460,238.100,60.790,23.030,12.150,284.700,86.090,28.910,15.190,easy
1412.000,359.700,91.670,18.460,1660.000,411.100,106.900,20.430,238.500,60.210,23.080,12.130,284.700,86.030,28.970,15.200,easy
1412.000,362.000,91.720,18.430,1658.000,411.500,106.800,20.490,238.100,60.090,23.070,12.170,286.400,86.390,29.070,15.300,easy
1414.000,360.400,92.040,18.500,1657.000,412.100,107.100,20.440,237.300,60.600,23.110,12.180,285.900,86.120,29.150,15.270,easy
1414.000,361.900,92.000,18.510,1657.000,411.800,107.000,20.500,235.200,60.730,23.100,12.210,286.400,86.870,29.240,15.390,easy
1416.000,362.300,92.410,18.610,1660.000,412.000,107.000,20.490,238.400,60.820,23.160,12.250,288.500,87.210,29.440,15.500,easy
1419.000,363.100,92.900,18.680,1658.000,413.400,107.400,20.590,237.600,61.120,23.300,12.310,290.000,87.840,29.630,15.620,easy
1421.000,364.200,92.850,18.590,1659.000,412.800,107.300,20.510,239.300,61.100,23.300,12.300,289.300,87.120,29.180,15.260,easy
1414.000,361.900,91.940,18.520,1658.000,411.800,107.200,20.490,239.300,60.590,23.070,12.170,285.400,86.370,29.010,15.230,easy
1414.000,361.400,92.190,18.560,1658.000,412.300,107.100,20.500,239.000,60.530,23.070,12.180,284.800,86.450,29.170,15.300,easy
1415.000,361.300,92.200,18.540,1654.000,412.500,107.300,20.510,237.100,60.540,23.140,12.210,286.600,86.640,29.200,15.300,easy
1415.000,361.700,92.130,18.580,1660.000,412.600,107.300,20.540,239.400,60.510,23.120,12.210,286.400,86.800,29.300,15.360,easy
1418.000,363.100,92.660,18.630,1659.000,412.500,107.400,20.530,237.800,60.660,23.230,12.270,288.700,87.400,29.490,15.490,easy
1419.000,363.800,92.320,18.670,1658.000,412.700,107.700,20.580,238.400,61.080,23.280,12.290,288.800,87.890,29.630,15.590,easy
1421.000,364.800,93.090,18.810,1664.000,413.300,107.600,20.600,239.100,61.250,23.320,12.360,290.500,88.270,29.730,15.600,easy
1419.000,364.200,92.370,18.600,1659.000,412.900,107.100,20.540,241.100,60.790,23.190,12.210,286.600,86.500,29.120,15.260,easy
1413.000,362.200,92.200,18.530,1660.000,411.900,107.200,20.480,237.100,60.270,23.110,12.160,284.600,86.310,28.990,15.210,easy
1413.000,363.100,92.310,18.510,1658.000,412.400,107.500,20.490,238.100,60.030,23.050,12.180,285.300,86.710,29.030,15.300,easy
1415.000,362.400,92.390,18.570,1658.000,412.400,107.200,20.510,236.200,60.780,23.150,12.190,286.700,86.850,29.070,15.280,easy
1414.000,364.100,92.450,18.580,1660.000,412.900,107.200,20.530,238.800,60.770,23.150,12.230,286.700,86.910,29.310,15.390,easy
1416.000,363.800,92.500,18.630,1658.000,412.300,107.200,20.550,236.600,60.840,23.180,12.260,288.300,87.490,29.390,15.480,easy
1418.000,363.700,92.920,18.740,1658.000,413.400,107.700,20.590,238.000,60.930,23.290,12.300,289.400,87.900,29.610,15.610,easy
1423.000,365.200,93.730,18.810,1662.000,413.400,107.500,20.570,239.800,61.190,23.410,12.350,291.300,88.080,29.610,15.470,easy
1416.000,363.200,92.420,18.590,1662.000,412.500,107.400,20.470,236.500,60.670,23.130,12.180,285.500,86.470,28.940,15.180,easy
1413.000,363.100,92.330,18.510,1655.000,411.600,107.200,20.500,237.400,60.460,23.020,12.140,285.100,86.140,28.880,15.170,easy
1412.000,363.300,92.300,18.590,1657.000,412.300,107.200,20.480,236.100,60.360,23.060,12.160,285.000,86.560,29.000,15.200,easy
1412.000,363.000,92.210,18.520,1661.000,412.500,107.200,20.460,238.100,60.320,23.150,12.160,285.400,86.400,29.060,15.220,easy
1413.000,363.700,92.550,18.560,1661.000,412.600,107.300,20.540,236.700,60.450,23.090,12.180,286.400,86.620,29.220,15.360,easy
1414.000,363.500,93.040,18.580,1656.000,413.100,107.400,20.540,237.600,60.740,23.150,12.250,288.200,87.280,29.370,15.420,easy
1417.000,364.600,93.140,18.670,1658.000,413.100,107.600,20.550,239.000,60.730,23.250,12.280,288.900,87.610,29.600,15.550,easy
1420.000,364.800,93.250,18.740,1660.000,414.500,107.500,20.580,241.000,60.890,23.350,12.350,291.200,88.240,29.650,15.500,easy
1415.000,361.900,92.340,18.580,1660.000,412.400,107.300,20.450,237.900,60.710,23.100,12.190,285.500,86.340,28.880,15.160,easy
1411.000,362.900,92.570,18.550,1661.000,412.200,107.400,20.480,236.300,59.930,23.010,12.150,284.100,85.990,28.870,15.110,easy
1410.000,361.400,92.410,18.540,1656.000,412.200,107.100,20.450,236.800,60.370,23.050,12.180,285.400,86.170,28.820,15.180,easy
1412.000,362.200,92.570,18.570,1655.000,412.500,107.400,20.460,238.500,60.400,23.020,12.160,285.300,86.290,28.950,15.180,easy
1413.000,363.200,92.410,18.580,1658.000,412.700,107.400,20.470,238.400,60.350,23.050,12.200,285.400,86.530,29.070,15.240,easy
1414.000,363.100,92.560,18.660,1658.000,413.300,107.500,20.530,237.300,60.640,23.140,12.240,286.900,87.080,29.240,15.380,easy
1417.000,363.700,92.910,18.720,1662.000,412.500,107.500,20.520,237.900,60.680,23.210,12.260,288.400,87.530,29.420,15.470,easy
1419.000,364.800,93.490,18.760,1661.000,413.700,107.800,20.600,238.700,60.860,23.320,12.300,290.300,87.800,29.550,15.600,easy
1420.000,363.300,92.920,18.670,1658.000,412.900,107.700,20.500,239.400,60.700,23.220,12.210,287.000,86.510,28.940,15.180,easy
1413.000,364.700,92.480,18.590,1656.000,412.200,107.500,20.470,237.500,60.100,23.100,12.140,285.000,86.150,28.880,15.180,easy
1414.000,363.000,92.940,18.590,1658.000,412.100,107.300,20.500,238.700,59.960,23.050,12.160,286.000,86.260,28.890,15.200,easy
1415.000,363.400,92.950,18.630,1657.000,412.200,107.500,20.510,236.300,60.290,23.100,12.180,285.900,86.750,29.130,15.250,easy
1415.000,362.400,92.850,18.660,1657.000,412.500,107.400,20.480,238.300,60.510,23.140,12.180,286.400,86.850,29.100,15.330,easy
1417.000,363.700,92.980,18.730,1659.000,413.600,107.400,20.550,237.100,60.290,23.130,12.230,287.500,87.390,29.320,15.420,easy
1421.000,365.500,93.030,18.770,1655.000,413.800,107.700,20.550,239.200,60.500,23.250,12.280,289.000,87.630,29.450,15.520,easy
1422.000,365.500,93.460,18.830,1662.000,413.700,108.100,20.600,239.300,60.960,23.320,12.320,290.400,88.340,29.750,15.650,easy
1425.000,366.200,93.420,18.780,1663.000,412.600,107.800,20.550,239.400,60.940,23.380,12.320,289.600,87.220,29.290,15.340,easy
1419.000,365.000,93.090,18.700,1657.000,413.200,107.800,20.540,237.200,60.600,23.150,12.180,286.200,86.810,29.080,15.240,easy
1419.000,364.300,93.220,18.700,1661.000,412.300,107.700,20.540,236.300,60.410,23.110,12.210,286.200,86.880,29.060,15.340,easy
1420.000,363.800,93.200,18.700,1660.000,413.400,107.700,20.570,239.300,60.520,23.140,12.220,287.400,86.970,29.250,15.360,easy
1421.000,365.800,93.260,18.790,1665.000,413.600,107.700,20.600,236.000,60.630,23.200,12.240,287.700,87.190,29.270,15.420,easy
1423.000,365.500,93.550,18.810,1659.000,412.100,107.600,20.590,237.500,60.970,23.190,12.270,288.700,87.550,29.470,15.540,easy
1424.000,366.000,93.810,18.880,1663.000,414.200,108.000,20.680,237.700,60.870,23.280,12.290,290.600,88.050,29.600,15.610,easy
1428.000,367.300,94.060,19.010,1664.000,415.300,108.300,20.690,238.400,61.210,23.370,12.360,292.000,88.660,29.890,15.730,easy
1430.000,367.400,93.690,18.880,1657.000,413.400,107.900,20.600,238.400,61.250,23.340,12.310,289.600,87.540,29.380,15.390,easy
1422.000,364.400,93.300,18.780,1661.000,413.500,107.900,20.590,236.900,60.410,23.180,12.190,287.200,86.790,29.280,15.330,easy
1423.000,366.000,93.230,18.860,1659.000,413.500,107.800,20.550,237.500,60.310,23.180,12.210,287.400,87.200,29.260,15.390,easy
1424.000,366.600,93.200,18.860,1661.000,413.100,107.800,20.610,237.200,60.580,23.200,12.220,288.200,87.070,29.410,15.430,easy
1424.000,365.200,93.740,18.810,1661.000,412.700,107.900,20.560,238.200,60.730,23.250,12.260,288.600,87.400,29.460,15.510,easy
1425.000,365.400,93.440,18.860,1665.000,413.100,108.300,20.620,238.600,60.500,23.260,12.260,289.700,87.740,29.600,15.600,easy
1428.000,367.300,94.140,18.950,1668.000,414.100,108.000,20.670,239.200,60.820,23.350,12.300,291.400,88.200,29.810,15.720,easy
1432.000,368.100,94.690,19.090,1667.000,414.900,108.200,20.730,239.500,61.260,23.440,12.370,292.000,88.950,30.030,15.810,easy
1433.000,368.600,93.640,18.900,1665.000,414.400,107.900,20.630,239.600,60.930,23.360,12.310,289.600,87.580,29.390,15.410,easy
1425.000,364.900,93.560,18.760,1664.000,413.800,107.800,20.620,238.400,60.480,23.140,12.180,287.100,86.860,29.210,15.320,easy
1423.000,366.100,93.270,18.840,1664.000,413.700,107.500,20.590,236.200,60.270,23.110,12.200,286.200,86.780,29.220,15.400,easy
1423.000,364.800,93.440,18.840,1661.000,413.000,107.800,20.600,235.700,60.380,23.220,12.220,287.300,87.060,29.360,15.450,easy
1425.000,365.600,93.440,18.840,1663.000,413.100,108.000,20.590,237.700,60.560,23.150,12.230,288.000,87.450,29.390,15.500,easy
1425.000,367.600,93.440,18.840,1660.000,413.600,107.900,20.590,238.900,60.520,23.250,12.250,289.200,87.680,29.580,15.610,easy
1427.000,366.100,93.550,18.940,1667.000,413.600,107.900,20.650,239.600,60.930,23.330,12.310,290.200,88.280,29.790,15.710,easy
1431.000,368.100,94.230,19.100,1666.000,414.100,107.900,20.710,239.000,60.700,23.390,12.330,292.500,88.910,29.990,15.790,easy
1433.000,369.100,93.980,19.040,1664.000,413.600,107.800,20.610,241.200,61.190,23.370,12.350,292.400,88.500,29.710,15.540,easy
1425.000,365.600,93.370,18.830,1664.000,412.600,107.600,20.580,237.700,60.630,23.140,12.180,287.600,87.060,29.240,15.380,easy
1423.000,365.300,93.250,18.720,1663.000,412.000,107.300,20.570,236.100,60.480,23.090,12.200,286.700,86.830,29.200,15.400,easy
1422.000,365.200,93.480,18.810,1660.000,412.700,107.400,20.560,237.600,59.980,23.130,12.210,287.400,87.070,29.360,15.440,easy
1422.000,365.500,93.120,18.840,1660.000,413.300,107.600,20.520,237.500,60.480,23.170,12.200,288.100,87.190,29.370,15.480,easy
1423.000,363.700,93.310,18.800,1662.000,413.200,107.500,20.560,239.100,60.480,23.140,12.220,288.500,87.620,29.500,15.560,easy
1424.000,365.900,93.560,18.950,1663.000,412.700,107.700,20.620,236.400,60.680,23.260,12.250,290.000,87.900,29.710,15.640,easy
1426.000,366.600,93.740,18.930,1661.000,413.100,108.000,20.650,240.900,60.640,23.270,12.310,291.500,88.700,29.920,15.800,easy
1430.000,366.500,94.330,19.070,1661.000,413.900,107.800,20.630,241.400,61.020,23.360,12.340,292.400,89.150,30.020,15.810,easy
1427.000,365.900,93.250,18.870,1659.000,411.700,107.300,20.510,240.200,60.500,23.220,12.220,288.600,87.270,29.400,15.440,easy
1421.000,363.900,93.090,18.810,1659.000,412.300,107.200,20.530,237.100,60.450,23.110,12.160,287.100,87.000,29.370,15.460,easy
1419.000,364.200,92.850,18.820,1656.000,411.400,107.200,20.460,237.900,60.240,23.060,12.190,287.100,87.090,29.390,15.520,easy
1420.000,364.100,93.020,18.850,1656.000,412.300,107.300,20.540,238.500,60.680,23.140,12.230,288.500,87.310,29.410,15.520,easy
1420.000,363.900,93.310,18.840,1659.000,411.300,107.500,20.540,238.400,60.500,23.150,12.230,288.800,87.790,29.570,15.610,easy
1422.000,365.300,93.060,18.830,1659.000,411.800,107.200,20.560,238.000,60.760,23.170,12.250,289.900,88.170,29.750,15.710,easy
1424.000,363.900,93.650,19.000,1658.000,412.800,107.500,20.600,240.100,60.910,23.300,12.290,292.100,88.950,30.010,15.860,easy
1427.000,366.900,94.000,19.060,1656.000,413.600,107.900,20.620,242.000,60.830,23.340,12.340,293.400,89.400,30.150,15.980,easy
1431.000,368.000,94.150,19.060,1658.000,412.500,107.400,20.580,239.600,61.260,23.360,12.370,293.100,89.080,30.020,15.760,easy
1422.000,363.800,93.350,18.840,1656.000,411.500,107.500,20.460,241.000,60.470,23.200,12.200,289.000,87.700,29.500,15.570,easy
1421.000,365.800,93.000,18.890,1654.000,412.200,107.300,20.500,239.500,60.580,23.180,12.200,289.400,87.660,29.460,15.630,easy
1422.000,364.700,93.330,18.910,1659.000,411.800,107.200,20.520,238.900,60.850,23.160,12.230,290.600,88.040,29.600,15.660,easy
1422.000,366.200,93.320,18.880,1653.000,411.400,107.200,20.560,238.400,60.610,23.190,12.230,290.200,88.110,29.740,15.710,easy
1424.000,366.600,93.520,18.980,1659.000,412.500,107.500,20.550,240.900,60.580,23.170,12.270,291.400,88.610,29.910,15.770,easy
1426.000,367.100,93.670,19.020,1659.000,413.100,107.400,20.640,239.700,60.820,23.370,12.280,292.600,88.780,30.080,15.910,easy
1429.000,366.800,94.320,19.130,1663.000,413.900,107.900,20.630,239.800,61.450,23.390,12.370,293.600,89.410,30.360,16.020,easy
1433.000,368.000,94.340,19.050,1662.000,412.900,107.500,20.560,241.400,61.280,23.410,12.370,294.200,89.340,30.150,15.810,easy
1425.000,364.800,93.920,18.920,1660.000,412.800,107.400,20.600,240.200,60.830,23.180,12.230,289.800,87.950,29.620,15.630,easy
1423.000,365.900,93.600,18.910,1658.000,412.900,107.300,20.580,240.200,60.620,23.170,12.230,289.600,88.130,29.770,15.690,easy
1425.000,366.100,93.680,18.980,1656.000,412.400,107.600,20.590,239.700,60.710,23.290,12.250,291.400,88.350,29.880,15.760,easy
1424.000,365.200,93.690,19.040,1652.000,412.000,107.400,20.570,240.500,61.080,23.220,12.260,291.100,88.600,29.860,15.800,easy
1426.000,366.600,94.090,19.050,1660.000,413.200,107.600,20.620,240.400,60.980,23.280,12.300,292.000,89.070,30.050,15.890,easy
1429.000,367.900,94.080,19.130,1661.000,414.400,108.000,20.660,239.600,61.170,23.420,12.340,293.500,89.390,30.220,15.950,easy
1432.000,369.200,94.470,19.190,1665.000,413.600,108.100,20.680,242.000,61.210,23.460,12.370,295.800,89.760,30.440,16.090,easy
1432.000,368.300,94.150,19.000,1657.000,412.800,107.700,20.620,242.400,61.100,23.420,12.340,292.400,88.630,29.830,15.690,easy
1424.000,366.400,93.740,18.930,1657.000,413.000,107.500,20.580,240.400,60.820,23.190,12.220,290.100,88.130,29.730,15.630,easy
1424.000,366.000,93.660,18.950,1654.000,413.200,107.500,20.590,240.200,60.690,23.160,12.230,289.700,88.090,29.860,15.710,easy
1424.000,364.900,93.710,18.960,1659.000,412.000,107.500,20.550,239.900,60.800,23.260,12.250,290.700,88.300,29.820,15.730,easy
1425.000,367.300,93.710,18.970,1661.000,413.100,107.600,20.580,239.000,61.160,23.220,12.250,291.200,88.600,29.860,15.760,easy
1426.000,366.100,94.070,19.020,1661.000,413.600,107.900,20.640,242.200,61.010,23.360,12.310,292.500,89.160,30.100,15.880,easy
1429.000,367.000,94.420,19.090,1661.000,414.500,107.900,20.670,240.100,61.040,23.370,12.340,293.900,89.490,30.290,16.010,easy
1432.000,368.500,94.780,19.180,1657.000,414.700,108.000,20.640,241.700,61.010,23.390,12.360,295.600,89.870,30.240,15.910,easy
1426.000,366.000,94.020,18.990,1663.000,412.800,107.700,20.540,239.900,61.050,23.230,12.210,290.200,87.920,29.580,15.620,easy
1422.000,367.300,93.590,19.000,1660.000,413.200,107.700,20.590,237.600,60.530,23.130,12.180,288.800,87.740,29.570,15.560,easy
1421.000,365.700,93.990,18.940,1657.000,413.300,107.500,20.540,239.600,60.620,23.190,12.210,289.000,88.080,29.530,15.620,easy
1422.000,365.600,93.700,18.980,1662.000,413.500,107.700,20.550,239.100,60.670,23.190,12.200,289.300,88.190,29.710,15.610,easy
1423.000,366.800,93.820,19.030,1659.000,413.100,108.100,20.600,237.600,60.580,23.140,12.250,290.200,88.340,29.800,15.690,easy
1424.000,365.700,94.080,19.000,1657.000,413.500,107.900,20.570,238.200,61.070,23.250,12.260,291.700,88.760,29.970,15.840,easy
1426.000,367.800,94.230,19.050,1660.000,412.800,107.800,20.640,239.500,61.120,23.290,12.310,293.300,89.260,30.200,15.920,easy
1428.000,368.200,94.510,19.080,1661.000,413.700,107.700,20.580,241.400,61.400,23.330,12.320,292.900,88.970,29.900,15.680,easy
1422.000,364.300,93.690,18.930,1656.000,412.000,107.500,20.520,239.900,60.330,23.130,12.180,288.600,87.590,29.500,15.530,easy
1419.000,364.200,93.520,18.870,1657.000,412.100,107.500,20.470,239.300,60.690,23.070,12.110,288.200,87.260,29.430,15.510,easy
1418.000,366.000,93.660,18.900,1653.000,412.600,107.700,20.480,237.800,60.550,23.030,12.150,288.900,87.690,29.500,15.550,easy
1419.000,366.000,93.710,18.920,1658.000,412.000,107.500,20.520,239.000,60.590,23.120,12.180,289.400,87.800,29.590,15.570,easy
1420.000,366.700,93.730,18.920,1654.000,412.100,107.600,20.510,238.400,60.660,23.110,12.190,289.900,87.980,29.610,15.630,easy
1422.000,367.200,93.910,18.970,1655.000,411.800,107.800,20.560,239.200,60.610,23.130,12.220,291.300,88.530,29.790,15.750,easy
1424.000,366.600,94.150,19.050,1655.000,412.700,107.900,20.560,240.300,61.060,23.230,12.260,292.100,89.000,30.040,15.860,easy
1426.000,368.500,94.350,19.000,1659.000,412.500,107.600,20.500,240.600,61.130,23.250,12.240,290.900,88.100,29.600,15.520,easy
1418.000,364.700,93.500,18.870,1655.000,412.100,107.400,20.470,237.900,60.540,23.010,12.110,287.000,87.080,29.370,15.420,easy
1417.000,365.000,93.230,18.850,1657.000,411.000,107.400,20.440,238.300,60.550,23.040,12.110,287.400,87.280,29.340,15.440,easy
1418.000,365.500,93.630,18.840,1654.000,412.700,107.500,20.500,237.900,60.530,23.060,12.130,288.900,87.310,29.410,15.480,easy
1418.000,364.100,93.720,18.870,1657.000,411.900,107.300,20.430,238.300,60.390,23.030,12.140,288.400,87.430,29.470,15.560,easy
1419.000,366.400,93.950,18.920,1655.000,411.800,107.500,20.410,239.100,60.490,23.080,12.160,290.000,88.010,29.610,15.620,easy
1421.000,367.000,93.880,18.970,1656.000,411.700,107.500,20.510,239.000,60.620,23.130,12.210,290.700,88.530,29.880,15.730,easy
1424.000,366.000,94.140,19.030,1655.000,412.700,107.700,20.570,240.700,60.930,23.190,12.250,292.600,88.930,30.060,15.860,easy
1426.000,368.100,94.400,19.030,1658.000,412.200,107.700,20.480,239.700,61.030,23.300,12.250,292.600,88.480,29.700,15.590,easy
1420.000,366.900,93.330,18.860,1652.000,411.000,107.400,20.400,237.400,60.760,22.990,12.110,287.900,87.300,29.390,15.460,easy
1419.000,364.700,93.740,18.850,1654.000,411.600,107.300,20.420,238.000,60.300,22.980,12.120,287.500,87.500,29.470,15.490,easy
1420.000,366.800,93.790,18.910,1655.000,411.500,107.200,20.450,237.000,60.570,23.040,12.150,288.300,87.700,29.540,15.550,easy
1420.000,364.800,93.740,18.920,1660.000,411.600,107.400,20.470,239.200,60.450,23.060,12.170,289.200,87.650,29.590,15.590,easy
1421.000,366.900,94.400,18.880,1656.000,412.300,107.400,20.490,236.400,60.450,23.080,12.180,290.100,87.920,29.720,15.650,easy
1423.000,367.200,93.660,18.940,1655.000,412.500,107.400,20.460,239.400,60.730,23.070,12.180,289.800,87.850,29.690,15.660,bogus
1424.000,367.900,94.250,18.980,1659.000,411.500,107.600,20.510,238.900,60.670,23.110,12.210,290.500,88.420,29.740,15.750,bogus
1427.000,367.900,94.400,19.030,1661.000,413.100,107.800,20.570,239.000,60.810,23.210,12.230,292.000,88.720,29.970,15.860,bogus
1429.000,369.200,94.770,19.120,1659.000,413.300,108.000,20.500,240.200,60.840,23.340,12.290,293.400,89.130,30.080,15.850,bogus
1426.000,366.800,94.210,18.930,1660.000,412.200,107.300,20.460,238.800,60.870,23.120,12.150,288.700,87.690,29.430,15.530,bogus
1423.000,367.500,94.420,18.980,1653.000,410.600,107.400,20.460,240.400,61.020,22.970,12.080,290.800,87.930,29.370,15.450,hard
1416.000,364.700,93.780,18.870,1648.000,409.600,107.300,20.460,236.500,60.470,22.700,11.950,286.600,86.750,29.070,15.340,hard
1416.000,364.100,93.700,18.840,1646.000,410.600,107.300,20.450,238.300,60.060,22.700,11.950,285.500,86.500,29.100,15.370,hard
1417.000,365.400,93.960,18.950,1650.000,410.600,107.300,20.470,237.700,60.370,22.700,11.970,286.900,87.010,29.170,15.410,hard
1417.000,363.700,93.730,18.940,1652.000,410.900,107.400,20.500,239.200,60.090,22.800,11.980,287.700,87.000,29.290,15.480,hard
1417.000,364.900,93.890,19.030,1650.000,410.800,107.800,20.500,240.200,60.490,22.850,12.020,289.100,87.690,29.440,15.590,hard
1420.000,367.600,94.600,19.030,1653.000,411.800,107.800,20.510,239.600,60.330,22.970,12.070,290.200,87.960,29.640,15.680,hard
1423.000,366.800,94.650,19.140,1657.000,412.500,108.000,20.600,239.100,60.730,22.990,12.110,292.000,88.690,29.800,15.780,hard
1427.000,369.400,94.940,19.170,1657.000,413.000,108.000,20.600,241.400,60.880,23.080,12.190,293.800,88.960,29.950,15.890,hard
1426.000,369.300,94.810,19.050,1653.000,412.500,108.100,20.520,242.000,60.910,23.080,12.110,290.400,87.840,29.460,15.560,hard
1420.000,366.800,94.250,19.020,1659.000,411.300,107.900,20.510,238.100,60.680,22.900,12.030,288.700,87.510,29.350,15.510,hard
1420.000,367.200,94.550,19.150,1654.000,412.000,107.900,20.560,239.200,60.500,22.820,12.060,289.000,87.660,29.400,15.560,hard
1422.000,367.100,94.300,19.030,1657.000,411.900,107.800,20.530,237.700,61.180,23.010,12.060,289.300,87.920,29.590,15.620,hard
1422.000,366.700,94.430,19.080,1659.000,412.100,108.100,20.610,239.700,60.670,22.970,12.080,290.300,88.030,29.650,15.670,hard
1424.000,369.100,95.570,19.180,1658.000,413.200,108.300,20.600,240.400,60.970,23.070,12.130,291.300,88.780,29.870,15.770,hard
1428.000,370.500,95.250,19.270,1659.000,413.700,108.300,20.670,241.600,61.160,23.200,12.180,293.000,89.430,30.100,15.900,hard
1429.000,369.300,95.280,19.300,1662.000,414.100,108.700,20.690,242.500,61.410,23.220,12.230,294.800,89.820,30.270,16.040,hard
1432.000,369.600,95.680,19.290,1661.000,414.300,108.400,20.630,242.800,61.500,23.240,12.250,295.100,89.310,30.030,15.780,hard
1424.000,367.400,94.820,19.190,1659.000,412.600,108.300,20.650,240.100,60.930,23.050,12.140,291.200,88.420,29.750,15.690,hard
1424.000,367.900,94.750,19.180,1658.000,413.000,108.300,20.600,241.300,60.820,23.070,12.130,290.800,88.230,29.790,15.740,hard
1424.000,369.400,95.100,19.240,1665.000,413.400,108.400,20.710,239.900,61.250,23.140,12.160,292.100,88.940,29.870,15.790,hard
1426.000,369.500,95.120,19.180,1665.000,413.300,108.600,20.660,241.700,61.250,23.170,12.180,291.900,88.760,30.050,15.850,hard
1428.000,369.800,95.710,19.330,1661.000,414.500,108.500,20.760,240.100,61.400,23.210,12.200,294.100,89.280,30.180,15.940,hard
1430.000,371.000,95.370,19.380,1662.000,415.500,108.800,20.730,241.400,61.420,23.360,12.230,295.000,89.840,30.280,16.080,hard
1433.000,370.700,96.010,19.390,1671.000,415.700,108.800,20.810,243.900,61.820,23.360,12.300,296.700,90.340,30.570,16.160,hard
1433.000,371.300,95.400,19.320,1658.000,414.300,108.500,20.730,245.000,61.830,23.430,12.260,295.500,89.360,30.100,15.860,hard
1426.000,368.100,95.290,19.280,1661.000,414.800,108.300,20.730,239.500,60.940,23.170,12.190,292.800,88.650,29.930,15.790,hard
1425.000,368.600,95.300,19.230,1661.000,414.700,108.400,20.730,241.500,61.550,23.220,12.180,293.200,89.140,29.980,15.850,hard
1428.000,370.000,95.100,19.340,1665.000,415.000,108.800,20.720,241.400,61.280,23.220,12.190,293.800,89.210,30.160,15.900,hard
1427.000,368.700,95.220,19.330,1659.000,414.400,108.900,20.740,241.700,61.240,23.250,12.230,293.500,89.560,30.160,15.980,hard
1429.000,369.200,95.470,19.310,1666.000,414.300,108.800,20.770,242.900,61.590,23.370,12.250,294.700,89.790,30.350,16.060,hard
1433.000,371.500,95.320,19.470,1666.000,415.200,108.900,20.830,243.000,62.240,23.490,12.290,296.900,90.300,30.600,16.200,hard
1435.000,373.100,96.140,19.520,1666.000,415.400,108.900,20.820,244.800,61.850,23.530,12.340,297.900,90.700,30.650,16.120,hard
1431.000,369.100,95.160,19.310,1663.000,414.500,108.700,20.720,244.600,61.710,23.360,12.210,293.000,89.030,30.050,15.810,hard
1426.000,368.600,95.290,19.210,1665.000,413.200,108.500,20.740,242.800,61.370,23.250,12.180,291.900,88.840,29.930,15.830,hard
1425.000,368.500,95.100,19.250,1661.000,414.800,108.600,20.710,240.500,61.390,23.290,12.190,293.600,89.050,30.150,15.850,hard
1427.000,368.300,94.880,19.230,1663.000,414.500,108.400,20.710,242.600,61.390,23.330,12.200,293.700,89.190,30.110,15.890,hard
1427.000,369.000,95.060,19.280,1664.000,413.400,108.500,20.780,242.600,61.680,23.320,12.230,293.600,89.470,30.210,16.000,hard
1430.000,368.100,95.010,19.250,1663.000,414.100,108.700,20.770,243.600,62.020,23.420,12.260,294.800,89.900,30.440,16.100,hard
1432.000,370.800,95.610,19.380,1663.000,415.100,109.000,20.820,242.700,62.000,23.440,12.300,296.600,90.310,30.690,16.210,hard
1434.000,372.400,96.120,19.400,1669.000,414.900,108.600,20.740,245.700,62.280,23.540,12.310,297.200,90.210,30.390,15.940,hard
1426.000,368.800,94.920,19.210,1667.000,414.100,108.300,20.700,244.700,61.690,23.270,12.160,292.400,88.780,29.930,15.720,hard
1424.000,366.800,94.630,19.160,1658.000,413.200,108.400,20.700,241.700,61.830,23.240,12.160,291.200,88.540,29.920,15.800,hard
1423.000,368.500,94.760,19.170,1664.000,413.600,108.300,20.720,241.600,61.300,23.280,12.190,292.500,88.880,29.950,15.820,hard
1424.000,367.500,94.360,19.170,1661.000,413.800,108.500,20.690,241.900,61.680,23.350,12.210,292.400,89.150,30.090,15.870,hard
1425.000,368.700,95.090,19.210,1661.000,413.500,108.500,20.730,240.600,61.600,23.310,12.220,293.600,89.580,30.270,15.980,hard
1427.000,368.600,95.220,19.300,1661.000,414.900,108.500,20.740,241.600,61.880,23.430,12.270,294.300,89.770,30.390,16.060,hard
1430.000,370.000,95.460,19.350,1666.000,415.500,108.600,20.800,244.600,61.820,23.430,12.300,296.200,90.520,30.560,16.150,hard
1430.000,369.800,95.180,19.240,1662.000,413.900,108.100,20.710,243.800,62.070,23.460,12.280,294.500,89.420,30.060,15.840,hard
1422.000,366.600,94.550,19.130,1660.000,413.000,108.100,20.670,241.600,61.330,23.300,12.140,291.300,88.550,29.910,15.710,hard
1422.000,366.500,94.570,19.110,1661.000,412.900,108.400,20.670,240.800,61.360,23.290,12.150,290.900,88.640,29.890,15.760,hard
1424.000,366.800,94.320,19.130,1663.000,413.300,108.200,20.680,241.200,61.760,23.260,12.150,291.800,88.820,30.020,15.780,hard
1423.000,366.200,94.580,19.120,1664.000,412.800,108.300,20.720,241.400,61.590,23.270,12.170,292.400,89.050,30.020,15.860,hard
1424.000,368.100,94.440,19.200,1660.000,413.100,108.400,20.670,242.900,61.570,23.330,12.220,293.200,89.430,30.240,15.930,hard
1427.000,367.700,94.910,19.230,1661.000,413.500,108.600,20.710,244.600,61.910,23.400,12.270,294.600,89.890,30.440,16.040,hard
1429.000,369.700,95.200,19.310,1662.000,414.700,108.600,20.780,244.200,62.330,23.500,12.270,295.900,90.370,30.430,16.070,hard
1428.000,368.800,94.510,19.110,1661.000,412.300,108.400,20.690,243.300,62.020,23.410,12.200,292.700,88.750,29.890,15.760,hard
1421.000,367.300,94.550,19.070,1657.000,412.200,108.100,20.650,239.900,61.430,23.210,12.120,290.700,88.410,29.880,15.700,hard
1421.000,366.600,94.650,19.080,1655.000,413.300,108.100,20.730,240.800,61.430,23.180,12.140,291.800,88.740,29.920,15.760,hard
1423.000,367.900,94.390,19.130,1657.000,412.900,108.100,20.690,242.700,61.420,23.220,12.160,291.500,88.790,29.980,15.750,hard
1424.000,367.000,94.650,19.210,1660.000,413.000,108.300,20.700,242.000,61.390,23.270,12.170,292.400,89.130,30.100,15.840,hard
1426.000,366.900,94.710,19.140,1660.000,413.300,108.200,20.740,241.700,61.560,23.330,12.200,293.600,89.440,30.170,15.930,hard
1428.000,368.700,94.900,19.300,1662.000,414.600,108.600,20.770,241.200,61.700,23.350,12.230,294.600,90.040,30.400,16.030,hard
1431.000,370.100,95.090,19.340,1662.000,414.000,108.400,20.740,243.900,61.900,23.470,12.270,295.200,90.020,30.370,15.890,hard
1424.000,367.100,94.030,19.180,1659.000,412.500,108.300,20.660,242.400,61.360,23.190,12.140,291.100,88.410,29.820,15.730,hard
1424.000,367.400,94.390,19.170,1662.000,411.900,108.200,20.720,240.200,61.270,23.180,12.120,290.400,88.310,29.850,15.710,hard
1425.000,367.100,94.760,19.130,1663.000,413.200,108.200,20.720,238.900,61.490,23.210,12.140,291.400,88.770,29.920,15.730,hard
1425.000,367.300,94.360,19.170,1660.000,413.300,108.200,20.700,240.400,61.480,23.220,12.130,291.500,88.670,29.940,15.770,hard
1426.000,367.600,94.600,19.270,1664.000,413.300,108.500,20.710,241.500,61.610,23.290,12.160,292.300,89.230,30.110,15.840,hard
1428.000,368.500,95.290,19.220,1664.000,414.300,108.300,20.770,242.300,61.760,23.280,12.200,293.900,89.530,30.240,15.930,hard
1431.000,370.000,95.530,19.320,1662.000,413.600,108.700,20.740,242.800,61.820,23.370,12.250,294.500,89.900,30.300,15.970,hard
1428.000,368.600,94.670,19.130,1658.000,412.700,108.100,20.670,244.300,61.400,23.190,12.160,290.900,88.560,29.780,15.660,hard
1423.000,366.900,94.470,19.130,1659.000,412.700,108.200,20.690,240.600,61.300,23.130,12.100,289.200,88.100,29.610,15.640,hard
1422.000,367.800,94.300,19.090,1658.000,412.600,108.400,20.670,240.500,61.550,23.120,12.090,290.500,88.410,29.840,15.680,hard
1426.000,367.300,94.550,19.080,1663.000,412.800,108.500,20.700,239.700,61.380,23.140,12.090,290.300,88.200,29.810,15.700,hard
1426.000,366.800,94.770,19.200,1660.000,413.700,108.300,20.740,242.300,61.220,23.150,12.110,291.200,88.640,29.900,15.750,hard
1426.000,370.500,94.810,19.200,1666.000,413.000,108.300,20.780,241.600,61.440,23.220,12.160,292.100,89.040,30.110,15.810,hard
1429.000,369.800,95.030,19.270,1664.000,413.000,108.600,20.720,240.500,61.480,23.270,12.180,293.100,89.450,30.180,15.910,hard
1431.000,368.600,94.980,19.220,1659.000,413.900,108.300,20.670,241.400,61.560,23.270,12.160,291.500,88.490,29.690,15.640,hard
1424.000,367.300,94.480,19.120,1662.000,413.200,108.200,20.650,239.500,61.320,23.020,12.030,288.500,87.490,29.400,15.460,hard
1422.000,366.700,94.410,19.040,1660.000,412.600,108.100,20.650,240.400,61.160,22.960,12.000,288.100,87.380,29.340,15.490,hard
1422.000,366.100,94.350,19.140,1659.000,413.200,108.000,20.650,240.400,61.030,23.010,12.010,287.900,87.390,29.450,15.500,hard
1423.000,367.200,94.250,19.080,1659.000,411.800,108.100,20.660,239.500,60.850,23.030,12.040,288.400,87.510,29.490,15.510,hard
1424.000,368.200,94.620,19.070,1656.000,412.900,108.200,20.720,240.600,61.230,23.050,12.070,289.200,87.980,29.600,15.600,hard
1425.000,368.700,94.690,19.240,1660.000,413.100,108.300,20.730,241.500,61.270,23.140,12.110,289.900,88.230,29.760,15.700,hard
1428.000,369.200,95.050,19.270,1660.000,413.500,108.400,20.650,240.900,61.430,23.110,12.140,291.800,88.640,29.740,15.600,hard
1423.000,367.800,93.750,19.040,1656.000,412.400,108.200,20.650,240.300,61.060,22.950,11.990,286.300,87.010,29.100,15.280,hard
1420.000,365.500,94.040,18.980,1658.000,411.400,108.100,20.610,239.800,60.680,22.870,11.940,285.500,86.530,28.990,15.240,hard
1419.000,366.900,93.910,18.990,1660.000,411.900,108.000,20.690,237.100,60.410,22.810,11.940,285.200,86.700,28.980,15.250,hard
1420.000,368.600,94.170,19.010,1656.000,411.700,108.000,20.650,238.400,60.800,22.870,11.940,285.200,86.620,29.100,15.300,hard
1420.000,367.000,94.190,19.060,1659.000,412.800,108.200,20.650,237.100,60.500,22.850,11.960,286.400,87.070,29.140,15.360,hard
1422.000,369.100,94.540,19.060,1658.000,413.000,108.200,20.640,240.300,60.820,22.860,11.990,287.300,87.320,29.290,15.470,hard
1424.000,367.400,94.880,19.170,1663.000,413.800,108.200,20.700,237.900,60.600,22.960,12.020,288.200,87.750,29.400,15.560,hard
1425.000,368.500,94.760,19.110,1654.000,412.100,108.100,20.630,239.400,60.890,22.950,12.000,286.700,86.690,29.070,15.250,hard
1418.000,366.000,93.730,19.060,1653.000,411.900,107.800,20.600,237.700,60.210,22.690,11.900,283.400,86.010,28.830,15.120,hard
1417.000,365.300,94.120,18.960,1653.000,412.400,107.700,20.560,237.800,60.300,22.690,11.860,282.700,85.880,28.710,15.130,hard
1416.000,365.600,94.250,19.000,1655.000,411.700,107.900,20.580,237.800,60.230,22.680,11.880,283.300,86.040,28.800,15.130,hard
1417.000,364.300,94.200,18.960,1657.000,411.200,107.700,20.620,238.200,60.410,22.710,11.870,283.400,85.880,28.880,15.200,hard
1418.000,367.200,94.340,19.040,1655.000,411.800,108.000,20.660,236.800,60.030,22.750,11.910,284.900,86.230,28.900,15.270,hard
1419.000,366.800,94.590,19.070,1654.000,412.000,107.800,20.660,237.600,60.260,22.830,11.950,285.800,86.840,29.210,15.370,hard
1422.000,367.100,94.590,19.140,1656.000,412.300,108.000,20.720,238.700,60.580,22.930,12.020,287.800,87.350,29.380,15.500,hard
1424.000,367.400,94.550,19.100,1656.000,412.200,107.800,20.600,238.200,60.530,22.890,12.000,285.300,86.200,28.850,15.180,hard
1417.000,365.500,94.570,18.960,1656.000,411.700,107.900,20.590,237.300,60.540,22.640,11.870,283.000,85.640,28.660,15.080,hard
1415.000,364.900,94.250,18.940,1653.000,411.600,107.600,20.560,239.200,59.970,22.680,11.850,282.800,85.700,28.690,15.140,hard
1416.000,366.800,94.000,18.990,1653.000,411.700,107.800,20.580,237.000,60.150,22.650,11.880,283.900,85.900,28.820,15.160,hard
1417.000,365.300,94.420,19.060,1651.000,411.600,107.800,20.610,236.800,60.150,22.660,11.890,284.400,86.230,28.820,15.220,hard
1418.000,366.800,94.120,19.100,1655.000,411.800,108.000,20.620,237.800,60.260,22.720,11.940,285.500,86.560,29.090,15.340,hard
1420.000,367.600,94.690,19.160,1653.000,412.000,108.300,20.700,236.500,60.840,22.810,11.970,286.300,86.930,29.170,15.450,hard
1423.000,367.900,95.040,19.240,1658.000,413.400,108.200,20.650,239.600,60.580,22.910,12.060,288.200,87.440,29.400,15.550,hard
1424.000,367.600,94.670,19.060,1656.000,412.100,107.900,20.630,239.600,61.070,22.830,11.980,285.500,86.250,28.910,15.210,hard
1418.000,365.800,94.020,19.030,1659.000,412.000,108.000,20.580,235.500,59.990,22.690,11.900,283.300,85.900,28.770,15.170,hard
1417.000,365.700,94.020,19.040,1653.000,411.500,107.800,20.650,237.600,60.150,22.680,11.910,284.000,86.130,28.910,15.260,hard
1418.000,365.800,94.720,19.050,1661.000,412.300,108.000,20.640,237.000,60.270,22.710,11.940,284.600,86.190,28.870,15.250,hard
1419.000,367.600,94.750,19.080,1655.000,412.000,108.300,20.630,236.400,60.010,22.740,11.950,285.200,86.420,29.020,15.350,hard
1420.000,367.300,94.940,19.110,1663.000,412.200,108.000,20.670,236.400,60.470,22.840,11.990,286.300,87.010,29.270,15.450,hard
1424.000,368.500,94.710,19.200,1662.000,413.400,108.300,20.720,239.200,60.560,22.890,12.050,287.700,87.490,29.450,15.580,hard
1426.000,368.900,94.990,19.300,1658.000,413.000,108.200,20.730,238.700,60.930,22.980,12.090,289.600,87.720,29.430,15.520,hard
1421.000,366.400,94.450,19.140,1659.000,412.200,108.100,20.630,237.400,60.460,22.830,11.960,283.700,86.280,28.940,15.260,hard
1418.000,366.100,94.450,19.130,1657.000,412.400,108.000,20.600,235.800,60.210,22.710,11.900,284.200,86.000,28.850,15.210,hard
1418.000,366.700,94.380,19.120,1655.000,412.300,108.100,20.620,238.300,60.240,22.790,11.940,285.200,86.560,29.000,15.300,hard
1419.000,367.000,94.410,19.080,1659.000,411.600,108.000,20.620,236.900,60.570,22.780,11.960,284.900,86.400,29.010,15.340,hard
1420.000,368.200,94.220,19.190,1660.000,412.500,108.000,20.690,238.200,60.480,22.800,11.980,286.200,86.840,29.200,15.440,hard
1421.000,366.500,94.840,19.190,1661.000,411.500,107.900,20.680,240.100,60.190,22.890,12.050,287.800,87.350,29.410,15.550,hard
1424.000,367.900,94.990,19.210,1660.000,413.400,108.300,20.800,240.300,60.840,22.990,12.050,289.300,88.060,29.600,15.690,hard
1426.000,370.000,95.110,19.240,1661.000,412.400,108.400,20.700,241.400,61.190,23.030,12.150,290.000,87.830,29.460,15.470,hard
1420.000,365.500,94.450,19.070,1658.000,410.900,108.000,20.610,238.000,60.250,22.860,11.970,285.100,86.690,29.000,15.290,hard
1418.000,365.500,94.080,19.010,1656.000,410.300,108.000,20.620,238.800,60.380,22.750,11.950,284.400,86.370,29.050,15.260,hard
1418.000,365.300,94.380,19.020,1657.000,411.200,107.800,20.650,237.900,60.290,22.780,11.960,285.100,86.580,29.050,15.320,hard
1417.000,367.100,93.980,19.080,1661.000,411.100,107.800,20.610,238.000,60.750,22.820,11.950,285.900,86.840,29.140,15.370,hard
1418.000,366.400,94.490,19.080,1661.000,411.100,108.000,20.670,240.400,60.830,22.900,11.990,286.600,87.370,29.390,15.510,hard
1421.000,365.700,94.470,19.190,1661.000,412.300,108.200,20.620,237.500,60.900,22.990,12.100,288.200,87.790,29.560,15.630,hard
1422.000,367.100,94.500,19.210,1663.000,411.900,108.000,20.700,241.300,60.770,23.050,12.110,290.100,88.280,29.710,15.770,hard
1426.000,368.700,94.810,19.280,1662.000,412.400,108.100,20.680,242.200,61.180,23.220,12.180,292.000,88.670,29.860,15.620,hard
1421.000,366.300,94.140,19.030,1655.000,411.800,107.900,20.620,239.000,61.120,22.890,12.020,286.100,86.670,29.180,15.360,hard
1417.000,366.300,93.880,19.010,1655.000,411.100,107.800,20.610,237.300,60.510,22.820,12.010,285.600,86.620,29.080,15.330,hard
1417.000,365.300,93.840,19.040,1658.000,411.400,107.900,20.660,237.500,60.460,22.830,11.990,286.200,86.990,29.250,15.400,hard
1418.000,365.800,93.830,19.030,1662.000,411.500,107.700,20.630,237.900,60.360,22.940,12.010,287.200,87.030,29.230,15.440,hard
1418.000,364.700,94.500,19.080,1657.000,411.800,107.800,20.670,238.200,60.740,22.960,12.060,288.000,87.320,29.470,15.570,hard
1421.000,365.900,94.340,19.080,1659.000,411.600,107.800,20.670,239.000,61.320,23.050,12.110,288.800,88.180,29.710,15.690,hard
1423.000,366.300,94.800,19.170,1662.000,412.100,108.100,20.690,240.800,60.910,23.200,12.150,290.900,88.670,29.890,15.820,hard
1426.000,368.700,95.030,19.270,1657.000,412.400,108.300,20.730,242.800,61.400,23.160,12.220,292.400,89.120,30.050,15.830,hard
1423.000,365.900,94.560,19.080,1659.000,411.300,107.900,20.660,240.900,61.040,23.130,12.070,289.200,87.620,29.410,15.520,hard
1418.000,365.300,94.110,19.030,1657.000,411.300,107.600,20.620,240.600,61.060,22.970,12.060,287.900,87.110,29.330,15.450,hard
1418.000,365.100,93.740,19.020,1659.000,412.100,107.900,20.640,239.900,60.760,22.970,12.080,288.100,87.590,29.470,15.520,hard
1419.000,366.000,94.090,19.080,1659.000,410.600,107.700,20.640,238.000,60.910,23.070,12.080,288.100,87.830,29.510,15.590,hard
1420.000,366.100,94.480,19.100,1657.000,411.900,107.700,20.660,240.000,61.260,23.030,12.120,288.900,88.070,29.690,15.690,hard
1422.000,367.300,94.840,19.140,1659.000,413.300,107.800,20.700,240.000,61.230,23.160,12.150,290.800,88.670,29.890,15.780,hard
1425.000,368.300,95.100,19.210,1663.000,413.000,108.000,20.720,242.300,61.360,23.230,12.230,292.600,89.310,30.150,15.910,hard
1427.000,367.900,94.890,19.320,1663.000,413.000,108.200,20.780,243.300,61.730,23.280,12.250,294.700,89.530,30.300,16.030,hard
1426.000,367.000,94.640,19.180,1660.000,412.300,108.100,20.670,242.500,61.740,23.220,12.190,290.500,88.280,29.720,15.650,hard
1420.000,366.700,94.410,19.110,1657.000,412.200,108.300,20.690,240.500,61.050,23.100,12.120,289.900,88.150,29.710,15.620,hard
1421.000,366.700,94.580,19.210,1658.000,412.100,108.000,20.680,240.600,61.340,23.140,12.130,290.300,88.310,29.790,15.720,hard
1423.000,367.300,94.520,19.170,1662.000,412.900,108.100,20.660,240.400,61.510,23.190,12.160,290.700,88.760,29.870,15.760,hard
1423.000,366.800,94.430,19.250,1661.000,412.300,108.000,20.690,241.600,61.440,23.230,12.200,291.500,88.740,30.090,15.850,hard
1426.000,369.000,94.710,19.270,1662.000,413.200,108.100,20.750,242.800,61.440,23.290,12.230,293.500,89.280,30.200,15.950,hard
1428.000,368.800,95.080,19.320,1661.000,413.700,108.700,20.820,243.900,61.620,23.390,12.280,294.700,89.740,30.390,16.100,hard
1432.000,370.600,95.630,19.450,1664.000,413.500,108.500,20.830,243.000,61.720,23.430,12.340,296.000,90.410,30.440,16.040,hard
1427.000,368.900,94.840,19.270,1662.000,413.000,108.100,20.740,243.300,61.730,23.260,12.220,291.500,88.800,29.950,15.770,hard
1426.000,368.300,94.610,19.210,1664.000,413.200,108.100,20.760,240.800,61.700,23.240,12.180,291.200,88.670,29.960,15.740,hard
1426.000,369.200,95.080,19.300,1662.000,412.600,108.200,20.740,241.200,61.340,23.240,12.210,292.400,89.240,30.100,15.840,hard
1427.000,369.200,95.290,19.250,1660.000,412.900,108.600,20.820,244.100,61.620,23.280,12.220,292.200,89.260,30.120,15.890,hard
1428.000,369.100,95.060,19.360,1665.000,413.000,108.600,20.800,242.700,61.350,23.350,12.250,293.700,89.760,30.270,15.970,hard
1431.000,369.200,95.510,19.400,1663.000,414.900,108.600,20.860,242.800,61.680,23.440,12.290,294.900,90.170,30.500,16.060,hard
1434.000,371.300,96.040,19.470,1664.000,415.200,108.700,20.920,241.400,61.990,23.460,12.350,296.300,90.770,30.730,16.180,hard
1435.000,371.300,95.390,19.430,1668.000,414.100,108.800,20.800,243.100,62.170,23.510,12.290,294.700,89.800,30.110,15.820,hard
1427.000,368.400,94.840,19.320,1660.000,413.100,108.400,20.820,242.300,61.840,23.280,12.180,291.600,88.950,29.940,15.760,hard
1427.000,369.400,94.810,19.380,1664.000,413.300,108.700,20.790,240.800,61.910,23.230,12.180,291.000,88.890,29.970,15.800,hard
1429.000,370.100,95.290,19.360,1663.000,413.400,108.600,20.790,243.100,61.540,23.260,12.210,292.100,89.300,30.100,15.790,hard
1429.000,369.900,95.120,19.340,1666.000,414.400,108.700,20.880,242.000,61.420,23.350,12.230,292.600,89.510,30.200,15.940,hard
1431.000,370.000,95.710,19.420,1665.000,414.700,108.700,20.890,243.900,61.720,23.410,12.280,294.200,89.830,30.400,16.030,hard
1434.000,371.800,95.990,19.460,1669.000,415.000,108.800,20.900,243.200,61.940,23.410,12.290,295.700,90.590,30.550,16.130,hard
1437.000,372.200,96.300,19.540,1668.000,416.200,109.000,20.880,247.900,62.180,23.540,12.320,297.100,90.800,30.600,16.130,hard
1432.000,370.100,95.370,19.370,1668.000,413.800,108.400,20.840,243.400,61.960,23.430,12.230,292.100,89.120,29.980,15.760,hard
1427.000,367.700,95.250,19.280,1663.000,413.100,108.800,20.780,242.800,61.550,23.260,12.190,290.900,88.680,29.870,15.750,hard
1428.000,369.900,95.180,19.370,1661.000,414.800,108.600,20.850,241.400,61.350,23.250,12.220,291.900,88.920,30.000,15.790,hard
1430.000,368.100,95.200,19.300,1670.000,414.400,108.800,20.860,241.500,61.610,23.350,12.220,291.000,89.190,30.010,15.860,hard
1430.000,371.300,95.300,19.430,1667.000,414.500,108.900,20.890,240.800,61.620,23.370,12.270,292.700,89.360,30.250,15.940,hard
1432.000,371.200,95.650,19.490,1670.000,414.900,109.100,20.900,243.700,61.720,23.430,12.310,294.500,90.070,30.370,16.020,hard
1436.000,372.500,96.220,19.560,1669.000,415.200,109.400,20.940,243.100,62.130,23.540,12.340,295.900,90.380,30.570,16.180,hard
1438.000,373.000,96.160,19.580,1670.000,415.700,108.700,20.920,242.400,62.200,23.630,12.370,296.000,90.320,30.300,15.890,hard
1430.000,370.000,95.620,19.340,1668.000,414.500,108.600,20.870,241.900,61.670,23.360,12.220,291.300,88.920,29.900,15.750,hard
1429.000,369.200,95.410,19.360,1662.000,414.900,108.800,20.880,241.800,61.460,23.310,12.190,291.600,88.730,29.940,15.800,hard
1430.000,370.900,95.870,19.360,1667.000,414.700,108.800,20.880,242.700,61.640,23.320,12.230,291.700,89.030,30.030,15.810,hard
1431.000,370.700,95.600,19.390,1662.000,414.000,108.800,20.910,243.000,61.600,23.360,12.240,292.700,89.240,30.100,15.890,hard
1432.000,371.200,96.030,19.450,1664.000,415.100,109.100,20.910,243.900,61.500,23.430,12.280,293.900,89.560,30.230,15.940,hard
1433.000,371.500,96.190,19.490,1667.000,416.000,109.100,20.930,244.500,61.660,23.450,12.320,295.100,90.290,30.430,16.100,hard
1436.000,372.900,96.420,19.600,1668.000,415.700,109.200,20.970,243.100,62.220,23.530,12.380,297.200,90.730,30.630,16.140,hard
1435.000,372.300,95.710,19.450,1665.000,414.800,109.000,20.870,245.300,62.050,23.440,12.280,293.100,89.160,29.930,15.800,hard
1429.000,370.600,95.640,19.370,1662.000,414.400,108.800,20.900,243.100,61.850,23.320,12.210,292.100,89.080,29.880,15.760,hard
1429.000,370.900,95.540,19.400,1663.000,414.200,108.900,20.900,243.300,61.530,23.310,12.250,292.400,89.240,30.070,15.850,hard
1431.000,372.400,95.960,19.460,1662.000,414.500,108.900,20.920,243.000,61.850,23.330,12.270,292.300,89.450,30.180,15.860,hard
1430.000,370.900,95.820,19.450,1668.000,414.200,109.100,20.930,240.300,61.650,23.450,12.290,293.800,89.730,30.210,16.000,hard
1434.000,370.500,96.280,19.520,1669.000,415.200,109.300,20.950,243.200,61.980,23.430,12.340,295.200,90.070,30.400,16.050,hard
1435.000,373.000,96.610,19.650,1665.000,415.900,109.000,21.020,243.300,61.990,23.530,12.360,296.100,90.570,30.540,16.200,hard
1438.000,373.100,96.710,19.640,1669.000,415.200,109.000,20.920,244.800,62.140,23.570,12.390,296.600,90.520,30.370,15.980,hard
1431.000,370.100,96.280,19.480,1663.000,413.700,108.900,20.900,242.800,61.510,23.410,12.260,292.400,89.260,30.000,15.830,hard
1430.000,370.900,95.820,19.480,1667.000,415.700,109.000,20.840,241.800,61.750,23.360,12.220,292.200,89.320,30.090,15.900,hard
1432.000,369.600,96.130,19.510,1664.000,414.200,109.100,20.870,241.400,61.750,23.420,12.260,294.100,89.780,30.210,15.950,hard
1432.000,371.100,96.070,19.490,1668.000,414.500,109.000,20.870,242.200,61.920,23.420,12.280,294.300,89.510,30.320,16.000,hard
1433.000,372.300,96.100,19.520,1670.000,415.300,109.200,20.940,243.300,62.140,23.490,12.320,294.800,90.160,30.430,16.100,hard
1436.000,373.400,96.360,19.640,1669.000,416.300,109.300,21.010,244.100,62.160,23.570,12.380,296.400,90.780,30.610,16.220,hard
1438.000,374.200,96.840,19.690,1670.000,415.600,109.100,20.940,244.500,62.200,23.640,12.430,297.100,91.110,30.640,16.170,hard
1433.000,371.500,95.890,19.430,1667.000,414.700,109.000,20.940,244.700,61.830,23.420,12.290,293.100,89.510,30.150,15.910,hard
1429.000,371.000,96.130,19.500,1671.000,415.200,108.900,20.930,241.800,61.570,23.400,12.260,293.200,89.530,30.100,15.930,hard
1431.000,370.100,96.100,19.550,1662.000,415.200,108.900,20.890,243.500,61.650,23.430,12.300,294.000,89.960,30.210,16.010,hard
1432.000,370.700,96.260,19.510,1665.000,415.300,109.000,20.900,243.500,61.770,23.480,12.280,294.100,89.810,30.360,16.050,hard
1432.000,372.200,95.990,19.590,1661.000,414.900,109.100,20.950,245.500,61.930,23.500,12.320,295.600,90.070,30.450,16.120,hard
1435.000,373.200,96.680,19.640,1669.000,415.200,109.300,20.950,243.700,61.850,23.520,12.370,297.000,90.610,30.640,16.250,hard
1438.000,373.900,96.800,19.690,1667.000,416.600,109.300,20.910,244.100,62.320,23.680,12.400,297.800,91.240,30.730,16.220,hard
1433.000,371.200,95.980,19.460,1665.000,414.500,109.100,20.830,245.200,62.210,23.430,12.280,293.800,89.660,30.240,15.880,hard
1429.000,370.700,95.970,19.450,1667.000,414.000,108.800,20.850,243.200,61.790,23.440,12.250,292.700,89.400,30.090,15.880,hard
1429.000,371.100,95.690,19.520,1665.000,414.300,109.000,20.910,242.600,61.610,23.370,12.250,293.600,89.530,30.150,15.890,hard
1430.000,369.700,95.880,19.470,1665.000,413.800,109.000,20.880,242.800,61.770,23.420,12.280,293.600,89.660,30.320,15.940,hard
1429.000,372.000,96.080,19.450,1666.000,414.000,108.700,20.920,243.100,61.530,23.390,12.310,295.000,89.840,30.420,16.050,hard
1431.000,371.300,96.070,19.530,1666.000,413.800,108.800,20.930,242.000,62.030,23.560,12.310,296.200,90.350,30.530,16.120,hard
1434.000,372.000,96.550,19.680,1669.000,415.000,109.100,20.960,246.100,62.300,23.640,12.350,297.900,90.840,30.780,16.230,hard
1434.000,370.700,95.830,19.520,1661.000,413.800,108.600,20.850,245.200,62.200,23.540,12.320,294.000,89.690,30.190,15.890,hard
1426.000,369.200,95.060,19.310,1662.000,413.500,108.700,20.830,242.700,61.860,23.350,12.210,292.700,89.240,30.060,15.800,hard
1425.000,369.000,95.410,19.400,1663.000,413.700,108.700,20.770,241.800,61.470,23.360,12.220,292.100,89.280,30.080,15.870,hard
1426.000,369.600,95.500,19.410,1662.000,413.300,108.300,20.810,242.700,61.760,23.340,12.260,293.300,89.450,30.140,15.870,hard
1427.000,370.400,95.350,19.410,1662.000,413.800,108.600,20.800,243.000,62.110,23.380,12.260,294.000,89.660,30.270,15.970,hard
1428.000,369.500,95.630,19.470,1663.000,413.500,108.600,20.820,242.300,62.060,23.450,12.290,295.300,90.170,30.410,16.080,hard
1429.000,371.500,95.540,19.480,1665.000,413.800,108.800,20.880,246.700,62.170,23.580,12.360,296.800,90.580,30.620,16.170,hard
1432.000,371.300,96.030,19.520,1661.000,412.700,108.300,20.750,245.400,62.070,23.610,12.350,296.900,90.340,30.350,15.950,hard
1424.000,368.800,95.170,19.330,1657.000,412.600,108.100,20.790,242.700,61.770,23.340,12.220,292.200,89.220,29.960,15.780,hard
1423.000,367.200,95.130,19.320,1658.000,411.400,108.100,20.720,241.400,61.690,23.300,12.210,292.100,88.980,29.990,15.820,hard
1423.000,368.400,95.210,19.290,1656.000,411.600,108.100,20.720,243.200,61.510,23.330,12.220,292.900,89.490,30.110,15.860,hard
1424.000,367.600,95.060,19.290,1659.000,412.500,107.900,20.800,243.000,61.720,23.380,12.240,293.400,89.560,30.170,15.940,hard
1425.000,368.100,95.220,19.380,1660.000,412.400,108.300,20.770,242.200,61.850,23.440,12.280,294.600,90.250,30.330,16.050,hard
1426.000,370.000,95.630,19.450,1659.000,413.000,108.300,20.780,244.100,61.690,23.490,12.320,295.800,90.500,30.560,16.150,hard
1430.000,370.600,95.710,19.490,1660.000,412.800,108.300,20.780,243.300,61.970,23.490,12.360,298.200,90.960,30.600,16.140,hard
1426.000,368.300,94.960,19.250,1659.000,411.800,107.800,20.680,243.500,62.180,23.370,12.250,293.800,89.320,30.130,15.850,hard
1421.000,368.300,94.660,19.280,1655.000,410.600,107.900,20.710,242.100,61.720,23.250,12.200,292.500,89.340,30.090,15.830,hard
1422.000,367.500,94.720,19.320,1659.000,410.500,108.000,20.700,241.800,61.660,23.320,12.220,293.300,89.600,30.180,15.920,hard
1423.000,367.900,94.850,19.270,1662.000,411.100,108.100,20.690,242.900,61.710,23.380,12.270,294.000,89.680,30.250,15.950,hard
1424.000,369.000,95.000,19.340,1658.000,412.400,108.300,20.710,242.500,61.400,23.410,12.260,294.700,90.180,30.450,16.040,hard
1426.000,369.300,95.260,19.400,1660.000,412.400,108.100,20.720,242.700,62.030,23.480,12.320,296.300,90.370,30.560,16.130,hard
1429.000,370.000,95.510,19.430,1659.000,413.300,108.300,20.740,244.200,61.990,23.550,12.350,298.200,90.920,30.790,16.220,hard
1428.000,368.500,94.990,19.330,1655.000,412.100,107.700,20.660,244.100,62.190,23.500,12.310,295.100,89.710,30.240,15.880,hard
1422.000,366.600,94.960,19.270,1656.000,412.000,108.100,20.680,240.900,61.720,23.320,12.220,293.500,89.600,30.120,15.880,hard
1422.000,367.500,94.930,19.350,1658.000,411.800,108.000,20.730,241.900,62.030,23.300,12.230,294.600,89.660,30.360,15.970,hard
1424.000,369.400,95.070,19.340,1655.000,411.700,107.900,20.690,242.400,61.840,23.410,12.250,294.500,89.860,30.340,15.970,hard
1423.000,370.400,95.330,19.320,1662.000,412.200,108.100,20.680,242.900,61.740,23.390,12.230,295.600,90.260,30.510,16.060,hard
1426.000,368.100,95.140,19.440,1661.000,412.300,108.300,20.750,245.100,62.320,23.430,12.310,296.900,90.610,30.710,16.190,hard
1430.000,370.200,95.270,19.460,1663.000,412.400,108.200,20.760,244.500,62.310,23.520,12.360,298.700,91.080,30.890,16.270,hard
1429.000,369.600,95.350,19.340,1657.000,411.400,107.900,20.640,244.500,62.560,23.520,12.310,295.300,89.970,30.260,15.930,hard
1422.000,366.900,94.890,19.250,1658.000,411.100,107.700,20.680,241.700,61.480,23.350,12.210,293.800,89.530,30.220,15.870,hard
1423.000,366.700,94.900,19.290,1658.000,412.200,107.800,20.650,241.000,62.010,23.380,12.240,294.000,89.980,30.300,15.920,hard
