A-DC1,A-DC2,A-DC3,A-DC4,A-DC5,A-DC6,A-DC7,A-DC8,B-DC1,B-DC2,B-DC3,B-DC4,B-DC5,B-DC6,B-DC7,B-DC8,condition
1398.000,432.600,131.300,34.500,798.200,255.200,65.190,17.260,234.300,63.540,19.000,6.421,460.100,145.400,43.120,14.200,baseline
1401.000,436.700,130.900,34.800,796.500,255.200,65.180,17.350,235.300,63.610,19.140,6.465,462.000,146.300,43.320,14.300,baseline
1407.000,435.700,132.100,34.990,800.900,255.200,65.590,17.240,234.500,63.830,19.100,6.489,462.800,146.600,43.370,14.370,baseline
1410.000,434.300,132.300,35.190,801.300,256.000,65.900,17.440,233.200,63.670,19.170,6.502,462.000,146.700,43.390,14.300,baseline
1403.000,432.400,130.600,34.630,804.200,256.300,64.810,17.320,235.800,63.890,19.100,6.467,461.700,146.000,43.190,14.210,baseline
1393.000,430.000,130.700,34.240,803.600,255.700,64.860,17.230,234.800,63.720,19.150,6.468,459.800,145.600,42.970,14.150,baseline
1391.000,432.800,130.200,34.260,795.100,254.000,65.010,17.070,234.800,63.570,19.080,6.451,459.200,145.600,43.050,14.170,baseline
1391.000,429.100,130.100,34.400,798.100,255.200,65.310,17.290,233.200,63.770,19.100,6.455,460.200,145.600,43.030,14.120,baseline
1393.000,427.600,130.600,34.440,797.600,254.500,64.590,17.160,233.500,63.780,19.140,6.472,461.100,145.500,43.040,14.160,baseline
1393.000,433.500,130.200,34.450,798.700,256.600,65.270,17.290,235.900,63.670,19.100,6.462,460.100,145.700,43.090,14.230,baseline
1395.000,435.800,130.900,34.520,795.400,255.400,65.110,17.330,234.500,63.610,19.130,6.484,461.800,146.100,43.110,14.260,baseline
1402.000,437.900,131.300,34.920,798.500,255.800,65.410,17.340,236.500,63.850,19.090,6.471,461.800,146.400,43.350,14.260,baseline
1405.000,435.600,131.400,34.990,805.800,256.700,65.040,17.260,235.900,64.060,19.150,6.503,462.500,146.300,43.470,14.340,baseline
1411.000,436.100,132.500,34.980,798.300,256.800,65.440,17.340,232.800,64.110,19.180,6.486,463.000,146.600,43.390,14.330,baseline
1406.000,435.500,131.300,34.650,800.600,257.300,65.630,17.390,236.300,63.810,19.130,6.469,460.900,145.800,43.170,14.180,baseline
1394.000,433.700,130.100,34.560,797.700,256.100,65.410,17.260,234.300,63.940,19.140,6.455,460.500,145.300,43.050,14.150,baseline
1393.000,435.300,129.900,34.340,799.200,255.300,65.250,17.300,234.100,63.850,19.050,6.445,459.000,145.300,42.980,14.120,baseline
1391.000,433.300,129.600,34.430,791.400,256.700,64.970,17.370,234.800,63.820,19.090,6.476,459.500,145.500,42.950,14.090,baseline
1394.000,431.400,129.800,34.480,799.900,256.400,65.190,17.250,235.500,63.950,19.090,6.470,459.100,145.700,43.090,14.170,baseline
1394.000,433.200,129.200,34.450,796.500,255.700,65.160,17.360,234.600,63.820,19.140,6.475,460.000,145.700,43.070,14.190,baseline
1398.000,432.500,130.600,34.720,798.600,255.200,65.590,17.280,234.100,63.730,19.090,6.453,460.700,145.700,43.200,14.220,baseline
1400.000,434.700,132.100,34.820,790.400,256.800,65.560,17.370,234.500,63.950,19.160,6.476,460.900,145.900,43.120,14.210,baseline
1403.000,437.300,132.000,34.740,799.500,255.700,65.230,17.380,234.700,63.460,19.110,6.463,461.400,146.000,43.250,14.250,baseline
1400.000,432.400,130.700,34.690,796.700,258.900,65.490,17.310,235.700,63.920,19.100,6.471,460.400,145.100,42.970,14.110,baseline
1393.000,427.200,130.200,34.360,802.900,255.300,65.560,17.350,235.700,63.700,19.070,6.471,459.700,145.000,42.860,14.060,baseline
1390.000,430.000,128.900,34.350,804.800,255.900,65.140,17.410,235.000,63.530,19.060,6.446,460.000,145.100,42.880,14.040,baseline
1388.000,427.400,130.100,34.330,792.600,255.500,65.260,17.270,235.300,63.460,19.110,6.469,459.100,145.100,42.790,14.070,baseline
1389.000,433.200,130.500,34.280,793.900,254.600,65.010,17.380,233.600,63.750,19.080,6.467,459.400,144.800,42.900,14.090,baseline
1392.000,429.700,130.500,34.360,792.500,253.400,65.360,17.300,233.800,63.890,19.120,6.490,458.400,144.900,42.890,14.140,baseline
1394.000,432.400,131.700,34.530,802.800,255.700,65.710,17.370,233.900,63.440,19.150,6.472,459.400,145.100,43.020,14.160,baseline
1394.000,431.900,130.200,34.380,803.900,254.900,65.200,17.370,235.000,63.660,19.140,6.474,459.300,145.000,43.020,14.160,baseline
1396.000,431.200,131.800,34.790,802.000,256.400,65.730,17.340,235.100,63.550,19.130,6.479,457.800,144.800,43.070,14.120,baseline
1392.000,431.500,130.500,34.130,802.900,256.300,64.950,17.290,233.600,63.330,19.110,6.456,457.800,144.100,42.620,13.960,baseline
1386.000,429.400,128.800,34.090,798.400,255.900,65.230,17.240,233.500,63.200,18.990,6.422,455.400,143.600,42.390,13.860,baseline
1384.000,429.300,129.100,33.930,792.900,254.300,64.950,17.300,233.900,63.250,18.990,6.428,454.800,143.700,42.450,13.890,baseline
1384.000,429.300,129.400,34.030,798.800,256.000,65.310,17.280,234.100,62.870,19.000,6.421,454.800,143.600,42.400,13.920,baseline
1384.000,428.800,129.200,34.230,789.300,252.100,65.000,17.270,231.800,63.150,19.000,6.435,455.000,143.600,42.510,13.920,baseline
1386.000,426.500,129.400,34.120,799.600,254.700,64.900,17.250,234.200,63.580,19.010,6.430,455.100,143.600,42.390,13.970,baseline
1390.000,430.200,129.700,34.290,794.900,256.200,65.480,17.240,233.900,63.460,18.950,6.432,456.600,143.600,42.490,13.910,baseline
1395.000,433.100,129.400,34.390,797.500,255.000,65.150,17.110,230.700,62.900,18.870,6.371,456.500,143.900,42.500,13.890,baseline
1401.000,434.900,131.500,34.260,804.200,257.600,65.390,17.270,236.300,63.220,18.970,6.373,459.100,144.600,42.570,13.830,baseline
1397.000,432.000,130.600,34.220,806.500,257.100,65.280,17.280,234.300,63.790,19.010,6.394,459.800,144.400,42.550,13.860,baseline
1392.000,430.200,129.900,34.090,792.100,256.600,65.110,17.250,234.400,63.720,19.060,6.396,459.800,145.100,42.520,13.850,baseline
1390.000,429.700,129.300,34.000,802.700,255.900,65.230,17.320,234.300,63.700,19.170,6.418,461.100,145.200,42.670,13.920,baseline
1391.000,431.800,129.900,34.240,806.700,255.000,65.360,17.310,237.500,64.100,19.170,6.425,462.100,145.300,42.830,13.940,baseline
1392.000,431.800,129.600,34.150,801.300,255.100,65.400,17.300,239.500,63.900,19.180,6.422,463.300,145.700,42.880,13.970,baseline
1392.000,435.300,129.700,34.520,803.200,257.600,65.540,17.180,237.600,64.130,19.180,6.461,462.800,146.000,43.000,14.020,baseline
1396.000,433.000,130.700,34.660,806.700,257.000,65.020,17.300,237.100,64.210,19.210,6.455,463.400,146.200,43.150,14.080,baseline
1399.000,435.700,130.400,34.450,793.500,257.400,65.030,17.300,238.300,64.640,19.230,6.471,463.600,146.200,43.230,14.110,baseline
1400.000,436.000,130.500,34.500,811.800,257.200,65.980,17.330,237.500,64.150,19.250,6.448,463.500,145.900,43.020,14.000,baseline
1391.000,430.600,129.300,34.340,801.400,257.600,64.990,17.350,237.200,64.240,19.170,6.452,462.200,145.600,42.980,13.980,baseline
1390.000,430.100,129.500,34.160,796.000,256.500,65.070,17.340,238.700,64.150,19.230,6.461,461.900,145.700,42.940,13.990,baseline
1390.000,433.000,128.800,34.340,797.800,256.900,65.330,17.290,237.500,64.210,19.250,6.455,461.500,145.900,43.050,13.980,baseline
1389.000,429.200,130.400,34.680,796.300,254.900,64.960,17.190,235.700,64.510,19.230,6.470,461.900,145.900,42.960,14.030,baseline
1392.000,429.600,130.300,34.410,796.700,255.200,65.530,17.310,235.600,63.820,19.260,6.463,462.900,145.800,43.030,14.080,baseline
1394.000,432.600,129.600,34.580,797.700,254.100,64.920,17.170,235.600,63.910,19.270,6.474,462.300,146.300,43.180,14.100,baseline
1397.000,436.100,130.200,34.520,800.700,253.900,65.510,17.300,237.800,64.210,19.260,6.472,463.400,146.400,43.410,14.180,baseline
1400.000,437.800,132.300,34.630,805.900,255.800,65.820,17.330,238.600,64.160,19.310,6.487,463.100,146.300,43.270,14.080,baseline
1395.000,434.300,129.600,34.320,803.400,255.600,65.230,17.210,235.600,63.720,19.250,6.462,460.900,145.900,43.010,14.010,baseline
1389.000,435.200,130.300,34.300,800.000,255.400,65.210,17.060,236.600,63.970,19.190,6.451,461.400,145.500,42.970,13.960,baseline
1388.000,429.400,130.900,34.260,795.200,254.200,65.200,17.280,237.100,63.880,19.190,6.445,461.100,145.600,42.910,13.980,baseline
1390.000,431.400,129.600,34.210,803.200,255.400,65.670,17.200,235.900,63.650,19.170,6.445,461.700,145.500,42.950,14.020,baseline
1391.000,429.800,130.000,34.550,796.500,253.600,65.040,17.140,235.100,63.690,19.220,6.447,461.400,145.800,43.060,14.010,baseline
1391.000,433.200,130.000,34.480,790.400,255.000,64.950,17.200,234.700,64.090,19.190,6.455,461.400,146.100,43.170,14.070,baseline
1395.000,432.600,130.700,34.710,790.100,256.200,65.020,17.140,236.300,64.120,19.230,6.456,463.200,146.000,43.240,14.100,baseline
1395.000,432.900,131.300,34.560,792.200,255.300,64.980,17.210,235.500,63.670,19.240,6.448,462.400,146.100,43.280,14.170,baseline
1398.000,430.600,131.400,34.550,792.600,254.900,65.730,17.360,235.800,63.700,19.190,6.448,463.400,146.300,43.230,14.100,baseline
1396.000,435.000,130.500,34.490,795.600,255.900,65.080,17.220,233.000,63.840,19.120,6.430,461.700,145.900,43.050,14.030,baseline
1387.000,430.600,129.600,34.310,796.100,256.500,65.140,17.230,236.400,63.640,19.110,6.433,459.900,145.400,42.930,14.040,baseline
1384.000,432.000,130.400,34.460,788.400,257.200,65.130,17.230,234.500,63.580,19.090,6.426,460.000,145.400,42.850,14.010,baseline
1383.000,430.300,129.900,34.240,797.900,254.500,64.660,17.220,234.800,63.670,19.130,6.437,460.200,145.100,42.990,14.020,baseline
1385.000,431.100,129.800,34.180,802.700,253.700,64.730,17.210,236.300,63.750,19.130,6.436,460.400,145.600,43.060,14.060,baseline
1384.000,429.300,130.400,34.400,792.100,254.400,64.800,17.160,234.100,63.570,19.160,6.432,460.800,146.100,43.150,14.110,baseline
1388.000,434.700,130.300,34.450,793.300,254.100,65.050,17.200,235.100,63.580,19.110,6.444,462.400,146.400,43.270,14.160,baseline
1393.000,435.000,131.600,34.750,793.600,255.300,64.520,17.190,237.000,63.680,19.200,6.447,463.200,146.100,43.440,14.200,baseline
1397.000,435.000,131.200,34.710,797.900,255.700,65.090,17.140,237.400,63.570,19.160,6.461,462.800,146.600,43.530,14.290,baseline
1398.000,429.900,131.600,34.790,796.100,253.600,64.810,17.360,236.100,63.710,19.250,6.461,463.000,147.100,43.610,14.320,baseline
1404.000,436.400,132.100,34.880,798.500,255.900,65.300,17.230,236.200,63.750,19.170,6.459,462.800,146.200,43.270,14.140,baseline
1392.000,432.700,130.800,34.460,801.200,255.400,65.020,17.140,234.300,63.910,19.110,6.450,461.700,145.800,43.310,14.090,baseline
1388.000,430.500,130.400,34.420,802.700,255.400,65.520,17.080,236.900,63.540,19.140,6.442,461.000,145.800,43.130,14.100,baseline
1387.000,428.700,129.500,34.550,797.500,255.300,65.360,17.130,234.500,63.830,19.130,6.448,461.100,145.600,43.190,14.130,baseline
1389.000,428.800,129.600,34.430,789.400,254.100,65.400,17.220,235.100,63.860,19.140,6.442,461.300,145.900,43.170,14.140,baseline
1389.000,436.300,130.700,34.520,794.300,254.100,64.740,17.180,237.100,63.620,19.200,6.443,461.100,145.900,43.310,14.190,baseline
1393.000,431.600,130.000,34.540,793.700,254.600,65.090,17.200,235.900,63.440,19.160,6.447,462.300,146.000,43.470,14.210,baseline
1396.000,436.500,131.500,34.720,790.800,256.500,65.100,17.200,234.000,63.840,19.160,6.460,461.900,146.100,43.560,14.260,baseline
1399.000,434.100,132.200,34.780,804.100,257.600,65.450,17.410,237.000,63.960,19.180,6.465,464.500,146.900,43.530,14.290,baseline
1402.000,437.200,132.100,34.820,801.200,259.400,65.010,17.240,234.900,64.040,19.180,6.445,463.100,147.000,43.650,14.380,baseline
1409.000,435.500,132.300,34.990,799.500,256.300,64.960,17.240,237.400,63.860,19.190,6.476,464.200,147.300,43.940,14.430,baseline
1413.000,438.000,133.600,35.090,807.000,257.800,65.850,17.370,236.700,63.610,19.210,6.449,464.000,147.200,43.650,14.330,baseline
1403.000,436.500,131.400,34.710,807.600,257.100,65.260,17.310,232.900,63.510,19.200,6.441,462.600,146.600,43.440,14.230,baseline
1400.000,433.900,131.500,34.600,809.000,258.000,65.290,17.130,235.300,63.370,19.130,6.438,461.600,146.200,43.370,14.190,baseline
1400.000,433.900,130.300,34.370,797.500,256.700,64.890,17.190,236.500,63.440,19.130,6.438,460.400,146.200,43.360,14.240,baseline
1399.000,436.800,130.200,34.620,800.300,256.600,65.070,17.230,235.300,64.080,19.160,6.437,462.700,146.400,43.410,14.250,baseline
1402.000,436.400,131.200,34.720,798.200,254.800,65.480,17.180,234.500,63.870,19.120,6.430,462.800,146.500,43.580,14.280,baseline
1402.000,433.300,130.700,34.740,802.000,258.500,65.170,17.160,235.600,63.690,19.120,6.443,463.100,146.900,43.540,14.320,baseline
1408.000,439.100,131.600,34.760,805.500,256.400,65.060,17.130,234.000,63.530,19.180,6.430,464.000,147.100,43.760,14.400,baseline
1410.000,434.400,132.900,35.000,805.300,257.800,65.070,17.220,237.100,63.570,19.200,6.435,463.900,147.300,43.890,14.410,baseline
1416.000,438.200,133.300,35.050,801.700,257.100,65.850,17.360,234.900,63.430,19.150,6.450,464.600,147.600,43.920,14.520,baseline
1418.000,441.000,132.900,35.390,810.400,256.100,65.590,17.270,235.000,63.760,19.220,6.432,465.200,147.800,44.060,14.550,baseline
1425.000,446.100,134.000,35.330,808.500,259.200,66.210,17.300,237.300,63.660,19.180,6.452,465.500,147.300,43.840,14.420,baseline
1413.000,438.100,132.400,34.830,803.000,257.700,65.850,17.250,235.000,63.770,19.160,6.429,464.400,146.800,43.720,14.350,baseline
1407.000,438.300,131.700,34.850,803.500,256.200,65.690,17.270,235.100,63.610,19.100,6.414,462.800,146.700,43.580,14.340,baseline
1409.000,438.000,131.300,34.920,800.800,257.000,66.000,17.270,236.000,63.370,19.120,6.423,462.300,147.100,43.730,14.370,baseline
1412.000,436.900,132.500,34.820,805.700,258.500,65.350,17.200,233.900,63.510,19.110,6.422,464.000,146.800,43.770,14.370,baseline
1411.000,438.900,132.300,35.070,803.500,257.500,65.110,17.230,234.600,63.540,19.190,6.421,463.600,147.100,43.790,14.420,baseline
1413.000,436.100,132.700,34.980,809.100,255.600,65.610,17.230,238.200,63.630,19.190,6.440,464.100,147.300,43.910,14.450,baseline
1416.000,438.800,132.800,35.150,808.300,258.000,65.370,17.320,234.500,63.460,19.170,6.438,466.200,147.900,43.980,14.530,baseline
1421.000,442.300,133.000,35.280,814.600,257.900,65.720,17.330,235.300,63.850,19.150,6.448,466.300,147.900,44.160,14.570,baseline
1428.000,441.000,134.100,35.380,802.600,259.000,65.500,17.350,234.700,63.810,19.200,6.440,466.400,148.300,44.210,14.610,baseline
1430.000,442.300,133.700,35.360,810.900,259.500,65.800,17.310,238.000,63.670,19.160,6.449,464.800,147.600,43.950,14.460,baseline
1417.000,436.000,132.300,34.940,808.000,258.300,65.400,17.370,235.600,63.710,19.180,6.405,464.500,147.100,43.700,14.420,baseline
1413.000,437.700,132.700,35.080,813.500,256.700,66.490,17.400,234.600,63.550,19.090,6.414,462.700,146.900,43.640,14.380,baseline
1414.000,437.100,131.900,35.070,800.400,255.200,66.300,17.290,234.500,63.380,19.090,6.397,463.900,147.200,43.770,14.380,baseline
1416.000,437.500,132.900,34.870,814.300,259.100,65.970,17.340,236.100,63.600,19.110,6.418,463.500,147.100,43.810,14.420,baseline
1416.000,439.700,133.700,34.880,804.800,257.300,65.880,17.340,234.000,63.970,19.090,6.430,464.900,147.200,43.780,14.450,baseline
1419.000,439.800,133.100,35.250,811.900,257.800,65.720,17.270,236.600,63.750,19.130,6.431,464.500,147.600,43.910,14.490,baseline
1423.000,441.700,133.300,35.200,808.200,258.800,66.120,17.390,233.200,63.720,19.190,6.451,465.600,147.500,43.990,14.550,baseline
1428.000,440.900,133.700,35.230,806.700,258.500,66.200,17.350,234.600,63.510,19.150,6.436,465.600,148.100,44.120,14.610,baseline
1430.000,442.900,134.400,35.350,813.000,259.700,66.290,17.370,237.200,63.760,19.170,6.451,466.800,148.200,44.280,14.630,baseline
1435.000,449.100,134.400,35.800,806.100,260.300,66.460,17.410,233.900,63.740,19.180,6.453,468.000,148.500,44.240,14.630,baseline
1430.000,444.700,134.000,35.250,813.200,260.100,65.890,17.390,234.500,63.840,19.100,6.426,465.300,147.500,43.910,14.450,baseline
1417.000,438.800,133.100,35.100,809.700,257.800,65.840,17.480,236.200,63.680,19.110,6.418,464.900,147.200,43.690,14.380,baseline
1414.000,441.700,132.600,34.960,806.400,256.500,65.720,17.370,235.100,63.440,19.110,6.422,464.100,147.000,43.570,14.410,baseline
1413.000,440.400,132.600,34.950,812.000,258.900,65.520,17.300,233.700,63.650,19.150,6.419,463.300,146.600,43.690,14.400,baseline
1414.000,436.700,132.000,35.080,805.000,259.900,66.400,17.380,236.200,63.670,19.110,6.442,463.800,147.100,43.690,14.430,baseline
1415.000,444.600,131.500,35.210,810.800,257.800,66.040,17.350,234.800,63.820,19.090,6.436,464.400,147.100,43.890,14.440,baseline
1417.000,442.200,133.200,35.120,808.700,258.700,66.090,17.450,235.700,63.770,19.210,6.427,464.300,147.400,43.970,14.490,baseline
1422.000,440.500,133.200,35.370,817.400,259.100,66.100,17.440,236.600,63.960,19.180,6.458,465.900,147.700,44.090,14.530,baseline
1425.000,444.700,133.200,35.380,810.400,258.600,65.370,17.390,236.500,63.560,19.130,6.463,466.500,147.800,44.150,14.600,baseline
1431.000,443.200,134.400,35.500,812.900,259.100,66.410,17.480,234.700,63.820,19.150,6.458,467.400,148.100,44.340,14.650,baseline
1436.000,446.400,135.700,35.680,812.100,259.800,66.290,17.560,235.800,63.930,19.150,6.463,467.500,148.500,44.280,14.690,baseline
1432.000,442.500,133.700,35.210,814.700,259.900,66.160,17.440,235.900,63.890,19.170,6.446,465.100,147.700,44.040,14.510,baseline
1419.000,441.100,132.200,34.970,818.800,261.200,66.340,17.420,236.200,63.800,19.150,6.409,464.600,147.100,43.820,14.440,baseline
1419.000,438.500,132.100,34.730,815.200,260.200,65.330,17.390,236.100,63.580,19.100,6.415,462.800,147.200,43.740,14.410,baseline
1417.000,437.900,131.400,34.940,813.500,260.200,65.950,17.460,236.000,63.960,19.130,6.416,462.700,147.200,43.750,14.430,baseline
1419.000,438.800,131.600,35.080,818.000,259.400,66.300,17.360,235.200,63.700,19.130,6.419,464.300,147.200,43.840,14.460,baseline
1420.000,441.600,132.800,34.990,812.400,259.800,65.740,17.380,237.000,63.780,19.130,6.422,464.100,147.300,43.870,14.490,baseline
1422.000,438.700,133.100,35.230,811.400,258.400,66.010,17.430,234.700,63.530,19.120,6.432,465.500,147.300,44.030,14.540,baseline
1424.000,442.100,134.500,35.290,809.600,259.300,65.970,17.560,236.000,63.690,19.160,6.425,464.700,147.800,43.980,14.570,baseline
1430.000,446.700,133.900,35.310,813.100,260.900,66.120,17.440,234.800,63.530,19.160,6.442,466.100,148.000,44.140,14.570,baseline
1433.000,443.500,134.200,35.760,807.500,258.100,66.630,17.410,235.900,63.910,19.130,6.432,466.500,148.100,44.300,14.640,baseline
1437.000,446.400,134.800,35.400,820.100,261.600,66.620,17.410,238.500,63.840,19.100,6.433,465.500,147.400,43.900,14.500,baseline
1421.000,438.300,133.100,34.710,817.000,258.500,65.700,17.400,233.600,63.420,19.100,6.397,463.400,146.500,43.710,14.420,baseline
1417.000,441.700,133.300,34.940,817.200,257.900,65.900,17.400,234.700,63.350,19.040,6.406,462.500,146.100,43.690,14.410,baseline
1419.000,440.000,133.200,34.920,814.700,259.100,65.810,17.410,235.600,63.020,19.020,6.410,462.200,146.300,43.640,14.420,baseline
1419.000,440.400,132.300,34.760,821.400,260.300,65.970,17.480,232.100,63.190,19.020,6.409,462.000,146.500,43.680,14.400,baseline
1419.000,440.300,133.200,35.140,817.900,259.800,66.030,17.480,233.700,63.100,19.020,6.405,462.600,146.500,43.730,14.490,baseline
1422.000,439.000,133.300,35.020,813.500,257.500,65.630,17.480,236.200,63.240,19.050,6.417,462.800,146.700,43.760,14.520,baseline
1423.000,442.900,133.700,35.070,812.200,257.900,66.470,17.440,231.800,63.310,19.030,6.408,463.700,146.900,43.890,14.540,baseline
1428.000,443.600,133.600,35.440,816.400,259.100,66.090,17.570,234.900,63.310,19.080,6.417,464.000,147.000,44.050,14.560,baseline
1433.000,443.900,135.100,35.490,821.600,261.900,66.400,17.500,236.300,63.240,19.010,6.401,463.900,146.900,43.890,14.490,baseline
1421.000,441.800,133.100,35.220,809.300,258.700,66.470,17.420,233.600,63.160,18.980,6.381,461.800,146.200,43.500,14.370,baseline
1417.000,441.100,133.100,34.670,813.400,259.100,65.910,17.490,233.000,63.090,18.990,6.366,460.400,145.600,43.430,14.360,baseline
1414.000,437.100,131.800,34.810,810.800,259.800,65.910,17.430,232.500,62.580,18.940,6.365,460.300,145.500,43.350,14.300,baseline
1413.000,438.200,131.900,34.830,816.400,259.900,66.220,17.620,232.000,62.580,18.940,6.374,459.700,145.400,43.400,14.330,baseline
1413.000,439.100,132.800,34.730,814.200,257.800,65.770,17.450,233.100,62.750,18.930,6.369,459.600,145.600,43.360,14.340,baseline
1414.000,437.900,132.300,34.890,802.800,259.300,65.300,17.440,233.400,62.530,18.950,6.366,459.800,145.700,43.580,14.350,baseline
1416.000,439.000,132.400,35.030,814.000,260.000,66.130,17.460,234.400,62.850,18.940,6.380,460.400,145.700,43.480,14.360,baseline
1418.000,439.500,133.200,35.040,814.300,260.700,66.280,17.380,235.100,62.800,18.970,6.375,460.600,146.000,43.540,14.400,baseline
1423.000,439.700,132.800,34.960,810.800,259.800,66.150,17.460,233.200,62.860,18.920,6.382,461.200,146.100,43.690,14.450,baseline
1424.000,437.600,133.500,35.340,819.400,260.000,66.220,17.620,234.100,62.870,18.940,6.358,461.700,145.900,43.690,14.400,baseline
1418.000,439.500,131.900,34.830,810.200,259.200,65.820,17.490,235.800,62.920,18.880,6.346,459.000,145.400,43.280,14.270,baseline
1410.000,438.300,131.600,34.740,809.900,258.000,65.810,17.430,231.000,62.530,18.820,6.353,457.100,144.400,43.020,14.200,baseline
1405.000,435.100,131.500,34.640,812.600,258.600,65.500,17.420,232.000,62.620,18.800,6.325,457.100,144.400,43.020,14.200,baseline
1405.000,432.800,131.700,34.710,807.700,258.300,66.000,17.450,232.900,62.730,18.820,6.338,456.700,144.700,43.060,14.190,baseline
1407.000,435.100,131.900,34.600,805.800,259.100,66.300,17.400,233.900,62.450,18.850,6.355,456.100,144.500,43.110,14.220,baseline
1404.000,431.900,131.900,34.850,805.200,258.100,65.800,17.370,232.800,62.400,18.810,6.343,457.500,144.300,43.100,14.220,baseline
1409.000,435.700,131.900,34.750,804.900,259.100,65.710,17.490,232.600,62.720,18.820,6.364,456.000,144.500,43.190,14.300,baseline
1410.000,440.500,132.000,34.870,805.100,259.400,65.910,17.360,232.000,62.520,18.840,6.367,457.000,144.500,43.260,14.330,baseline
1415.000,440.400,132.300,34.960,809.800,259.400,66.260,17.250,233.000,62.420,18.860,6.355,457.500,144.900,43.220,14.330,baseline
1418.000,438.700,132.500,35.110,813.300,258.400,66.400,17.360,233.800,62.370,18.850,6.365,457.800,144.900,43.440,14.380,baseline
1422.000,438.200,131.800,34.950,807.000,257.800,66.400,17.420,233.000,62.600,18.830,6.361,457.300,144.600,43.140,14.260,baseline
1409.000,437.800,132.100,34.600,811.100,260.600,65.510,17.360,232.400,62.470,18.790,6.322,455.500,144.100,42.810,14.170,baseline
1405.000,432.300,131.700,34.400,810.700,257.600,65.860,17.360,230.900,62.600,18.770,6.327,455.400,143.600,42.760,14.130,baseline
1404.000,435.200,131.800,34.640,804.700,257.200,66.240,17.330,230.500,62.320,18.750,6.321,454.600,143.600,42.770,14.110,baseline
1403.000,437.900,130.100,34.400,808.000,258.700,65.860,17.270,232.300,62.370,18.770,6.336,455.000,143.800,42.710,14.120,baseline
1405.000,436.500,131.600,34.530,807.400,259.600,65.440,17.240,231.200,62.500,18.770,6.331,454.700,143.700,42.860,14.140,baseline
1404.000,434.300,131.300,34.580,808.200,258.200,65.860,17.220,231.300,62.400,18.730,6.306,454.500,143.100,42.840,14.150,baseline
1408.000,436.800,132.600,34.870,811.400,257.800,65.670,17.430,232.000,61.780,18.760,6.330,455.100,143.700,42.850,14.190,baseline
1411.000,443.200,132.600,34.870,808.800,257.900,65.770,17.290,231.200,61.860,18.770,6.342,454.700,143.500,42.940,14.180,baseline
1415.000,439.200,133.300,34.770,804.400,258.300,66.330,17.360,232.100,61.950,18.730,6.343,454.700,143.600,43.040,14.270,baseline
1419.000,440.400,133.100,34.810,807.000,258.400,66.270,17.280,232.000,62.060,18.750,6.329,454.100,143.200,42.830,14.140,baseline
1411.000,435.700,131.600,34.540,810.400,257.300,66.020,17.290,228.800,62.050,18.640,6.290,453.200,142.800,42.630,14.040,baseline
1407.000,436.200,130.000,34.440,807.900,259.100,65.680,17.270,229.200,61.680,18.580,6.285,451.800,142.300,42.400,14.030,baseline
1403.000,436.300,132.100,34.400,807.500,258.900,65.460,17.250,230.900,61.980,18.630,6.294,452.300,142.500,42.400,14.000,baseline
1404.000,437.800,131.300,34.440,813.400,256.500,66.170,17.300,229.600,61.780,18.650,6.290,451.800,142.200,42.460,14.020,baseline
1403.000,436.400,131.100,34.510,806.200,255.600,65.480,17.230,229.700,61.770,18.600,6.295,451.400,142.200,42.460,14.050,baseline
1405.000,436.800,131.700,34.620,809.300,256.700,65.950,17.340,230.700,61.720,18.620,6.299,452.500,142.200,42.510,14.070,baseline
1407.000,436.700,132.100,34.810,808.900,257.700,65.790,17.260,229.700,61.760,18.620,6.304,453.000,142.200,42.570,14.110,baseline
1409.000,442.600,131.200,34.770,808.600,257.300,66.020,17.340,228.600,61.610,18.670,6.291,452.600,142.500,42.630,14.070,baseline
1411.000,439.800,131.500,34.450,812.500,258.900,66.000,17.290,229.400,61.530,18.610,6.291,450.600,141.400,42.200,13.970,baseline
1404.000,434.900,130.900,34.210,809.300,259.000,65.720,17.260,228.000,61.210,18.550,6.297,447.400,140.300,42.030,13.900,baseline
1400.000,432.000,130.600,34.110,803.000,258.100,65.550,17.170,229.700,61.150,18.450,6.267,444.900,139.800,41.810,13.900,baseline
1400.000,436.300,130.800,34.380,810.000,256.900,65.660,17.140,227.700,60.900,18.440,6.278,444.100,139.800,41.930,13.890,baseline
1401.000,435.000,130.300,34.000,805.400,257.200,65.440,17.160,227.900,60.850,18.470,6.267,444.300,139.800,41.940,13.910,baseline
1402.000,436.800,131.600,34.250,807.300,255.800,65.240,17.160,228.000,61.260,18.490,6.274,446.600,140.400,41.960,13.930,baseline
1404.000,435.300,131.800,34.710,809.800,258.200,65.730,17.160,228.800,61.310,18.560,6.281,447.800,140.700,42.090,13.980,baseline
1406.000,437.400,131.000,34.550,805.100,257.100,66.160,17.180,228.500,61.560,18.510,6.291,448.100,141.200,42.210,14.020,baseline
1410.000,435.400,131.900,34.820,805.900,259.200,65.950,17.260,230.900,61.920,18.560,6.294,447.500,141.200,42.260,14.060,baseline
1411.000,439.500,132.800,34.660,804.300,257.600,65.420,17.200,230.500,61.440,18.590,6.306,447.900,141.500,42.420,14.090,baseline
1414.000,439.100,133.000,34.530,814.400,258.800,65.930,17.210,229.400,61.170,18.560,6.284,447.000,141.000,42.050,13.940,baseline
1401.000,434.700,130.200,34.050,806.500,258.700,65.620,17.110,229.600,61.250,18.510,6.262,446.300,140.200,41.790,13.860,baseline
1398.000,429.200,130.300,33.860,809.300,256.800,65.750,17.070,227.600,61.220,18.500,6.266,444.900,140.200,41.740,13.790,baseline
1395.000,432.000,130.700,34.030,805.100,256.300,66.110,17.090,230.200,60.960,18.510,6.246,445.500,139.800,41.650,13.790,baseline
1396.000,433.200,129.200,33.970,803.700,256.900,66.130,17.100,227.800,60.850,18.500,6.263,444.100,139.700,41.680,13.770,baseline
1395.000,430.200,130.300,34.120,807.700,257.500,65.990,17.230,227.500,61.160,18.520,6.266,444.800,139.900,41.820,13.780,baseline
1397.000,431.200,129.900,34.120,802.200,257.100,64.810,17.150,229.100,61.530,18.570,6.266,445.500,140.400,41.780,13.840,baseline
1396.000,431.600,130.200,34.340,804.600,256.400,65.500,17.150,227.600,61.490,18.560,6.280,446.200,140.500,41.940,13.870,baseline
1398.000,434.600,130.900,34.110,803.100,256.700,65.950,17.180,229.000,61.250,18.580,6.285,447.300,140.700,42.080,13.920,baseline
1402.000,433.200,131.300,34.320,807.500,257.000,65.220,17.140,228.700,61.560,18.690,6.284,447.500,141.100,42.100,13.960,baseline
1405.000,435.700,131.500,34.390,808.700,257.800,65.840,17.170,230.600,61.500,18.610,6.297,448.200,141.300,42.090,13.900,baseline
1401.000,431.400,130.100,34.070,797.100,257.200,65.690,17.160,227.100,61.580,18.620,6.273,446.700,140.800,41.850,13.790,baseline
1394.000,432.600,129.100,33.980,796.800,258.000,65.290,17.070,228.900,61.510,18.640,6.279,445.600,140.600,41.710,13.750,baseline
1390.000,434.200,129.600,33.810,801.900,258.100,65.240,17.130,229.200,61.680,18.640,6.289,444.800,140.400,41.690,13.750,baseline
1390.000,427.200,128.500,33.830,806.300,257.200,65.450,17.150,230.400,61.610,18.590,6.291,445.200,140.200,41.660,13.740,baseline
1387.000,430.500,129.100,33.890,801.800,255.000,65.910,17.130,228.800,61.200,18.650,6.291,445.100,140.500,41.840,13.750,baseline
1389.000,430.500,129.700,33.850,802.200,256.600,65.310,17.160,229.600,61.750,18.720,6.308,446.600,140.800,41.890,13.790,baseline
1391.000,429.500,128.700,34.040,799.000,257.000,65.230,17.100,228.800,61.850,18.720,6.310,447.900,140.900,42.100,13.840,baseline
1393.000,432.800,130.300,34.370,808.300,255.700,65.440,17.150,228.400,62.280,18.740,6.336,447.300,141.500,42.070,13.900,baseline
1397.000,431.300,130.300,34.420,803.500,257.600,65.810,17.300,229.800,61.900,18.760,6.341,448.800,141.200,42.190,13.940,baseline
1399.000,435.500,129.100,33.910,811.900,256.400,65.210,17.120,231.600,62.230,18.810,6.325,447.400,140.800,41.880,13.780,baseline
1391.000,432.100,129.800,33.790,804.100,255.800,65.340,17.000,229.300,62.390,18.740,6.300,446.200,140.800,41.800,13.730,baseline
1388.000,426.700,129.600,33.600,806.000,257.400,65.970,17.110,229.700,62.280,18.770,6.303,446.200,140.400,41.690,13.720,baseline
1386.000,428.100,128.300,33.750,803.400,256.500,65.030,17.070,228.800,62.240,18.770,6.296,445.400,140.500,41.680,13.750,baseline
1386.000,428.000,129.800,33.860,798.500,256.900,65.370,17.060,232.800,62.310,18.770,6.313,445.600,140.600,41.790,13.770,baseline
1388.000,426.200,129.600,33.740,801.900,255.800,65.510,17.050,231.600,61.740,18.810,6.332,446.800,140.900,41.870,13.810,baseline
1388.000,428.800,129.900,33.750,799.700,257.800,65.610,17.090,230.300,62.460,18.820,6.332,447.400,140.900,41.930,13.850,baseline
1392.000,428.100,130.000,33.930,807.000,258.900,65.500,17.030,229.400,62.010,18.780,6.345,447.600,141.300,42.070,13.890,baseline
1395.000,432.900,129.300,33.940,805.000,257.700,65.440,17.010,233.900,62.440,18.800,6.329,447.200,140.700,41.960,13.800,baseline
1387.000,431.700,129.900,33.820,800.600,257.100,65.200,17.060,231.500,62.110,18.760,6.320,446.500,140.500,41.660,13.730,baseline
1385.000,429.800,128.500,33.700,808.400,257.600,65.240,17.100,229.400,62.080,18.770,6.309,445.600,140.600,41.750,13.740,baseline
1385.000,427.400,128.700,33.810,802.700,256.900,64.950,17.020,230.100,62.400,18.830,6.321,446.100,140.400,41.770,13.740,baseline
1387.000,424.900,128.900,33.700,805.200,257.800,65.360,17.050,230.300,62.140,18.820,6.317,445.800,140.700,41.800,13.730,baseline
1386.000,430.200,129.600,33.750,806.500,257.100,65.230,17.010,230.500,62.120,18.850,6.324,446.300,141.100,41.810,13.780,baseline
1390.000,429.500,128.500,34.070,811.100,256.700,65.130,17.120,229.700,62.300,18.840,6.326,447.300,141.400,42.040,13.860,baseline
1392.000,430.100,130.500,33.900,798.300,257.400,65.160,17.190,233.100,62.430,18.810,6.332,446.800,141.600,42.040,13.860,baseline
1395.000,432.700,130.100,33.940,808.000,257.600,65.600,17.160,231.300,62.270,18.770,6.335,447.100,140.800,41.830,13.760,baseline
1387.000,429.500,128.800,33.840,803.600,256.800,65.070,17.050,231.400,62.360,18.800,6.314,444.800,140.600,41.710,13.710,baseline
1385.000,428.400,129.000,33.410,803.600,257.200,65.320,17.100,229.800,62.200,18.770,6.317,444.500,140.500,41.600,13.700,baseline
1384.000,428.100,127.900,33.670,802.100,255.200,65.200,17.100,231.900,62.050,18.840,6.308,444.200,140.500,41.580,13.710,baseline
1384.000,424.600,128.400,33.880,804.200,254.400,65.440,17.020,232.900,62.110,18.820,6.324,445.300,140.300,41.650,13.710,baseline
1386.000,426.600,128.900,33.910,803.100,255.000,65.320,17.070,232.000,61.990,18.810,6.325,445.500,140.800,41.750,13.740,baseline
1388.000,427.100,129.700,33.770,801.500,255.200,65.240,17.030,231.600,62.060,18.800,6.305,445.400,140.500,41.760,13.770,baseline
1389.000,430.100,128.900,33.990,805.200,257.100,65.390,17.120,230.400,62.010,18.770,6.321,445.600,140.800,41.870,13.820,baseline
1393.000,432.600,130.000,34.020,797.200,255.300,65.180,17.130,232.400,62.190,18.840,6.334,447.200,140.700,41.910,13.900,baseline
1396.000,435.700,130.100,33.970,809.200,258.900,65.390,17.080,232.300,61.960,18.780,6.327,446.200,140.500,41.800,13.770,baseline
1386.000,427.900,128.600,33.860,799.400,256.200,64.790,17.170,229.700,61.780,18.720,6.290,443.900,139.600,41.450,13.650,baseline
1381.000,429.400,128.100,33.770,799.900,257.100,65.310,17.100,231.800,61.360,18.640,6.283,441.900,138.800,41.210,13.580,baseline
1381.000,425.700,128.400,33.430,802.700,255.500,65.250,17.020,230.000,61.380,18.670,6.297,441.100,138.400,41.140,13.610,baseline
1381.000,427.400,128.800,33.840,799.700,256.400,65.320,17.000,230.600,61.320,18.590,6.260,439.500,138.400,41.160,13.620,baseline
1384.000,427.100,128.900,33.590,794.300,256.600,64.850,16.960,230.000,61.410,18.590,6.281,439.900,138.500,41.210,13.630,baseline
1386.000,426.800,128.000,33.630,796.900,256.100,65.070,17.050,230.200,61.420,18.610,6.278,439.600,138.300,41.300,13.680,baseline
1388.000,424.800,129.300,33.710,801.800,254.500,65.330,17.040,228.000,61.510,18.640,6.289,440.600,139.100,41.400,13.710,baseline
1393.000,433.800,129.800,34.230,804.100,257.700,65.050,17.050,231.500,61.400,18.600,6.305,441.000,138.800,41.560,13.740,baseline
1398.000,433.900,130.400,34.060,803.000,254.000,65.210,17.180,230.100,61.400,18.640,6.301,441.900,139.700,41.680,13.850,baseline
1399.000,431.200,130.900,34.100,816.500,258.600,65.010,17.070,229.900,61.170,18.620,6.294,441.300,139.000,41.330,13.670,baseline
1389.000,430.200,129.000,33.600,797.200,257.900,65.570,16.990,229.400,61.620,18.590,6.259,439.500,138.300,41.190,13.610,baseline
1388.000,427.600,128.600,33.660,798.200,257.000,65.530,16.970,230.200,61.610,18.560,6.270,439.200,138.400,41.110,13.570,baseline
1385.000,429.700,128.700,33.650,799.200,256.000,65.370,17.050,229.000,61.310,18.570,6.278,440.000,138.200,41.130,13.590,baseline
1387.000,429.400,128.600,33.560,804.400,257.800,65.540,17.070,229.700,61.130,18.560,6.275,439.500,138.500,41.200,13.570,baseline
1389.000,427.600,129.300,33.590,800.400,256.500,64.630,17.030,229.100,61.350,18.590,6.263,439.700,138.700,41.280,13.640,baseline
1391.000,429.300,129.700,33.870,804.300,257.200,65.250,17.010,229.500,61.610,18.590,6.279,441.800,138.500,41.350,13.720,baseline
1398.000,430.000,129.800,33.920,802.600,258.400,65.080,17.130,230.800,61.600,18.640,6.305,442.400,139.100,41.560,13.760,baseline
1399.000,428.800,130.300,33.970,808.800,256.300,65.090,17.050,229.300,61.470,18.700,6.294,442.600,139.400,41.630,13.820,baseline
1404.000,432.800,130.800,34.120,802.400,257.200,65.460,17.090,229.600,61.710,18.730,6.306,442.700,139.500,41.680,13.780,baseline
1402.000,427.700,130.500,33.860,811.600,257.200,65.750,17.100,230.800,61.840,18.630,6.286,441.900,139.100,41.350,13.640,baseline
1394.000,430.900,129.300,33.790,807.500,259.100,65.850,17.230,228.300,61.940,18.600,6.283,440.900,138.600,41.320,13.610,baseline
1391.000,428.900,129.300,33.740,809.300,257.000,64.920,17.020,230.400,61.510,18.630,6.273,440.800,138.900,41.290,13.650,baseline
1393.000,427.800,128.700,33.740,809.800,258.200,65.460,17.100,227.100,61.640,18.630,6.292,440.500,138.500,41.210,13.650,baseline
1394.000,430.800,129.400,33.750,806.400,255.500,64.890,17.100,228.000,61.610,18.650,6.293,441.300,138.800,41.370,13.680,baseline
1395.000,432.700,129.400,33.810,808.100,257.800,65.450,17.170,228.800,61.470,18.650,6.302,442.300,139.400,41.450,13.730,baseline
1400.000,436.600,129.700,34.140,801.600,257.000,65.980,17.180,229.300,61.590,18.700,6.319,442.500,139.700,41.650,13.800,baseline
1404.000,434.900,131.400,34.180,810.900,257.200,65.810,17.090,229.000,61.860,18.710,6.313,443.600,140.100,41.800,13.840,baseline
1409.000,435.600,130.500,34.200,810.500,258.800,65.820,17.160,230.300,61.620,18.700,6.309,443.100,139.400,41.410,13.660,baseline
1396.000,429.600,130.500,33.910,806.100,256.900,65.340,17.130,229.600,61.620,18.670,6.294,441.100,138.900,41.300,13.670,baseline
1395.000,429.200,129.100,33.830,807.000,257.500,65.200,17.170,229.900,61.780,18.700,6.297,442.700,138.900,41.270,13.630,baseline
1393.000,428.400,129.900,33.820,804.100,259.300,65.320,17.080,231.000,61.730,18.690,6.298,442.600,139.000,41.420,13.620,baseline
1395.000,433.600,129.800,33.590,807.000,258.000,65.480,17.050,229.900,61.920,18.710,6.300,441.700,139.100,41.390,13.660,baseline
1397.000,428.000,130.400,34.080,804.700,257.400,65.560,17.140,231.900,61.800,18.710,6.321,442.500,139.600,41.550,13.710,baseline
1400.000,429.900,129.700,34.080,802.100,258.500,65.900,17.250,230.000,61.600,18.770,6.324,443.900,139.300,41.670,13.770,baseline
1404.000,433.900,130.700,34.380,802.700,257.000,65.610,17.260,229.900,61.900,18.780,6.314,443.100,139.800,41.720,13.830,baseline
1407.000,436.100,132.000,34.300,810.500,258.000,66.140,17.200,231.500,62.110,18.760,6.336,445.100,140.200,41.780,13.830,baseline
1413.000,435.400,131.400,34.590,815.700,258.500,66.150,17.260,229.100,61.800,18.780,6.332,445.000,140.200,41.820,13.800,baseline
1403.000,432.600,130.600,33.980,812.000,258.000,65.900,17.180,230.000,61.990,18.750,6.312,443.500,139.200,41.490,13.690,baseline
1397.000,432.400,129.700,33.830,811.200,258.300,65.550,17.040,229.800,62.010,18.760,6.297,441.800,139.300,41.440,13.670,baseline
1396.000,429.800,129.600,33.970,802.100,258.600,65.660,17.150,232.200,61.980,18.720,6.311,442.600,139.500,41.550,13.690,baseline
1396.000,430.200,130.200,34.030,808.700,258.500,65.580,17.110,230.900,61.870,18.730,6.306,442.400,139.500,41.540,13.690,baseline
1397.000,432.700,130.200,34.060,802.900,256.900,65.550,17.210,232.200,62.150,18.780,6.317,442.600,139.300,41.470,13.760,baseline
1401.000,434.100,130.200,33.860,806.700,257.600,66.010,17.240,230.700,62.300,18.830,6.320,444.000,140.100,41.670,13.800,baseline
1402.000,436.700,131.100,34.260,805.700,258.500,65.890,17.340,231.100,62.110,18.840,6.329,443.700,139.800,41.780,13.820,baseline
1408.000,437.700,131.000,34.330,805.500,260.300,65.650,17.260,232.600,62.080,18.790,6.343,445.100,140.600,41.870,13.870,baseline
1412.000,437.200,131.700,34.390,807.300,257.600,66.250,17.340,232.100,62.360,18.860,6.349,446.200,140.500,41.980,13.920,baseline
1411.000,437.100,130.700,34.220,813.500,258.000,66.280,17.200,233.000,62.020,18.860,6.327,443.900,140.000,41.680,13.750,baseline
1399.000,429.700,129.900,33.810,812.400,259.200,65.730,17.240,231.700,62.040,18.750,6.312,442.900,139.700,41.540,13.690,baseline
1396.000,428.600,129.000,33.850,800.100,259.800,65.880,17.240,231.800,62.110,18.770,6.303,442.700,139.400,41.480,13.690,baseline
1394.000,431.800,128.900,33.880,807.600,257.400,65.740,17.160,232.800,61.720,18.790,6.319,442.700,139.400,41.500,13.720,baseline
1395.000,433.000,129.800,33.900,804.000,259.000,65.750,17.190,231.600,62.180,18.800,6.324,443.000,139.600,41.670,13.700,baseline
1397.000,430.700,129.100,33.900,808.700,257.700,65.960,17.160,232.000,62.240,18.790,6.340,444.100,140.000,41.720,13.770,baseline
1400.000,431.400,131.600,34.060,816.000,260.300,65.840,17.190,232.200,62.450,18.850,6.354,444.800,140.600,41.780,13.830,baseline
1404.000,437.600,131.700,34.410,809.500,259.500,65.660,17.290,231.800,62.250,18.910,6.359,445.800,140.600,41.950,13.870,baseline
1409.000,435.600,130.400,34.390,810.200,258.300,66.270,17.290,231.300,62.110,18.960,6.358,446.300,140.800,42.150,13.960,baseline
1410.000,437.200,132.400,34.420,812.600,259.500,66.240,17.400,233.500,62.540,18.960,6.376,446.800,141.200,42.100,13.880,baseline
1401.000,436.100,129.600,34.110,810.300,259.400,65.800,17.250,233.100,62.340,18.880,6.344,444.900,140.100,41.680,13.740,baseline
1392.000,427.900,128.600,33.890,805.200,258.600,65.920,17.200,231.600,62.380,18.920,6.350,444.000,139.700,41.530,13.680,baseline
1390.000,426.500,129.100,33.700,806.200,255.800,65.750,17.340,230.800,62.180,18.830,6.349,443.500,139.800,41.640,13.710,baseline
1391.000,429.400,129.000,33.700,803.200,259.500,66.210,17.230,231.600,62.210,18.880,6.349,444.400,139.900,41.630,13.710,baseline
1392.000,428.500,129.100,33.880,812.300,259.500,66.090,17.350,229.900,61.980,18.900,6.346,443.700,139.700,41.580,13.740,baseline
1393.000,429.900,128.700,33.730,803.900,258.400,65.950,17.200,233.400,62.240,18.920,6.357,444.000,140.300,41.800,13.770,baseline
1397.000,430.200,129.500,34.010,805.400,257.600,66.230,17.340,233.300,62.670,18.920,6.374,444.400,140.300,41.810,13.820,baseline
1402.000,427.800,131.000,34.160,812.000,256.700,66.010,17.400,231.800,62.430,18.940,6.368,446.400,140.600,41.940,13.860,baseline
1406.000,434.200,131.500,34.130,810.000,259.200,66.270,17.440,231.800,62.510,18.990,6.396,447.300,141.000,42.120,13.930,baseline
1408.000,433.900,131.500,34.390,816.000,259.100,66.940,17.440,233.400,62.510,18.980,6.403,446.500,140.600,41.850,13.830,baseline
1397.000,431.700,128.800,33.860,810.800,257.600,66.010,17.310,233.000,62.440,18.930,6.372,444.400,140.000,41.720,13.720,baseline
1392.000,427.000,128.800,33.820,811.400,259.000,65.790,17.410,231.900,62.530,18.910,6.371,443.900,139.600,41.490,13.660,baseline
1390.000,429.900,129.800,33.720,809.100,259.800,66.040,17.250,229.900,62.470,18.940,6.362,443.600,139.600,41.520,13.670,baseline
1391.000,430.700,127.900,33.720,807.500,259.800,65.740,17.380,233.500,62.590,18.960,6.368,444.700,139.900,41.640,13.700,baseline
1390.000,428.100,128.600,33.770,813.600,258.300,66.510,17.330,233.700,62.400,19.000,6.390,445.000,139.700,41.730,13.740,baseline
1393.000,431.500,128.900,34.010,816.800,258.300,65.970,17.440,232.100,62.710,19.020,6.390,444.700,140.500,41.710,13.770,baseline
1395.000,431.300,130.500,34.090,812.200,259.400,66.150,17.370,234.400,62.820,19.000,6.414,445.700,140.400,41.920,13.820,baseline
1403.000,432.800,130.500,34.020,810.700,259.800,66.880,17.540,231.400,62.600,19.010,6.418,446.200,141.100,42.050,13.870,baseline
1405.000,437.700,131.500,34.240,809.800,259.700,66.490,17.470,233.200,62.670,19.100,6.428,447.100,141.100,42.050,13.920,baseline
1410.000,435.600,130.700,34.440,814.500,261.600,66.810,17.520,234.000,62.960,19.080,6.426,446.800,140.900,41.940,13.810,baseline
1397.000,427.400,128.900,33.670,809.500,260.200,66.280,17.420,233.100,62.630,19.040,6.408,445.000,139.800,41.750,13.710,baseline
1391.000,432.100,129.200,33.910,813.500,258.600,66.490,17.520,232.500,62.870,19.000,6.400,444.500,139.900,41.660,13.700,baseline
1389.000,430.100,129.700,33.860,807.800,260.900,66.580,17.420,231.600,62.670,19.040,6.416,444.100,140.000,41.700,13.700,baseline
1391.000,428.900,129.400,33.780,806.900,259.100,65.960,17.410,233.300,63.190,19.040,6.428,444.500,139.700,41.720,13.690,baseline
1390.000,430.400,129.900,33.710,806.000,257.800,66.380,17.450,233.400,62.780,19.080,6.432,444.700,140.300,41.710,13.750,baseline
1393.000,427.800,129.700,33.930,810.400,259.100,66.410,17.440,231.600,63.070,19.060,6.438,445.100,140.700,41.810,13.770,baseline
1396.000,433.400,131.200,33.980,810.800,260.100,66.140,17.560,232.100,62.940,19.110,6.434,445.200,140.400,42.000,13.860,baseline
1400.000,430.200,130.100,34.020,813.900,259.200,66.320,17.450,233.300,62.790,19.160,6.465,446.100,140.800,42.090,13.900,baseline
1403.000,432.900,130.600,33.980,814.000,261.800,66.840,17.500,233.300,63.040,19.130,6.457,446.000,140.700,41.850,13.790,baseline
1390.000,427.800,129.800,33.580,806.600,260.300,66.370,17.480,232.000,63.050,19.130,6.433,444.400,140.000,41.660,13.660,baseline
1385.000,428.500,128.700,33.620,813.300,258.600,66.490,17.520,231.800,62.720,19.090,6.431,443.900,139.700,41.570,13.620,baseline
1382.000,422.600,128.400,33.680,803.600,256.400,66.330,17.520,232.900,63.090,19.090,6.445,444.500,139.800,41.550,13.670,baseline
1384.000,423.500,126.900,33.530,811.400,260.000,66.360,17.500,233.800,63.110,19.110,6.426,443.600,139.800,41.710,13.680,baseline
1383.000,429.300,128.500,33.620,809.000,260.800,66.270,17.440,232.600,63.120,19.100,6.454,444.300,139.600,41.630,13.670,baseline
1387.000,433.200,128.000,33.640,809.800,259.600,66.280,17.500,232.900,63.190,19.150,6.436,445.600,140.000,41.720,13.720,baseline
1390.000,430.900,129.100,33.760,813.100,258.300,66.430,17.490,233.400,62.860,19.170,6.468,445.400,140.300,41.900,13.750,baseline
1393.000,428.800,129.500,34.020,812.100,259.600,66.770,17.540,233.900,63.250,19.140,6.472,446.100,140.500,41.880,13.790,baseline
1396.000,430.000,129.000,33.880,808.900,260.700,65.950,17.500,234.400,63.050,19.190,6.465,444.900,140.300,41.590,13.640,baseline
1382.000,428.100,128.100,33.470,815.500,258.300,66.250,17.510,232.300,63.010,19.140,6.449,442.700,139.600,41.400,13.570,baseline
1378.000,429.600,128.800,33.300,808.600,260.400,66.280,17.430,232.800,63.140,19.160,6.451,441.400,139.200,41.440,13.540,baseline
1376.000,424.400,126.800,33.270,809.100,259.200,66.300,17.570,232.700,62.810,19.120,6.453,443.000,139.400,41.420,13.550,baseline
1377.000,423.700,127.100,33.360,806.700,260.200,66.380,17.510,232.100,63.040,19.170,6.452,442.700,139.300,41.340,13.560,baseline
1378.000,423.200,127.700,33.380,803.600,257.300,66.120,17.480,233.100,63.230,19.190,6.465,443.400,139.200,41.400,13.580,baseline
1380.000,427.300,126.900,33.510,815.300,257.200,66.200,17.540,234.800,63.330,19.190,6.474,443.200,139.400,41.600,13.640,baseline
1382.000,425.900,128.900,33.570,810.500,259.800,66.120,17.520,234.400,63.230,19.230,6.484,444.600,139.700,41.560,13.700,baseline
1387.000,428.300,128.600,33.750,811.500,259.500,66.440,17.530,232.900,63.450,19.210,6.476,444.000,140.200,41.740,13.700,baseline
1389.000,431.400,128.700,33.960,810.100,259.800,67.220,17.560,234.900,63.290,19.230,6.497,445.400,140.100,41.710,13.670,baseline
1382.000,425.200,128.100,33.050,806.500,258.700,66.510,17.430,234.000,63.370,19.220,6.471,442.200,139.300,41.360,13.560,baseline
1376.000,420.600,126.400,33.050,804.100,257.800,66.000,17.510,233.100,63.260,19.140,6.454,441.800,139.100,41.180,13.470,baseline
1368.000,425.900,125.700,32.970,807.600,258.900,66.160,17.440,235.100,63.530,19.130,6.449,441.300,138.900,41.220,13.470,baseline
1368.000,419.900,126.400,33.000,810.100,258.500,66.070,17.410,235.000,62.880,19.140,6.460,441.700,138.800,41.250,13.470,baseline
1369.000,425.400,127.200,33.040,804.500,258.900,66.060,17.390,234.700,62.920,19.180,6.466,441.800,139.300,41.220,13.480,baseline
1383.000,423.900,128.800,33.430,813.100,259.900,66.330,17.640,232.600,63.300,19.250,6.499,443.500,140.300,41.690,13.700,easy
1382.000,425.000,128.300,33.360,807.200,259.800,65.890,17.520,232.700,63.100,19.220,6.491,442.100,139.400,41.380,13.530,easy
1368.000,425.200,126.700,33.080,805.400,260.200,66.160,17.440,233.200,63.090,19.210,6.486,441.400,138.700,41.050,13.470,easy
1366.000,418.300,127.000,32.940,808.900,257.200,65.690,17.420,232.800,63.270,19.140,6.444,440.000,138.600,41.000,13.470,easy
1365.000,420.800,126.900,33.100,804.200,257.300,66.150,17.360,234.200,62.960,19.190,6.467,440.400,138.400,41.080,13.430,easy
1364.000,424.000,124.900,33.040,808.400,259.400,65.590,17.460,233.300,62.860,19.170,6.482,440.500,138.500,41.050,13.480,easy
1366.000,421.400,126.500,33.180,803.600,255.800,65.750,17.420,235.200,63.120,19.180,6.479,440.700,139.000,41.260,13.520,easy
1368.000,418.500,126.000,33.140,811.400,258.500,65.910,17.490,233.100,62.880,19.200,6.497,440.900,139.200,41.250,13.560,easy
1372.000,422.100,127.700,33.300,813.600,257.800,65.910,17.370,234.500,62.920,19.220,6.477,441.800,139.500,41.450,13.590,easy
1375.000,424.800,127.200,33.410,806.300,259.600,66.770,17.450,231.400,63.450,19.150,6.478,442.500,139.800,41.530,13.660,easy
1377.000,426.300,127.800,33.680,808.300,258.900,65.800,17.370,234.500,63.360,19.210,6.507,443.200,139.700,41.690,13.690,easy
1383.000,426.900,127.700,33.480,808.900,257.800,66.010,17.510,234.400,63.320,19.170,6.503,442.200,139.800,41.420,13.580,easy
1371.000,423.100,126.900,33.060,806.300,257.600,66.400,17.350,232.400,62.860,19.110,6.462,441.400,138.800,41.300,13.500,easy
1368.000,417.400,126.500,33.130,807.800,258.600,65.710,17.410,234.100,63.040,19.110,6.447,440.600,138.600,41.100,13.470,easy
1365.000,417.000,126.200,32.940,804.000,258.000,65.860,17.430,233.000,62.900,19.110,6.463,441.000,138.800,41.160,13.480,easy
1368.000,421.600,127.300,33.200,809.600,258.600,66.010,17.340,232.900,63.250,19.070,6.447,441.500,139.000,41.200,13.490,easy
1368.000,420.500,127.100,33.130,804.500,256.600,65.730,17.300,235.300,62.640,19.100,6.463,442.400,139.100,41.250,13.520,easy
1368.000,423.700,126.500,33.270,799.300,256.200,66.310,17.330,233.400,62.810,19.120,6.470,443.600,139.400,41.340,13.580,easy
1371.000,422.100,127.300,33.360,806.200,258.600,65.990,17.340,233.600,62.870,19.170,6.475,444.000,139.600,41.370,13.630,easy
1374.000,425.100,126.700,33.170,805.100,257.300,65.530,17.390,234.200,62.880,19.070,6.478,444.600,140.100,41.560,13.640,easy
1378.000,425.700,127.300,33.590,808.600,256.800,66.220,17.270,234.400,63.360,19.150,6.453,445.000,140.300,41.640,13.700,easy
1381.000,427.900,128.500,33.570,803.300,260.200,66.270,17.450,231.200,62.910,19.130,6.485,444.900,140.300,41.700,13.680,easy
1372.000,427.200,127.100,33.110,811.200,259.500,66.040,17.350,232.700,63.070,19.070,6.459,443.900,139.900,41.480,13.550,easy
1366.000,419.700,125.700,33.080,812.500,257.400,65.940,17.330,233.800,62.960,19.040,6.429,442.300,139.200,41.180,13.520,easy
1363.000,419.700,127.000,32.970,804.000,256.300,65.460,17.420,230.500,62.620,19.060,6.422,442.400,139.000,41.270,13.540,easy
1364.000,420.600,126.800,33.130,801.400,258.100,66.060,17.440,232.800,62.740,19.070,6.419,442.400,139.100,41.200,13.520,easy
1365.000,419.200,126.700,33.220,805.600,257.800,65.900,17.300,231.900,62.950,19.050,6.419,442.300,139.200,41.220,13.550,easy
1368.000,417.200,126.700,33.050,812.800,256.900,65.760,17.420,231.300,62.580,19.060,6.431,442.100,139.400,41.330,13.640,easy
1371.000,420.500,127.200,33.160,806.900,257.300,66.200,17.350,234.100,63.020,19.050,6.431,443.900,139.800,41.470,13.670,easy
1374.000,419.400,127.700,33.310,806.900,258.900,65.690,17.310,231.300,62.740,19.060,6.436,444.300,140.000,41.630,13.730,easy
1377.000,425.400,128.300,33.650,810.200,258.400,66.060,17.350,230.500,62.650,19.060,6.433,444.300,140.100,41.730,13.730,easy
1380.000,426.400,128.200,33.670,811.200,258.300,65.900,17.350,232.900,62.800,19.040,6.439,445.300,140.600,41.950,13.800,easy
1382.000,421.500,128.100,33.560,814.700,259.500,65.930,17.380,231.900,62.830,19.030,6.430,443.800,139.900,41.450,13.650,easy
1369.000,424.400,126.600,33.300,812.100,257.100,65.990,17.340,231.200,62.710,18.940,6.375,441.700,139.300,41.330,13.590,easy
1367.000,419.800,125.800,32.910,809.900,256.900,65.670,17.420,232.100,62.560,18.960,6.367,442.400,138.800,41.210,13.590,easy
1367.000,420.400,125.700,32.980,813.200,259.000,65.770,17.330,231.100,62.470,18.960,6.376,441.700,139.100,41.260,13.590,easy
1366.000,422.300,126.500,33.120,801.200,257.200,66.170,17.380,232.200,62.560,18.960,6.385,442.300,139.500,41.350,13.580,easy
1367.000,421.900,127.300,33.190,808.500,256.800,66.000,17.340,232.900,62.520,18.930,6.381,442.700,139.300,41.280,13.600,easy
1369.000,419.900,126.000,33.250,811.100,258.500,65.660,17.340,232.600,62.650,18.980,6.381,443.200,139.500,41.460,13.700,easy
1371.000,423.200,126.200,33.270,807.700,257.800,65.660,17.340,232.800,62.330,18.970,6.387,443.400,139.700,41.550,13.700,easy
1375.000,429.300,127.800,33.220,804.000,257.900,66.350,17.370,232.900,62.780,18.960,6.387,444.200,140.100,41.620,13.750,easy
1379.000,425.500,128.200,33.510,804.800,259.000,66.050,17.340,232.300,62.530,19.020,6.400,443.700,140.300,41.740,13.800,easy
1384.000,427.600,128.700,33.600,808.600,259.800,66.490,17.420,233.600,62.490,19.020,6.401,444.900,140.100,41.670,13.710,easy
1377.000,426.000,127.000,33.240,808.400,258.200,66.090,17.350,232.500,62.490,18.880,6.362,443.300,139.600,41.340,13.620,easy
1370.000,420.000,127.100,33.190,802.500,259.900,65.810,17.280,231.900,62.490,18.890,6.355,441.400,139.100,41.310,13.570,easy
1369.000,420.200,127.200,32.990,806.500,257.800,65.520,17.280,230.700,62.310,18.880,6.351,440.800,139.000,41.300,13.570,easy
1371.000,422.600,127.400,33.180,809.000,258.700,65.650,17.370,231.300,62.180,18.920,6.350,441.200,139.500,41.350,13.560,easy
1372.000,420.600,126.600,32.960,807.400,257.900,65.650,17.290,229.300,62.640,18.890,6.358,441.700,139.300,41.350,13.630,easy
1375.000,422.000,126.900,33.160,806.100,258.900,65.420,17.350,231.700,62.480,18.860,6.361,442.800,139.400,41.450,13.650,easy
1376.000,421.000,128.200,33.240,808.700,257.500,66.030,17.360,231.500,62.590,18.970,6.360,444.000,139.700,41.590,13.700,easy
1380.000,426.000,127.200,33.420,804.900,258.700,66.240,17.300,230.100,62.660,18.960,6.367,443.200,139.900,41.610,13.710,easy
1383.000,428.200,127.900,33.500,806.700,259.900,66.040,17.350,231.600,62.480,18.940,6.386,444.200,140.500,41.800,13.770,easy
1386.000,426.700,127.800,33.630,815.500,259.400,66.420,17.400,233.300,62.530,18.970,6.383,444.900,140.500,41.710,13.750,easy
1382.000,423.900,127.700,33.280,805.900,260.400,66.180,17.250,232.200,62.770,18.920,6.355,443.400,139.400,41.430,13.590,easy
1376.000,422.300,126.200,33.260,807.500,257.800,65.660,17.390,232.100,62.660,18.880,6.373,442.600,139.400,41.380,13.580,easy
1375.000,424.600,127.400,33.140,806.600,257.200,65.910,17.330,231.100,62.400,18.930,6.343,442.600,139.300,41.250,13.630,easy
1377.000,427.000,127.100,33.190,807.400,258.400,66.210,17.400,234.000,62.650,18.910,6.351,441.500,139.200,41.200,13.550,easy
1375.000,424.200,127.200,33.060,815.400,258.900,65.940,17.330,230.400,62.300,18.930,6.351,442.500,139.200,41.360,13.590,easy
1378.000,424.900,127.700,33.160,811.300,259.500,65.950,17.410,232.000,62.340,18.890,6.363,442.700,139.500,41.320,13.620,easy
1382.000,427.000,127.200,33.280,806.100,259.300,66.130,17.400,230.100,62.880,18.970,6.370,442.900,139.600,41.380,13.650,easy
1385.000,428.800,127.900,33.370,811.000,258.400,66.690,17.460,232.900,62.720,18.930,6.365,444.800,139.700,41.550,13.670,easy
1389.000,427.100,128.500,33.650,814.100,259.500,66.300,17.480,230.800,62.480,18.970,6.380,445.000,140.300,41.720,13.730,easy
1391.000,430.900,129.200,33.610,810.000,259.300,66.430,17.450,231.400,62.640,19.000,6.375,443.600,139.800,41.390,13.620,easy
1380.000,422.300,126.800,33.200,814.000,259.800,66.240,17.400,233.300,62.610,18.910,6.348,442.700,139.200,41.180,13.530,easy
1379.000,426.300,126.900,33.050,810.100,259.200,65.990,17.370,233.400,62.690,18.910,6.355,442.300,138.900,41.180,13.500,easy
1376.000,427.700,127.000,33.080,814.200,259.400,66.070,17.360,232.300,62.330,18.960,6.378,442.700,139.200,41.250,13.510,easy
1377.000,422.500,126.800,33.150,808.100,259.400,66.660,17.440,233.000,62.950,18.970,6.362,443.400,139.300,41.250,13.560,easy
1379.000,425.600,128.600,33.170,810.100,260.300,65.970,17.470,234.700,62.940,19.010,6.386,443.600,139.200,41.330,13.610,easy
1380.000,425.900,127.200,33.210,816.900,258.400,66.320,17.420,233.800,63.100,19.060,6.386,444.100,139.800,41.450,13.610,easy
1382.000,430.800,127.600,33.250,816.000,258.500,66.310,17.420,234.800,62.960,19.020,6.396,445.000,140.100,41.590,13.690,easy
1388.000,424.000,128.500,33.390,811.900,261.700,66.160,17.440,234.900,62.830,19.080,6.401,444.700,140.300,41.620,13.710,easy
1390.000,427.400,128.200,33.530,809.500,260.600,66.470,17.540,231.900,62.930,19.070,6.420,444.900,140.300,41.670,13.660,easy
1388.000,426.000,126.500,33.360,817.300,261.100,66.480,17.480,236.500,63.030,19.100,6.429,444.300,139.900,41.540,13.570,easy
1380.000,427.700,127.200,33.080,811.200,260.100,66.830,17.500,233.600,63.030,19.050,6.402,443.100,139.100,41.290,13.530,easy
1379.000,425.600,126.700,33.180,809.000,260.500,66.090,17.510,234.300,62.860,19.060,6.398,442.600,139.400,41.220,13.520,easy
1379.000,424.600,127.800,33.230,811.700,260.900,66.530,17.550,232.700,62.770,19.070,6.416,442.800,139.400,41.350,13.510,easy
1379.000,425.700,127.400,33.080,808.300,260.100,66.580,17.450,231.600,63.280,19.090,6.430,443.200,139.500,41.260,13.550,easy
1379.000,423.900,127.400,33.010,807.200,258.800,66.510,17.520,233.300,63.140,19.130,6.417,443.700,139.400,41.270,13.530,easy
1382.000,426.500,128.400,33.260,807.600,260.100,66.580,17.490,233.500,63.130,19.120,6.416,443.800,139.400,41.400,13.560,easy
1384.000,427.300,128.800,33.210,805.700,261.200,66.760,17.490,231.600,63.080,19.150,6.426,444.000,139.700,41.490,13.600,easy
1388.000,429.200,127.800,33.360,820.400,259.400,66.120,17.560,234.200,63.300,19.160,6.455,444.400,140.200,41.490,13.640,easy
1388.000,427.200,127.600,33.510,815.100,261.900,67.110,17.590,234.000,63.150,19.120,6.442,445.500,140.400,41.520,13.580,easy
1387.000,424.500,128.000,33.280,812.100,261.700,66.490,17.530,233.300,63.000,19.100,6.409,443.200,139.300,41.250,13.480,easy
1378.000,421.400,126.700,33.170,815.700,260.700,66.200,17.540,234.600,62.960,19.070,6.403,442.700,139.200,41.110,13.420,easy
1377.000,424.800,127.600,33.180,809.700,260.000,66.500,17.500,232.000,63.060,19.140,6.411,442.900,139.300,41.140,13.430,easy
1379.000,420.100,127.900,33.070,818.800,261.500,66.270,17.610,232.200,62.700,19.090,6.416,441.700,139.000,41.090,13.410,easy
1378.000,424.100,128.300,33.300,807.400,260.200,66.540,17.570,231.800,62.960,19.120,6.409,442.800,139.100,41.150,13.430,easy
1380.000,424.000,127.700,33.270,805.900,260.600,66.130,17.460,231.900,63.200,19.160,6.426,443.200,139.500,41.140,13.480,easy
1381.000,428.000,126.900,33.300,810.500,260.900,66.410,17.530,235.300,63.180,19.170,6.437,445.300,139.900,41.410,13.510,easy
1384.000,424.200,127.800,33.390,809.400,261.100,66.860,17.470,234.600,63.250,19.210,6.455,444.300,139.900,41.450,13.560,easy
1385.000,426.600,128.700,33.420,816.300,259.600,67.150,17.550,233.400,63.380,19.260,6.468,445.500,139.800,41.380,13.500,easy
1383.000,425.000,128.300,33.400,806.900,259.100,66.270,17.600,235.900,63.320,19.230,6.455,444.200,139.600,41.210,13.430,easy
1377.000,419.100,127.200,32.910,815.900,260.700,66.300,17.490,235.800,63.220,19.200,6.449,443.400,139.300,40.990,13.390,easy
1377.000,426.400,127.100,33.040,807.200,260.300,66.210,17.610,233.100,63.280,19.120,6.438,443.400,139.400,41.020,13.410,easy
1377.000,423.100,127.100,33.070,813.600,260.000,66.700,17.620,234.500,63.260,19.220,6.442,443.600,139.200,41.040,13.410,easy
1377.000,420.700,127.200,32.900,808.100,260.200,66.500,17.520,234.800,62.990,19.250,6.475,443.500,139.200,41.080,13.440,easy
1379.000,427.000,127.000,33.190,806.400,259.500,66.680,17.660,233.900,63.510,19.280,6.480,444.800,139.700,41.250,13.480,easy
1381.000,428.000,128.000,33.210,814.400,260.800,66.240,17.680,236.500,63.370,19.310,6.480,445.000,140.000,41.310,13.510,easy
1383.000,424.600,127.600,33.210,804.400,258.800,66.390,17.750,234.900,63.490,19.240,6.505,445.900,140.000,41.440,13.570,easy
1386.000,426.100,128.000,33.210,814.200,261.100,66.890,17.500,232.300,63.370,19.340,6.495,444.200,139.800,41.160,13.460,easy
1378.000,425.100,126.200,33.330,808.800,258.100,66.570,17.670,234.200,63.420,19.320,6.487,443.000,139.100,41.080,13.410,easy
1374.000,425.300,126.800,33.000,812.600,259.000,66.410,17.530,234.200,63.710,19.220,6.482,442.900,138.900,41.060,13.380,easy
1373.000,421.900,126.800,33.160,811.800,258.400,66.570,17.520,233.200,63.270,19.270,6.485,443.100,139.100,40.960,13.370,easy
1374.000,424.500,127.200,33.070,803.200,260.000,66.240,17.640,234.600,63.200,19.290,6.502,443.000,139.000,40.960,13.380,easy
1374.000,423.100,127.200,33.000,811.900,260.000,66.410,17.610,233.800,63.770,19.310,6.509,443.600,139.300,41.090,13.420,easy
1378.000,425.200,127.100,33.180,814.500,258.600,66.740,17.690,233.800,63.560,19.340,6.504,443.200,139.200,41.160,13.440,easy
1379.000,425.700,127.800,33.240,802.200,260.500,66.540,17.560,234.900,63.180,19.320,6.506,444.000,139.600,41.230,13.500,easy
1382.000,424.000,128.200,33.350,809.000,260.700,66.490,17.570,233.700,63.500,19.340,6.519,444.200,139.500,41.290,13.520,easy
1382.000,428.900,127.900,33.300,821.400,261.500,67.420,17.600,234.500,63.550,19.310,6.527,445.300,139.700,41.250,13.510,easy
1382.000,424.900,128.000,33.220,810.200,259.600,66.690,17.550,232.700,63.400,19.350,6.506,443.200,139.000,41.060,13.420,easy
1377.000,423.400,127.100,32.880,806.200,261.500,66.520,17.670,234.900,63.290,19.230,6.505,442.700,139.000,40.980,13.330,easy
1375.000,424.100,126.800,33.030,808.100,258.000,66.590,17.630,234.300,63.320,19.300,6.503,442.300,138.800,40.980,13.370,easy
1376.000,427.500,126.500,33.000,811.600,260.000,66.520,17.560,235.700,63.240,19.290,6.519,442.500,138.900,40.990,13.400,easy
1375.000,427.300,126.900,32.990,804.500,259.200,66.530,17.630,234.200,63.940,19.320,6.500,442.400,138.800,41.030,13.410,easy
1376.000,425.200,127.400,32.930,812.900,259.700,66.490,17.550,234.700,63.600,19.370,6.535,443.200,139.300,41.040,13.450,easy
1380.000,423.800,128.500,33.310,806.900,258.700,66.410,17.540,234.600,63.490,19.330,6.534,443.900,139.400,41.270,13.510,easy
1384.000,425.600,128.000,33.230,810.100,258.700,66.300,17.690,233.800,63.690,19.370,6.552,444.800,140.000,41.430,13.560,easy
1386.000,430.800,128.300,33.520,814.900,259.100,66.440,17.720,235.800,63.890,19.520,6.555,446.200,140.500,41.470,13.600,easy
1391.000,425.800,128.700,33.600,810.700,260.500,66.580,17.730,237.900,64.080,19.450,6.573,447.800,140.800,41.670,13.600,easy
1391.000,424.200,128.000,33.390,807.100,260.500,66.960,17.770,233.300,64.340,19.520,6.561,447.300,140.600,41.580,13.500,easy
1385.000,425.600,127.400,33.330,811.900,259.100,66.270,17.590,236.600,64.230,19.570,6.561,448.700,140.800,41.640,13.490,easy
1381.000,424.400,126.000,33.240,805.100,256.800,65.360,17.150,235.900,64.660,19.690,6.587,453.800,142.700,42.120,13.730,easy
1372.000,419.500,124.300,32.450,798.400,254.800,64.240,16.790,242.900,66.070,20.100,6.736,460.700,145.700,42.910,14.030,easy
1368.000,417.300,123.800,32.370,795.100,252.200,64.460,16.890,245.300,67.190,20.310,6.831,463.700,147.000,43.330,14.150,easy
1369.000,420.000,124.300,32.620,797.100,254.200,63.920,16.920,245.900,67.340,20.390,6.872,463.900,147.400,43.560,14.230,easy
1374.000,420.400,125.500,32.770,798.200,255.900,64.350,17.040,245.400,67.580,20.470,6.873,465.500,148.000,43.720,14.270,easy
1378.000,421.000,126.600,33.220,799.500,256.200,64.260,17.290,245.100,67.710,20.590,6.891,466.700,148.600,43.840,14.350,easy
1380.000,421.800,126.100,33.240,800.700,254.700,64.990,17.290,246.500,67.630,20.640,6.907,467.200,148.500,44.100,14.350,easy
1383.000,425.000,126.000,33.290,808.600,258.200,65.630,17.190,245.500,67.620,20.640,6.882,466.800,148.300,43.690,14.230,easy
1378.000,424.100,125.600,32.970,804.800,257.200,65.310,17.240,246.800,67.710,20.510,6.860,465.000,147.500,43.620,14.130,easy
1377.000,423.300,125.800,33.160,800.700,256.200,65.330,17.350,245.300,67.230,20.510,6.846,464.800,147.500,43.510,14.120,easy
1377.000,420.300,126.100,33.280,802.500,257.700,65.050,17.350,245.400,67.690,20.480,6.849,464.500,147.400,43.560,14.120,easy
1379.000,423.700,126.900,33.410,807.700,258.300,65.300,17.410,245.000,67.600,20.510,6.839,464.200,147.200,43.610,14.120,easy
1382.000,422.800,127.000,33.380,801.800,256.500,65.300,17.450,246.200,67.510,20.540,6.843,464.300,147.400,43.680,14.160,easy
1383.000,423.100,126.000,33.430,799.800,257.500,65.570,17.540,245.300,67.580,20.520,6.858,464.700,147.800,43.800,14.200,easy
1388.000,428.900,127.400,33.540,802.100,257.100,65.050,17.370,245.600,67.400,20.500,6.856,465.300,148.100,43.840,14.270,easy
1389.000,426.600,128.400,33.750,804.900,256.700,65.290,17.510,246.700,67.530,20.510,6.847,465.900,147.900,43.930,14.280,easy
1393.000,430.200,127.600,33.800,802.700,258.200,65.520,17.470,242.300,67.400,20.510,6.855,466.900,148.200,43.870,14.300,easy
1398.000,431.000,127.200,33.900,808.600,260.300,65.650,17.570,245.000,67.240,20.440,6.825,465.800,147.800,43.660,14.180,easy
1392.000,427.100,128.000,33.700,803.100,259.000,65.860,17.600,244.500,67.100,20.370,6.800,463.200,146.600,43.370,14.110,easy
1389.000,423.500,126.700,33.620,802.100,257.100,65.850,17.520,245.300,66.900,20.380,6.794,462.800,146.800,43.300,14.110,easy
1386.000,425.600,126.900,33.650,806.200,258.300,65.640,17.500,243.700,67.180,20.350,6.796,462.700,146.600,43.370,14.080,easy
1390.000,424.200,126.700,33.670,806.800,259.900,65.880,17.470,243.400,66.740,20.390,6.787,462.400,147.100,43.430,14.130,easy
1390.000,424.800,126.900,33.570,794.200,258.200,65.290,17.510,243.800,67.110,20.380,6.789,463.500,146.800,43.530,14.170,easy
1393.000,429.000,127.700,33.840,805.700,257.800,65.570,17.550,243.200,67.090,20.320,6.806,463.300,146.900,43.600,14.210,easy
1397.000,425.100,128.200,33.830,799.800,259.400,65.170,17.410,244.700,67.370,20.320,6.798,463.600,147.400,43.580,14.220,easy
1398.000,429.600,127.900,34.110,816.200,259.000,65.860,17.410,245.400,67.010,20.360,6.799,464.000,147.700,43.860,14.310,easy
1402.000,426.200,127.900,34.030,805.500,260.400,65.760,17.380,244.200,66.980,20.380,6.810,465.000,147.900,43.810,14.340,easy
1406.000,431.600,130.300,34.170,810.700,259.200,65.950,17.690,244.700,66.810,20.350,6.812,464.600,148.100,43.890,14.300,easy
1406.000,429.300,128.900,33.850,816.300,261.400,65.930,17.440,244.200,66.560,20.260,6.788,463.500,147.400,43.560,14.170,easy
1399.000,426.600,128.500,33.720,812.600,259.200,65.570,17.500,244.400,66.740,20.230,6.747,462.200,146.700,43.480,14.170,easy
1396.000,428.000,128.400,33.840,811.600,260.200,65.590,17.400,243.700,66.730,20.200,6.746,462.200,146.800,43.500,14.160,easy
1399.000,426.900,128.500,33.660,811.400,259.900,65.540,17.390,241.600,66.570,20.240,6.753,461.200,146.900,43.490,14.170,easy
1399.000,423.200,128.500,33.870,809.000,257.500,65.740,17.420,244.500,66.770,20.200,6.755,461.500,146.900,43.620,14.210,easy
1400.000,428.100,129.400,33.820,807.900,257.800,65.240,17.450,242.300,66.610,20.220,6.756,462.700,147.200,43.580,14.240,easy
1403.000,431.400,129.000,34.060,804.400,258.100,65.690,17.410,242.400,66.340,20.200,6.761,462.300,147.400,43.640,14.270,easy
1408.000,429.800,129.100,34.010,815.300,260.300,65.570,17.340,244.500,66.600,20.200,6.737,463.500,147.200,43.770,14.280,easy
1409.000,430.200,130.100,34.210,810.100,258.400,65.600,17.420,243.200,66.290,20.150,6.760,463.600,147.800,43.860,14.350,easy
1410.000,433.500,130.500,34.390,817.000,261.400,65.830,17.480,241.700,66.510,20.140,6.747,463.500,147.400,43.760,14.250,easy
1408.000,429.800,129.200,33.710,807.200,259.600,65.530,17.370,242.200,66.180,20.150,6.733,462.200,147.000,43.460,14.190,easy
1404.000,431.800,128.800,33.970,810.300,258.700,65.420,17.340,243.900,66.170,20.100,6.717,460.400,146.500,43.350,14.130,easy
1402.000,430.300,128.600,33.900,810.800,259.600,65.510,17.610,239.400,65.690,20.040,6.697,460.600,146.500,43.270,14.120,easy
1403.000,429.500,128.500,33.850,814.200,259.900,65.920,17.440,242.100,66.010,20.040,6.690,460.200,146.100,43.290,14.160,easy
1403.000,430.000,129.000,33.870,802.900,258.000,65.550,17.420,240.200,66.230,20.010,6.697,460.500,146.000,43.350,14.180,easy
1405.000,431.300,130.100,34.060,816.700,259.000,65.700,17.490,241.900,65.810,20.000,6.694,461.500,146.300,43.410,14.200,easy
1409.000,432.700,130.800,34.130,804.000,260.000,65.470,17.410,240.800,65.880,20.020,6.698,459.900,146.700,43.470,14.230,easy
1411.000,433.200,129.400,34.320,815.200,260.400,65.750,17.460,241.800,66.290,20.030,6.699,461.200,146.800,43.520,14.260,easy
1414.000,432.700,130.800,34.480,817.600,258.600,65.990,17.470,241.400,66.020,20.050,6.682,461.300,146.600,43.530,14.130,easy
1409.000,431.500,129.500,34.010,802.500,259.700,66.200,17.550,243.300,65.860,19.950,6.655,459.500,145.600,43.200,14.110,easy
1404.000,431.300,128.000,33.920,811.100,260.900,65.790,17.530,242.700,65.860,19.930,6.628,458.700,145.300,43.040,14.040,easy
1403.000,425.400,128.500,33.870,818.800,260.200,65.480,17.510,240.200,65.460,19.930,6.645,458.300,145.000,43.030,14.050,easy
1404.000,428.400,128.800,33.930,813.700,257.000,66.280,17.450,240.900,65.790,19.890,6.635,458.000,145.100,43.120,14.080,easy
1404.000,429.100,128.900,34.010,811.700,260.300,65.830,17.530,239.400,65.540,19.880,6.636,458.200,145.600,42.980,14.060,easy
1405.000,432.100,129.200,34.050,812.200,258.300,65.880,17.500,241.500,65.720,19.850,6.642,457.900,145.300,43.170,14.100,easy
1408.000,432.900,128.700,34.290,801.500,259.300,66.080,17.520,238.800,65.610,19.860,6.648,458.900,145.600,43.210,14.110,easy
1410.000,432.200,128.900,34.270,804.900,260.800,66.070,17.480,238.900,65.620,19.870,6.648,458.800,145.800,43.320,14.200,easy
1412.000,435.000,129.500,34.530,816.100,260.300,66.130,17.690,239.900,65.430,19.880,6.647,459.500,145.700,43.210,14.130,easy
1408.000,430.800,130.000,34.070,808.400,260.800,66.500,17.510,241.600,65.680,19.850,6.629,457.600,145.200,42.880,13.990,easy
1402.000,434.300,128.600,33.950,811.700,261.000,66.400,17.520,241.000,65.130,19.790,6.598,455.600,144.500,42.790,13.960,easy
1398.000,428.200,129.700,33.790,807.600,258.900,65.910,17.520,241.000,65.360,19.820,6.597,456.400,144.400,42.650,13.940,easy
1398.000,432.100,127.800,33.860,808.900,259.700,65.360,17.480,236.900,65.290,19.690,6.583,455.600,144.600,42.660,13.920,easy
1399.000,430.900,128.400,33.830,815.200,259.000,65.500,17.490,241.000,65.140,19.740,6.608,456.300,144.300,42.710,13.980,easy
1402.000,428.100,129.100,34.020,810.900,260.500,65.570,17.490,239.300,64.960,19.730,6.614,456.400,144.400,42.870,13.970,easy
1402.000,432.500,128.500,34.200,812.300,259.500,65.740,17.620,238.300,65.240,19.770,6.612,457.300,144.700,42.880,14.020,easy
1404.000,434.000,129.300,34.050,810.000,260.500,65.990,17.550,238.200,65.360,19.740,6.615,457.500,144.800,42.960,14.030,easy
1408.000,432.800,130.700,34.200,811.000,260.500,65.970,17.580,240.200,65.150,19.790,6.595,457.800,145.100,42.950,14.060,easy
1408.000,433.600,129.500,34.150,812.800,259.500,66.150,17.570,239.200,65.320,19.810,6.597,455.900,144.100,42.610,13.940,easy
1398.000,426.900,128.000,33.900,812.000,259.900,65.750,17.460,236.600,65.150,19.680,6.572,455.000,143.800,42.500,13.890,easy
1396.000,428.400,127.700,33.900,804.600,258.800,65.440,17.410,239.300,65.490,19.680,6.565,453.700,143.300,42.420,13.810,easy
1393.000,426.300,128.500,33.950,812.000,258.500,65.650,17.470,238.600,65.010,19.660,6.583,454.600,143.600,42.490,13.810,easy
1396.000,425.200,128.700,33.670,804.500,258.700,65.990,17.410,240.100,64.830,19.630,6.570,453.400,143.200,42.460,13.880,easy
1394.000,427.000,127.800,33.990,804.400,257.900,65.520,17.540,238.800,65.150,19.690,6.587,454.400,143.800,42.520,13.910,easy
1399.000,428.700,128.300,33.920,808.500,259.200,66.060,17.480,240.000,65.110,19.670,6.582,455.000,143.500,42.630,13.900,easy
1399.000,431.000,128.100,34.120,809.700,259.500,66.170,17.540,241.000,65.010,19.720,6.601,455.400,143.900,42.630,13.950,easy
1402.000,430.800,129.000,33.940,811.600,258.800,65.650,17.470,238.600,65.390,19.720,6.604,455.300,143.900,42.750,13.990,easy
1404.000,431.300,128.900,34.000,811.900,260.500,65.940,17.650,238.900,65.190,19.720,6.603,454.800,144.200,42.620,13.920,easy
1399.000,428.400,128.800,33.770,810.900,258.300,66.130,17.580,238.000,65.150,19.710,6.578,454.100,143.600,42.430,13.820,easy
1396.000,431.200,129.400,33.710,808.300,258.800,65.880,17.590,240.500,64.930,19.630,6.553,453.800,143.300,42.270,13.780,easy
1393.000,426.500,129.300,33.840,805.600,258.200,65.710,17.450,240.200,64.890,19.640,6.565,453.400,143.200,42.340,13.820,easy
1393.000,425.900,129.000,33.720,807.300,260.200,65.650,17.470,238.200,65.060,19.660,6.541,453.100,143.000,42.390,13.830,easy
1395.000,430.100,128.500,33.740,802.700,257.500,65.650,17.480,237.800,64.950,19.610,6.560,452.800,143.400,42.310,13.810,easy
1395.000,426.400,127.800,33.980,804.300,259.500,65.450,17.580,239.000,65.070,19.660,6.566,453.900,143.400,42.480,13.890,easy
1398.000,431.200,128.000,33.920,803.300,259.100,66.150,17.410,237.200,65.100,19.640,6.572,454.200,143.500,42.520,13.890,easy
1399.000,430.200,128.900,33.910,805.000,259.500,65.150,17.560,238.500,65.190,19.630,6.588,455.100,144.000,42.570,13.940,easy
1401.000,430.500,128.600,34.150,812.800,259.200,66.290,17.480,239.400,65.090,19.650,6.581,455.700,143.700,42.590,13.920,easy
1398.000,423.100,128.700,33.790,803.300,258.900,65.650,17.530,239.800,65.020,19.670,6.570,453.800,143.100,42.420,13.790,easy
1390.000,430.300,127.900,33.750,812.900,257.500,65.680,17.540,236.600,64.960,19.600,6.553,451.900,143.000,42.250,13.780,easy
1388.000,426.100,126.700,33.570,808.000,257.100,65.980,17.460,240.000,64.920,19.620,6.547,453.400,143.100,42.280,13.760,easy
1390.000,426.100,127.500,33.690,803.800,259.000,65.710,17.460,237.900,64.740,19.550,6.554,452.200,143.200,42.180,13.780,easy
1390.000,427.700,127.400,33.630,808.000,257.500,65.860,17.490,238.800,64.800,19.570,6.549,453.100,142.700,42.380,13.770,easy
1393.000,428.100,127.900,33.770,806.700,259.900,65.560,17.670,238.200,65.180,19.570,6.567,453.800,143.100,42.450,13.860,easy
1392.000,427.100,128.500,33.710,812.200,257.900,65.580,17.460,236.500,64.780,19.630,6.549,453.400,143.300,42.460,13.860,easy
1396.000,427.600,128.500,33.840,802.000,259.300,65.810,17.560,237.100,64.780,19.670,6.561,454.600,143.400,42.490,13.870,easy
1396.000,433.900,129.200,34.040,808.200,260.100,65.540,17.550,239.100,65.170,19.620,6.548,454.000,143.300,42.330,13.840,easy
1392.000,428.900,128.300,33.880,803.900,257.800,65.530,17.430,237.400,64.530,19.580,6.534,452.500,142.800,42.090,13.720,easy
1386.000,423.700,128.000,33.650,806.500,258.800,65.880,17.490,237.600,64.540,19.560,6.533,452.900,142.500,42.090,13.680,easy
1386.000,428.700,126.800,33.430,808.200,257.600,66.160,17.600,236.200,64.600,19.570,6.532,451.500,142.400,42.010,13.710,easy
1386.000,428.800,127.300,33.620,811.800,259.500,65.900,17.580,237.600,64.450,19.550,6.530,451.800,142.500,42.190,13.720,easy
1387.000,428.900,127.700,33.670,804.300,258.200,65.340,17.460,239.300,64.330,19.500,6.542,452.000,142.700,42.130,13.770,easy
1388.000,425.500,128.600,33.670,806.600,258.100,65.710,17.430,236.200,64.530,19.600,6.546,452.700,142.900,42.200,13.830,easy
1391.000,428.800,128.000,33.770,804.400,259.400,66.110,17.480,239.200,64.880,19.610,6.555,453.300,143.000,42.270,13.850,easy
1393.000,426.000,128.500,33.760,811.000,258.700,65.990,17.410,238.200,65.010,19.570,6.542,454.400,143.100,42.560,13.910,easy
1397.000,428.500,128.500,33.860,809.900,259.200,65.700,17.540,237.800,64.610,19.580,6.563,454.400,143.100,42.360,13.830,easy
1392.000,426.900,128.400,33.670,806.100,258.000,65.340,17.490,237.800,64.420,19.530,6.541,452.600,142.500,42.160,13.730,easy
1385.000,430.900,127.700,33.530,808.200,257.000,66.000,17.450,238.500,64.630,19.550,6.514,452.300,142.400,42.100,13.700,easy
1384.000,426.100,127.000,33.480,811.000,257.900,65.540,17.500,237.600,64.790,19.500,6.533,451.900,142.600,42.030,13.710,easy
1386.000,427.700,128.600,33.460,804.000,258.400,66.240,17.460,238.000,64.800,19.450,6.513,452.300,142.500,42.110,13.740,easy
1386.000,426.300,128.700,33.690,807.500,259.700,65.570,17.490,236.900,64.440,19.510,6.526,451.500,142.600,42.240,13.780,easy
1388.000,425.500,127.200,33.730,800.900,259.600,65.780,17.460,237.800,64.770,19.530,6.516,452.300,142.700,42.270,13.820,easy
1390.000,424.800,127.300,33.680,802.300,259.000,66.250,17.420,238.000,64.700,19.490,6.541,452.700,143.100,42.430,13.840,easy
1394.000,431.000,128.400,34.020,812.700,259.400,66.000,17.540,240.100,64.390,19.540,6.539,454.100,143.300,42.620,13.910,easy
1397.000,429.700,129.100,34.130,812.100,259.900,66.390,17.520,238.400,64.820,19.530,6.536,454.700,143.800,42.640,13.880,easy
1394.000,428.700,128.100,33.650,810.100,257.800,66.210,17.590,237.700,64.410,19.520,6.528,454.600,142.900,42.220,13.790,easy
1390.000,422.900,129.600,33.490,810.700,259.400,66.090,17.610,237.800,64.460,19.500,6.497,452.200,142.900,42.180,13.730,easy
1390.000,425.000,128.400,33.750,803.700,259.400,65.460,17.400,237.700,64.230,19.460,6.494,453.400,142.900,42.160,13.740,easy
1388.000,427.900,127.900,33.660,807.100,257.200,66.090,17.550,238.800,64.690,19.520,6.505,452.100,142.900,42.150,13.740,easy
1388.000,427.800,128.000,33.620,808.500,257.900,66.150,17.470,237.600,64.520,19.500,6.505,452.800,142.900,42.280,13.790,easy
1393.000,429.800,128.000,33.740,803.100,258.100,65.740,17.470,239.200,64.460,19.510,6.529,453.200,143.200,42.390,13.800,easy
1395.000,429.500,128.700,33.790,811.800,258.900,66.080,17.580,238.100,64.490,19.490,6.507,454.200,143.300,42.490,13.860,easy
1397.000,426.200,129.300,33.980,811.800,259.700,65.900,17.530,238.400,64.560,19.540,6.518,454.300,143.700,42.570,13.900,easy
1401.000,434.500,130.000,34.160,809.000,259.000,65.980,17.550,237.600,64.880,19.550,6.532,455.300,143.800,42.620,13.960,easy
1402.000,431.400,130.300,34.300,811.600,260.300,66.220,17.670,237.700,64.980,19.560,6.524,455.400,143.900,42.620,13.940,easy
1402.000,433.500,129.300,34.020,816.400,260.300,66.110,17.540,239.300,64.660,19.500,6.514,454.300,143.200,42.340,13.850,easy
1395.000,429.100,128.400,33.820,804.100,260.400,66.310,17.530,236.900,64.430,19.490,6.496,453.200,143.000,42.390,13.770,easy
1395.000,434.600,128.900,33.980,805.500,259.000,66.000,17.500,238.800,64.570,19.500,6.493,453.200,143.100,42.370,13.820,easy
1397.000,427.700,128.500,33.860,807.400,259.600,66.310,17.540,240.200,64.620,19.520,6.490,453.000,143.200,42.370,13.820,easy
1397.000,431.400,129.200,33.790,812.400,257.800,65.970,17.540,239.300,64.490,19.530,6.495,453.800,143.300,42.390,13.850,easy
1399.000,428.800,129.100,34.030,805.800,257.600,65.510,17.560,239.800,64.520,19.520,6.514,453.300,143.300,42.450,13.900,easy
1402.000,433.500,129.400,34.080,817.500,259.000,66.220,17.590,237.600,64.940,19.500,6.503,454.900,143.700,42.680,13.960,easy
1405.000,434.800,130.100,34.330,809.900,259.100,66.280,17.530,236.100,64.640,19.500,6.527,455.900,144.200,42.770,13.970,easy
1409.000,433.100,129.900,34.310,816.400,258.600,66.060,17.520,237.300,64.990,19.550,6.512,456.100,144.400,42.850,14.010,easy
1409.000,433.500,130.200,34.270,815.300,261.600,66.090,17.530,238.300,64.750,19.560,6.509,455.400,143.800,42.550,13.870,easy
1403.000,427.800,130.000,34.190,813.200,259.400,65.960,17.510,237.000,64.590,19.560,6.490,454.000,143.500,42.470,13.870,easy
1402.000,433.000,128.400,33.840,805.300,259.900,65.790,17.520,239.300,64.870,19.530,6.501,454.100,143.400,42.390,13.880,easy
1402.000,432.700,129.600,34.100,809.900,259.000,66.610,17.590,238.400,64.480,19.500,6.497,454.000,143.500,42.490,13.880,easy
1405.000,429.800,129.500,34.220,812.400,259.400,66.330,17.470,239.500,64.570,19.490,6.509,454.800,143.600,42.540,13.920,easy
1405.000,435.500,130.400,34.290,807.000,260.700,65.840,17.530,236.800,64.450,19.540,6.506,454.400,143.800,42.680,13.960,easy
1408.000,431.300,130.100,34.310,815.400,259.600,66.310,17.630,238.200,64.700,19.570,6.508,456.200,144.200,42.760,14.010,easy
1411.000,430.800,130.600,34.350,816.800,258.600,65.900,17.570,240.000,64.930,19.530,6.511,454.900,144.300,42.860,14.050,easy
1414.000,433.000,131.800,34.690,813.400,261.400,66.530,17.680,238.200,64.810,19.560,6.530,457.400,144.700,42.850,14.010,easy
1415.000,433.800,130.200,34.480,810.100,259.400,66.720,17.650,238.600,64.650,19.490,6.517,455.200,143.800,42.720,13.920,easy
1409.000,432.800,130.200,34.320,808.100,260.100,66.640,17.560,236.800,64.610,19.520,6.498,454.400,143.500,42.610,13.900,easy
1407.000,433.000,129.500,34.140,817.200,260.200,66.350,17.560,236.700,64.570,19.440,6.490,454.300,143.600,42.530,13.890,easy
1407.000,434.200,129.800,34.150,811.500,261.200,66.150,17.590,239.500,64.560,19.480,6.503,453.900,143.500,42.540,13.880,easy
1409.000,431.600,131.400,34.080,817.100,259.600,65.900,17.500,238.500,64.520,19.510,6.506,453.700,143.500,42.640,13.920,easy
1411.000,435.100,130.700,34.340,816.100,261.100,66.560,17.520,237.500,64.510,19.520,6.506,455.200,143.900,42.670,13.970,easy
1415.000,431.200,129.400,34.520,816.100,260.800,66.830,17.570,237.300,64.670,19.550,6.542,454.900,144.000,42.800,14.020,easy
1417.000,439.700,130.700,34.540,819.800,259.900,66.430,17.520,239.200,64.540,19.540,6.525,454.800,144.100,42.890,14.040,easy
1419.000,435.600,130.700,34.590,820.200,260.000,66.120,17.610,237.500,64.500,19.530,6.539,456.100,144.500,42.990,14.090,easy
1422.000,438.800,131.600,34.730,818.100,261.600,66.370,17.740,237.900,64.330,19.600,6.529,456.400,144.400,43.010,14.060,easy
1420.000,433.300,130.900,34.590,820.400,261.500,66.000,17.550,236.200,64.490,19.540,6.519,454.700,144.000,42.720,13.970,easy
1413.000,435.000,130.200,34.240,828.800,261.700,66.790,17.650,236.900,64.570,19.460,6.500,453.900,143.700,42.550,13.910,easy
1411.000,434.300,131.100,34.340,814.900,261.600,66.030,17.600,238.400,64.840,19.460,6.489,454.100,143.500,42.590,13.900,easy
1411.000,435.300,131.300,34.320,823.500,260.900,66.530,17.610,236.500,64.420,19.460,6.508,453.700,143.600,42.560,13.960,easy
1412.000,433.700,130.900,34.500,812.400,261.000,66.610,17.540,238.300,64.510,19.470,6.504,453.900,143.700,42.740,13.940,easy
1414.000,438.700,129.900,34.460,821.500,261.000,66.470,17.620,236.900,64.630,19.550,6.517,454.900,144.100,42.710,14.000,easy
1416.000,438.500,130.200,34.530,822.200,260.700,66.460,17.690,237.000,64.810,19.570,6.515,455.000,144.000,42.870,14.070,easy
1416.000,437.200,131.900,34.480,821.400,263.100,66.560,17.600,239.000,64.220,19.560,6.521,455.900,144.400,43.020,14.100,easy
1419.000,440.000,132.000,34.740,820.800,261.800,66.470,17.700,238.200,64.330,19.580,6.532,456.600,144.700,43.020,14.110,easy
1423.000,441.900,133.000,34.990,816.600,262.900,66.520,17.600,237.700,64.420,19.540,6.541,456.700,144.500,43.100,14.120,easy
1423.000,439.100,131.200,34.700,827.800,262.500,66.430,17.720,239.700,64.510,19.510,6.523,455.500,144.200,42.840,14.050,easy
1415.000,436.200,131.000,34.480,826.800,261.000,67.310,17.690,236.900,64.540,19.500,6.505,454.200,144.000,42.680,13.980,easy
1410.000,435.400,131.400,34.430,814.800,260.600,66.810,17.580,236.400,64.200,19.490,6.504,454.200,144.000,42.620,13.990,easy
1411.000,435.800,130.000,34.340,822.200,260.800,66.110,17.580,236.200,64.680,19.420,6.502,454.300,143.800,42.720,13.980,easy
1412.000,434.100,131.000,34.480,815.700,261.000,66.020,17.610,237.100,64.420,19.460,6.502,453.900,143.600,42.770,14.000,easy
1412.000,432.100,130.500,34.520,822.000,258.900,66.380,17.730,236.200,64.510,19.490,6.495,455.100,143.700,42.790,14.040,easy
1413.000,433.600,132.000,34.450,820.200,260.200,66.350,17.640,238.200,64.290,19.490,6.525,455.500,144.100,42.920,14.040,easy
1416.000,436.100,130.500,34.630,809.400,261.400,66.760,17.540,236.900,64.710,19.510,6.503,456.000,144.300,42.920,14.100,easy
1419.000,436.700,132.400,34.680,817.600,260.500,66.290,17.560,237.900,64.300,19.470,6.511,456.200,144.700,43.000,14.150,easy
1422.000,439.800,132.000,34.820,818.600,264.100,66.670,17.610,238.700,64.320,19.500,6.515,455.400,144.500,43.100,14.120,easy
1418.000,434.800,130.300,34.610,820.400,261.500,66.500,17.600,237.900,64.450,19.440,6.493,455.300,143.900,42.780,14.030,easy
1413.000,435.500,130.100,34.410,815.600,262.200,66.250,17.560,237.300,64.060,19.410,6.485,454.300,143.900,42.640,13.980,easy
1408.000,433.600,130.300,34.310,818.200,262.100,66.240,17.500,238.100,64.080,19.370,6.488,454.600,143.600,42.700,13.980,easy
1410.000,437.800,131.400,34.220,821.600,261.700,66.450,17.610,238.100,64.190,19.430,6.471,454.000,143.800,42.620,13.980,easy
1410.000,433.500,131.100,34.390,818.800,260.800,65.870,17.630,238.300,64.140,19.450,6.476,453.400,143.500,42.690,14.030,easy
1409.000,436.700,131.300,34.610,815.300,260.700,66.360,17.570,236.200,64.430,19.380,6.490,454.600,143.800,42.810,14.010,easy
1412.000,435.200,131.200,34.590,817.100,259.800,66.450,17.580,237.300,64.290,19.440,6.487,454.200,144.100,42.910,14.090,easy
1417.000,439.000,130.900,34.700,817.000,261.400,66.340,17.650,236.000,64.180,19.420,6.494,455.000,144.300,42.940,14.120,easy
1419.000,438.300,131.500,34.680,812.100,262.900,66.710,17.590,234.700,64.640,19.470,6.498,455.500,144.400,42.860,14.080,easy
1418.000,436.900,132.000,34.570,821.500,262.000,66.100,17.740,237.000,64.170,19.440,6.482,455.100,143.600,42.630,13.990,easy
1410.000,435.400,130.800,34.370,816.700,261.500,66.870,17.610,237.600,64.320,19.390,6.447,453.600,143.300,42.500,13.940,easy
1408.000,430.700,131.600,34.070,809.900,261.500,66.400,17.650,235.400,64.320,19.330,6.452,452.200,142.800,42.470,13.920,easy
1407.000,430.300,131.500,34.130,817.700,260.100,66.650,17.590,236.100,64.090,19.370,6.452,451.800,142.800,42.350,13.930,easy
1408.000,433.500,129.700,34.530,813.800,259.300,66.770,17.580,239.000,64.410,19.340,6.452,452.000,142.900,42.520,13.950,easy
1411.000,432.000,130.100,34.500,813.000,260.000,66.410,17.480,235.100,64.080,19.360,6.459,451.700,143.200,42.460,13.980,easy
1411.000,435.500,130.700,34.500,809.700,261.400,66.270,17.570,235.800,64.050,19.380,6.453,452.900,143.000,42.580,13.970,easy
1413.000,437.000,130.700,34.430,814.500,260.300,66.290,17.670,236.000,64.060,19.370,6.469,454.200,143.300,42.700,14.020,easy
1416.000,438.500,131.500,34.620,824.700,260.000,66.410,17.660,237.600,63.920,19.380,6.456,453.000,143.600,42.810,14.060,easy
1417.000,437.600,132.200,34.760,823.200,260.300,66.700,17.500,235.800,64.100,19.350,6.455,453.000,143.100,42.570,13.960,easy
1409.000,434.600,130.300,34.280,814.800,260.900,66.320,17.610,237.700,64.120,19.270,6.432,451.900,142.500,42.290,13.900,easy
1406.000,434.300,130.000,34.290,816.800,261.100,66.100,17.490,235.700,63.780,19.260,6.429,450.600,142.300,42.320,13.820,easy
1403.000,430.800,129.500,34.360,818.400,260.200,66.360,17.560,237.000,63.740,19.270,6.422,450.000,142.200,42.230,13.860,easy
1402.000,433.900,129.700,34.380,817.800,260.400,66.630,17.570,234.200,63.840,19.310,6.430,449.800,142.400,42.170,13.880,easy
1404.000,433.300,129.600,34.200,817.000,262.600,66.300,17.520,237.600,63.760,19.300,6.421,450.500,142.300,42.230,13.860,easy
1406.000,437.000,130.500,34.370,815.300,261.500,65.940,17.570,237.200,63.610,19.270,6.436,451.100,142.200,42.420,13.910,easy
1408.000,434.500,130.500,34.420,820.800,261.800,66.720,17.440,236.000,63.680,19.280,6.435,451.600,142.600,42.380,13.950,easy
1410.000,436.800,130.800,34.450,811.100,261.100,66.450,17.620,236.500,63.850,19.270,6.440,451.000,142.700,42.600,13.970,easy
1412.000,435.800,131.200,34.910,811.700,259.700,66.430,17.640,236.900,63.830,19.340,6.458,452.100,143.100,42.490,13.980,easy
1413.000,437.000,131.100,34.340,822.300,260.200,66.320,17.440,236.000,63.920,19.290,6.429,451.000,142.300,42.260,13.900,easy
1406.000,431.300,130.600,34.450,814.500,259.600,66.590,17.540,236.300,63.570,19.270,6.414,449.500,142.000,42.140,13.830,easy
1402.000,436.200,129.500,34.240,813.400,261.100,66.340,17.430,235.600,63.710,19.220,6.418,449.400,141.800,42.120,13.820,easy
1400.000,431.000,129.100,33.960,820.400,259.400,66.530,17.550,234.000,63.410,19.190,6.405,449.000,141.900,42.050,13.820,easy
1403.000,432.600,129.600,34.070,811.900,259.500,66.840,17.360,235.000,63.730,19.260,6.415,447.900,141.900,41.980,13.820,easy
1402.000,435.300,130.200,34.340,815.600,260.000,66.310,17.610,235.800,63.850,19.220,6.413,449.700,141.700,42.120,13.850,easy
1406.000,432.000,130.300,34.330,817.100,260.500,66.390,17.570,235.300,63.720,19.190,6.426,449.700,142.200,42.170,13.870,easy
1408.000,434.000,129.900,34.470,811.300,261.300,66.570,17.560,236.300,63.660,19.250,6.424,450.800,142.200,42.390,13.910,easy
1412.000,435.500,130.900,34.490,807.500,260.100,66.410,17.370,234.400,63.700,19.280,6.418,450.300,142.300,42.320,13.950,easy
1413.000,435.200,130.500,34.440,816.000,262.000,66.670,17.470,236.900,63.850,19.230,6.433,451.200,142.600,42.500,13.980,easy
1415.000,437.400,131.900,34.470,819.400,261.800,66.500,17.570,235.500,63.710,19.230,6.411,450.000,142.200,42.210,13.890,easy
1404.000,433.100,130.200,34.330,815.800,261.900,66.190,17.470,233.600,63.610,19.190,6.403,449.300,141.700,42.020,13.760,easy
1405.000,430.700,130.500,34.230,819.400,258.300,65.900,17.420,234.800,63.430,19.180,6.375,448.300,141.300,41.950,13.750,easy
1403.000,431.600,129.100,34.150,814.400,259.900,66.180,17.460,236.400,63.280,19.170,6.398,447.400,141.600,41.870,13.720,easy
1405.000,433.700,130.100,34.200,816.200,258.800,65.810,17.560,234.700,63.800,19.140,6.397,448.100,141.500,42.030,13.790,easy
1405.000,434.300,130.700,34.050,811.400,259.700,65.970,17.460,235.300,63.940,19.180,6.397,449.100,141.500,41.960,13.810,easy
1404.000,432.500,129.400,34.170,811.700,259.400,66.100,17.430,236.400,63.510,19.110,6.389,447.300,141.100,41.920,13.760,bogus
1403.000,436.100,130.100,34.040,814.100,259.500,66.290,17.460,234.300,63.180,19.170,6.389,447.000,141.200,42.030,13.770,bogus
1405.000,430.500,130.500,34.270,817.900,261.000,65.970,17.590,233.700,63.410,19.230,6.402,448.100,141.100,41.930,13.810,bogus
1408.000,431.300,130.900,34.240,811.500,260.600,66.380,17.480,233.400,63.100,19.190,6.396,448.500,141.600,42.080,13.820,bogus
1410.000,435.000,130.500,34.540,811.400,260.200,66.510,17.440,235.400,63.650,19.170,6.414,448.900,141.900,42.080,13.890,bogus
1426.000,442.700,132.000,34.500,822.500,264.400,66.900,17.350,231.200,62.660,18.940,6.339,443.500,140.400,41.810,13.810,hard
1429.000,439.100,132.100,34.400,822.700,262.800,67.190,17.450,233.700,62.490,18.970,6.354,445.400,140.300,41.800,13.740,hard
1425.000,440.500,131.900,34.090,826.800,264.300,66.850,17.320,231.800,62.420,18.930,6.328,443.100,139.600,41.540,13.650,hard
1419.000,438.200,131.600,34.080,827.100,263.000,66.610,17.530,231.700,62.640,18.800,6.307,442.900,139.400,41.370,13.590,hard
1418.000,437.200,130.400,33.980,827.200,263.800,66.760,17.390,232.500,62.310,18.840,6.311,442.400,139.300,41.490,13.610,hard
1418.000,436.300,131.200,34.030,824.100,263.100,66.680,17.480,232.300,62.440,18.890,6.314,442.000,139.400,41.370,13.610,hard
1419.000,437.600,131.700,34.000,824.400,263.500,66.720,17.390,231.600,62.380,18.860,6.302,442.100,139.600,41.450,13.620,hard
1422.000,438.100,130.200,34.180,825.000,263.500,66.920,17.440,232.400,62.650,18.870,6.302,442.800,139.800,41.530,13.710,hard
1423.000,438.800,130.900,34.310,819.900,263.300,66.850,17.360,232.700,62.750,18.860,6.305,443.100,140.300,41.650,13.740,hard
1426.000,438.300,131.500,34.470,824.000,263.200,67.020,17.570,233.300,62.060,18.860,6.306,443.500,140.100,41.760,13.760,hard
1429.000,443.000,132.100,34.500,821.500,263.300,66.860,17.470,233.500,62.350,18.850,6.313,444.400,140.300,41.890,13.840,hard
1433.000,441.200,133.300,34.520,829.600,267.000,66.870,17.510,232.400,62.450,18.890,6.306,444.300,140.300,41.810,13.750,hard
1425.000,439.300,131.000,34.140,817.100,264.400,66.890,17.360,233.800,62.320,18.830,6.291,442.200,139.600,41.570,13.690,hard
1422.000,436.600,131.900,34.130,819.000,263.000,67.010,17.400,233.300,62.140,18.830,6.292,441.900,139.600,41.490,13.610,hard
1418.000,437.000,131.200,33.950,821.500,262.200,66.570,17.370,231.600,61.990,18.790,6.263,441.500,139.400,41.500,13.670,hard
1421.000,435.700,130.500,34.080,823.100,263.000,66.860,17.470,232.600,62.200,18.850,6.268,442.200,139.500,41.490,13.660,hard
1422.000,435.200,132.000,34.220,828.200,263.400,66.850,17.480,233.600,62.430,18.880,6.266,442.400,139.500,41.540,13.690,hard
1424.000,441.200,132.300,34.310,819.900,263.500,67.000,17.500,233.000,62.580,18.800,6.281,442.500,139.800,41.590,13.760,hard
1428.000,439.500,132.100,34.480,828.200,264.900,67.170,17.420,231.800,62.160,18.800,6.286,442.800,139.900,41.740,13.810,hard
1427.000,440.100,132.400,34.590,831.500,262.900,66.930,17.380,231.600,62.060,18.870,6.302,442.900,140.400,41.820,13.860,hard
1434.000,441.600,132.000,34.600,829.900,265.600,66.770,17.490,232.600,62.560,18.840,6.310,445.100,140.500,41.920,13.890,hard
1435.000,438.200,132.400,34.550,826.000,265.600,67.380,17.430,231.000,62.250,18.820,6.291,443.400,140.200,41.700,13.730,hard
1427.000,444.100,130.800,34.340,828.700,263.500,66.600,17.560,233.300,62.170,18.840,6.274,442.500,139.500,41.520,13.710,hard
1424.000,441.100,131.100,34.250,825.100,264.700,66.350,17.500,231.900,62.160,18.780,6.278,441.300,139.400,41.500,13.630,hard
1424.000,436.700,131.300,34.200,824.100,263.800,67.470,17.420,231.500,62.050,18.790,6.272,441.500,139.300,41.510,13.680,hard
1425.000,441.300,131.300,34.410,828.000,263.800,67.400,17.430,232.100,61.930,18.760,6.260,443.000,139.600,41.420,13.690,hard
1427.000,444.700,132.100,34.130,826.300,263.800,66.440,17.400,232.200,62.310,18.760,6.264,442.300,139.700,41.570,13.680,hard
1428.000,440.400,131.900,34.270,831.100,264.000,67.190,17.440,231.700,62.410,18.810,6.280,442.900,139.700,41.600,13.770,hard
1433.000,440.500,131.500,34.550,823.300,265.600,67.210,17.510,231.700,62.030,18.800,6.280,442.400,140.200,41.750,13.830,hard
1437.000,442.700,133.000,34.600,829.200,265.400,67.060,17.410,231.800,62.400,18.790,6.276,443.600,140.400,41.870,13.860,hard
1438.000,445.600,132.200,34.960,823.700,265.400,67.070,17.600,234.400,62.200,18.810,6.296,444.000,140.500,41.830,13.810,hard
1435.000,442.900,132.300,34.270,827.500,264.900,67.230,17.420,232.400,62.390,18.780,6.257,442.900,139.600,41.540,13.700,hard
1428.000,440.500,131.600,34.280,829.800,266.100,66.880,17.470,231.800,62.030,18.770,6.254,440.500,139.400,41.410,13.640,hard
1428.000,441.300,132.100,34.140,826.100,263.500,67.130,17.420,233.000,61.960,18.750,6.259,439.900,139.200,41.460,13.660,hard
1428.000,439.300,131.200,34.250,829.400,263.600,66.980,17.570,231.200,62.360,18.760,6.264,440.700,139.200,41.420,13.660,hard
1429.000,440.000,131.700,34.120,835.200,262.900,66.870,17.380,232.300,62.230,18.740,6.270,441.200,139.300,41.450,13.680,hard
1433.000,439.400,131.600,34.400,830.700,264.200,66.920,17.480,233.200,62.240,18.760,6.264,441.500,139.600,41.550,13.740,hard
1432.000,440.300,131.400,34.230,825.100,264.300,66.960,17.520,231.700,62.220,18.810,6.283,441.200,139.300,41.650,13.760,hard
1437.000,442.500,132.200,34.500,828.800,267.000,66.930,17.540,234.500,62.180,18.810,6.289,442.400,139.700,41.770,13.790,hard
1439.000,446.700,133.500,34.660,824.800,266.300,67.340,17.570,235.600,62.530,18.830,6.284,443.300,139.900,41.650,13.790,hard
1438.000,438.400,132.800,34.410,833.600,264.900,67.480,17.400,232.000,62.310,18.830,6.274,441.200,139.200,41.430,13.650,hard
1429.000,444.600,132.500,34.340,830.500,264.600,66.970,17.440,230.900,62.070,18.760,6.261,439.700,138.700,41.330,13.570,hard
1426.000,439.400,131.400,34.310,836.900,263.400,66.820,17.410,231.500,62.050,18.750,6.259,439.800,138.800,41.190,13.600,hard
1427.000,438.800,132.100,34.140,821.400,265.100,66.420,17.490,230.500,61.870,18.790,6.254,439.200,138.500,41.240,13.590,hard
1428.000,438.800,131.400,34.140,828.600,262.900,67.050,17.410,231.300,61.830,18.770,6.255,439.400,138.600,41.260,13.590,hard
1429.000,439.700,132.900,34.250,823.500,263.900,66.680,17.470,231.400,61.840,18.770,6.259,439.600,138.600,41.330,13.620,hard
1433.000,436.400,132.100,34.310,833.400,263.900,67.250,17.490,231.300,62.270,18.750,6.259,440.500,138.900,41.440,13.660,hard
1434.000,441.500,131.900,34.630,833.400,263.900,67.110,17.500,233.000,62.020,18.790,6.289,441.700,139.100,41.330,13.670,hard
1440.000,445.800,132.000,34.590,830.800,263.800,67.320,17.440,231.600,61.920,18.810,6.296,442.300,139.500,41.600,13.730,hard
1436.000,440.300,132.400,34.400,826.200,266.500,66.880,17.430,232.800,62.420,18.770,6.277,439.700,138.500,41.270,13.560,hard
1429.000,439.600,131.400,34.060,828.800,264.100,67.190,17.420,232.900,62.100,18.760,6.247,438.900,138.300,41.060,13.510,hard
1424.000,438.900,130.500,34.030,827.100,262.700,67.060,17.500,232.700,62.230,18.770,6.239,438.600,138.100,40.940,13.510,hard
1424.000,440.800,130.900,34.000,816.200,266.700,66.810,17.400,231.200,62.220,18.770,6.243,438.000,138.000,40.890,13.490,hard
1426.000,441.000,131.000,34.130,823.200,265.100,67.150,17.590,231.100,62.200,18.780,6.253,438.300,138.100,40.980,13.540,hard
1428.000,437.600,132.000,34.040,825.500,263.300,67.030,17.440,233.000,62.120,18.780,6.258,438.200,138.300,41.180,13.560,hard
1430.000,440.100,131.400,34.210,825.400,263.300,67.390,17.580,234.900,61.930,18.760,6.282,438.200,138.500,41.090,13.590,hard
1432.000,440.900,132.600,34.370,840.700,264.300,67.430,17.420,233.200,61.740,18.800,6.294,439.900,138.800,41.170,13.620,hard
1434.000,443.400,132.900,34.430,824.900,266.000,67.790,17.560,231.500,62.340,18.840,6.282,440.800,139.100,41.330,13.630,hard
1433.000,441.400,131.500,34.250,827.400,265.000,67.120,17.470,231.300,62.060,18.800,6.287,439.100,138.500,41.120,13.500,hard
1425.000,436.900,131.000,34.000,826.400,264.200,67.070,17.520,233.700,61.660,18.750,6.281,437.300,137.900,40.790,13.410,hard
1422.000,439.100,130.200,33.920,820.500,263.800,67.300,17.490,229.800,62.210,18.800,6.252,437.500,137.800,40.740,13.420,hard
1423.000,440.000,129.700,33.920,827.300,266.100,67.280,17.440,232.600,61.990,18.760,6.263,437.500,137.600,40.830,13.440,hard
1421.000,435.400,130.600,33.760,817.500,264.400,67.360,17.450,232.200,62.440,18.780,6.284,436.900,137.800,40.790,13.430,hard
1422.000,436.200,130.900,33.770,827.100,264.700,67.030,17.520,231.400,62.320,18.760,6.280,438.000,137.900,40.940,13.460,hard
1425.000,438.500,130.900,34.030,820.600,265.300,66.930,17.500,231.400,62.310,18.830,6.304,438.800,138.200,40.970,13.500,hard
1428.000,438.800,131.700,34.170,824.700,263.800,67.110,17.370,231.300,62.140,18.840,6.312,438.400,138.400,41.080,13.560,hard
1430.000,442.300,131.700,34.060,824.200,263.600,67.160,17.580,233.300,62.460,18.870,6.305,439.700,138.700,41.100,13.500,hard
1428.000,441.000,130.800,33.810,828.500,263.700,66.900,17.530,234.400,62.230,18.860,6.293,438.500,137.800,40.800,13.430,hard
1424.000,435.600,130.300,33.730,830.200,262.900,67.310,17.470,231.900,62.070,18.840,6.282,437.100,137.600,40.720,13.370,hard
1419.000,436.500,130.100,33.640,825.600,263.400,66.330,17.450,231.000,62.280,18.830,6.285,437.100,137.300,40.640,13.360,hard
1417.000,434.800,130.700,33.620,831.400,263.800,67.050,17.490,229.800,62.040,18.840,6.290,437.000,137.400,40.710,13.340,hard
1419.000,438.000,130.300,33.980,822.600,263.200,66.680,17.470,231.300,62.170,18.830,6.293,437.700,137.400,40.850,13.340,hard
1422.000,435.100,131.100,33.860,823.300,261.700,66.900,17.420,232.400,61.990,18.850,6.297,437.400,137.800,40.730,13.430,hard
1423.000,437.300,130.200,34.050,819.700,264.300,67.170,17.510,232.400,62.260,18.870,6.319,438.200,137.800,40.880,13.470,hard
1425.000,437.400,131.200,34.120,829.600,262.900,66.730,17.560,233.900,62.400,18.870,6.315,438.300,138.400,41.020,13.500,hard
1424.000,435.900,131.600,33.920,821.800,264.800,67.240,17.540,233.800,62.420,18.940,6.325,438.300,138.000,40.830,13.380,hard
1417.000,436.400,129.900,33.720,828.400,264.200,67.460,17.450,232.300,62.500,18.870,6.307,436.700,137.200,40.670,13.330,hard
1413.000,436.200,130.500,33.690,821.300,263.200,67.200,17.400,231.600,62.320,18.860,6.301,437.000,137.100,40.560,13.300,hard
1413.000,436.800,129.400,33.410,822.200,263.200,66.800,17.290,231.700,62.280,18.840,6.300,437.100,137.300,40.600,13.290,hard
1414.000,431.400,129.700,33.560,821.200,264.200,67.520,17.500,232.000,62.270,18.870,6.298,435.800,137.400,40.560,13.330,hard
1415.000,435.600,130.600,33.700,824.200,262.700,67.260,17.340,234.300,62.110,18.900,6.318,437.600,137.500,40.650,13.360,hard
1419.000,437.100,129.400,33.690,822.500,264.800,66.800,17.520,232.200,62.780,18.910,6.325,438.000,137.500,40.820,13.410,hard
1421.000,440.600,131.100,33.860,816.100,264.800,66.920,17.470,230.400,62.580,18.940,6.344,437.800,137.800,40.850,13.420,hard
1423.000,440.700,129.700,33.840,832.500,263.400,67.180,17.550,234.200,62.520,18.940,6.345,438.300,137.700,40.950,13.450,hard
1422.000,439.300,130.400,33.760,821.500,264.900,67.020,17.460,232.500,62.600,18.950,6.331,438.700,137.400,40.610,13.330,hard
1416.000,434.800,130.100,33.570,830.600,263.300,67.320,17.500,234.300,62.450,18.910,6.325,436.700,137.000,40.560,13.270,hard
1412.000,434.900,128.900,33.390,824.300,262.900,67.120,17.490,232.000,62.210,18.980,6.316,436.200,137.200,40.490,13.260,hard
1410.000,428.700,130.100,33.410,823.200,263.800,66.670,17.480,231.500,62.680,18.890,6.325,435.900,137.300,40.580,13.270,hard
1413.000,434.100,128.600,33.260,816.200,264.200,66.630,17.490,232.100,62.280,18.910,6.319,438.000,137.200,40.580,13.270,hard
1413.000,436.200,130.300,33.230,814.700,263.600,66.720,17.530,232.600,62.240,18.950,6.349,436.200,137.500,40.560,13.300,hard
1416.000,434.700,129.700,33.660,820.500,262.800,67.400,17.560,233.200,62.320,18.950,6.368,438.100,137.900,40.780,13.370,hard
1419.000,439.300,128.900,33.630,827.000,262.400,66.470,17.470,232.400,62.340,18.990,6.374,438.600,137.700,40.870,13.400,hard
1422.000,437.800,131.100,33.770,825.900,261.600,66.970,17.450,231.500,62.520,19.000,6.382,438.700,138.100,40.950,13.450,hard
1425.000,438.500,130.200,33.770,825.700,263.100,67.270,17.670,234.500,62.620,19.030,6.385,438.800,137.800,40.750,13.340,hard
1416.000,434.900,129.500,33.440,826.900,263.600,66.820,17.460,232.400,62.810,18.980,6.356,437.200,137.000,40.590,13.270,hard
1412.000,430.400,129.900,33.240,821.600,262.700,66.850,17.480,231.100,62.490,19.000,6.362,436.700,136.900,40.430,13.210,hard
1411.000,435.700,130.000,33.320,823.700,264.100,66.570,17.400,233.100,62.620,18.980,6.354,435.600,137.100,40.530,13.220,hard
1412.000,434.900,129.500,33.400,831.200,263.400,67.110,17.590,232.400,62.730,19.000,6.362,437.300,137.100,40.520,13.260,hard
1413.000,435.300,129.900,33.400,818.900,263.700,67.060,17.450,235.700,62.790,19.010,6.377,437.400,137.300,40.580,13.300,hard
1414.000,433.000,129.600,33.420,825.800,264.000,67.180,17.590,235.300,62.660,19.050,6.375,438.500,137.800,40.680,13.340,hard
1418.000,435.600,130.600,33.450,820.700,261.900,66.980,17.580,233.800,62.670,19.100,6.384,438.900,137.900,40.740,13.380,hard
1420.000,439.700,130.600,33.790,820.000,263.800,66.590,17.520,235.500,62.690,19.050,6.400,439.100,138.100,40.810,13.460,hard
1424.000,435.300,130.700,33.800,826.800,263.300,67.130,17.660,233.100,63.030,19.080,6.400,439.600,138.200,40.990,13.470,hard
1426.000,436.700,130.200,33.610,829.000,264.100,67.640,17.540,235.000,62.310,19.070,6.398,438.500,137.600,40.780,13.320,hard
1417.000,433.200,129.600,33.620,819.100,260.800,67.050,17.580,232.300,62.740,19.090,6.386,438.100,137.200,40.490,13.270,hard
1413.000,436.300,129.300,33.350,826.500,263.000,67.090,17.480,234.500,62.990,19.010,6.382,437.800,136.900,40.520,13.280,hard
1412.000,435.600,129.100,33.510,828.500,263.700,67.110,17.540,233.200,62.700,19.040,6.384,436.900,137.200,40.520,13.250,hard
1414.000,431.600,129.600,33.390,817.600,262.300,67.130,17.620,234.200,62.800,19.060,6.389,437.200,137.400,40.430,13.270,hard
1417.000,434.900,130.300,33.410,828.100,264.800,67.090,17.560,235.100,62.890,19.050,6.397,437.600,137.400,40.630,13.320,hard
1418.000,440.000,130.200,33.640,824.300,262.900,66.920,17.610,234.800,62.760,19.070,6.425,438.300,137.600,40.700,13.380,hard
1422.000,436.500,130.500,33.680,820.900,264.400,66.500,17.550,232.900,62.880,19.130,6.409,439.000,138.200,40.820,13.430,hard
1424.000,435.500,131.600,33.860,824.800,264.300,66.780,17.520,233.100,63.000,19.160,6.427,440.700,138.000,41.020,13.450,hard
1426.000,437.800,131.300,34.130,829.600,266.100,67.590,17.590,233.900,63.180,19.140,6.421,440.000,138.300,40.830,13.390,hard
1423.000,435.200,129.800,33.530,829.900,262.600,66.760,17.580,235.400,62.940,19.040,6.426,439.100,137.600,40.690,13.340,hard
1418.000,433.200,129.200,33.400,826.300,263.700,67.320,17.580,234.000,62.780,19.110,6.413,438.500,137.400,40.590,13.290,hard
1418.000,438.200,129.900,33.440,825.400,262.200,67.070,17.630,235.400,63.110,19.090,6.414,437.400,137.600,40.600,13.300,hard
1419.000,436.400,130.000,33.420,829.800,264.200,67.380,17.620,234.100,63.080,19.100,6.418,438.200,137.800,40.650,13.320,hard
1419.000,437.800,130.700,33.530,824.300,263.600,67.140,17.540,236.000,63.080,19.180,6.419,438.400,137.700,40.650,13.350,hard
1420.000,434.200,130.100,33.440,823.800,263.500,66.680,17.650,235.800,63.060,19.110,6.432,439.400,138.000,40.720,13.400,hard
1422.000,441.700,130.600,33.760,831.100,264.400,67.000,17.620,233.200,63.230,19.110,6.443,440.300,138.200,41.030,13.460,hard
1428.000,439.100,131.000,33.900,818.400,264.600,67.180,17.610,234.800,63.160,19.200,6.451,440.000,138.600,41.000,13.530,hard
1431.000,436.600,131.700,34.160,824.000,265.400,67.620,17.770,236.200,63.250,19.200,6.451,441.200,138.700,40.990,13.470,hard
1426.000,434.900,130.400,33.680,829.900,264.100,67.370,17.580,234.300,62.880,19.140,6.422,440.400,137.900,40.680,13.360,hard
1421.000,435.900,131.000,33.480,824.500,264.400,67.550,17.690,236.700,63.070,19.100,6.411,438.200,137.600,40.650,13.330,hard
1420.000,435.700,129.200,33.300,823.700,263.500,66.930,17.580,234.300,62.850,19.150,6.431,438.300,137.600,40.630,13.320,hard
1421.000,438.900,130.100,33.560,828.700,264.500,67.290,17.640,235.000,63.170,19.140,6.432,438.600,137.700,40.710,13.360,hard
1421.000,432.000,129.700,33.530,825.000,264.300,67.550,17.690,234.900,63.060,19.230,6.431,438.900,137.600,40.800,13.370,hard
1426.000,436.200,130.300,33.590,833.800,264.800,67.360,17.700,233.200,63.250,19.120,6.443,439.300,138.200,40.810,13.380,hard
1427.000,440.100,130.900,33.900,821.700,265.000,67.830,17.720,234.800,63.020,19.240,6.447,440.400,138.300,40.990,13.480,hard
1432.000,441.700,130.900,33.740,827.300,266.400,67.280,17.630,236.200,63.410,19.270,6.461,441.600,138.800,41.150,13.510,hard
1433.000,442.300,132.400,34.050,832.400,266.200,67.570,17.760,236.000,63.510,19.250,6.449,441.500,138.900,41.120,13.470,hard
1432.000,437.900,130.900,33.610,828.800,266.900,67.490,17.710,234.000,63.160,19.230,6.451,439.300,138.100,40.860,13.390,hard
1426.000,434.000,129.900,33.380,828.100,265.000,67.250,17.760,234.800,62.980,19.230,6.430,438.400,137.700,40.720,13.320,hard
1424.000,435.000,129.800,33.260,824.400,263.800,66.890,17.800,235.800,62.750,19.200,6.438,438.400,137.800,40.670,13.340,hard
1424.000,435.900,130.100,33.580,823.200,265.700,67.690,17.640,236.300,63.170,19.160,6.460,438.600,137.500,40.700,13.350,hard
1424.000,436.600,130.100,33.330,823.400,265.100,67.170,17.620,233.100,63.300,19.170,6.440,438.400,137.800,40.720,13.350,hard
1426.000,438.700,130.200,33.640,824.300,264.200,67.910,17.680,236.100,62.910,19.240,6.472,439.700,138.200,40.830,13.440,hard
1428.000,438.400,130.600,33.780,825.300,265.100,68.000,17.680,237.300,63.230,19.220,6.471,440.600,138.500,40.900,13.460,hard
1432.000,439.800,131.000,33.510,827.700,265.700,67.280,17.750,234.800,63.090,19.240,6.467,440.400,138.300,40.940,13.480,hard
1436.000,441.400,130.500,33.850,833.500,265.200,67.510,17.670,235.600,63.220,19.260,6.479,440.700,138.200,40.910,13.420,hard
1428.000,438.300,129.900,33.490,824.700,265.700,67.760,17.720,234.800,63.240,19.250,6.452,438.300,137.600,40.660,13.380,hard
1422.000,435.300,130.100,33.500,820.800,264.900,67.290,17.490,232.400,63.600,19.200,6.443,438.900,137.400,40.580,13.310,hard
1422.000,436.700,129.100,33.380,826.300,264.000,67.360,17.690,235.500,62.730,19.180,6.427,437.300,137.400,40.550,13.320,hard
1421.000,434.300,129.000,33.410,828.800,265.800,67.630,17.750,233.500,63.080,19.170,6.450,437.400,137.400,40.510,13.310,hard
1422.000,437.500,130.000,33.510,831.500,264.300,66.840,17.660,235.300,62.960,19.160,6.462,438.600,137.700,40.580,13.370,hard
1425.000,437.800,130.500,33.550,824.600,264.800,67.250,17.660,236.500,63.160,19.260,6.467,439.400,137.800,40.790,13.360,hard
1427.000,439.600,129.900,33.550,818.800,264.100,67.510,17.620,233.900,63.050,19.260,6.468,439.000,138.000,40.850,13.420,hard
1432.000,438.400,130.300,33.620,828.200,264.900,67.630,17.800,234.700,63.270,19.250,6.467,439.800,138.200,40.950,13.440,hard
1432.000,437.800,131.000,33.740,839.900,264.500,67.540,17.660,236.100,63.180,19.210,6.468,439.000,137.900,40.650,13.360,hard
1424.000,441.200,128.800,33.510,826.600,265.200,67.040,17.640,234.000,63.190,19.140,6.461,437.600,137.300,40.480,13.270,hard
1422.000,434.600,129.300,33.360,825.500,265.000,67.150,17.700,236.200,62.890,19.190,6.440,438.400,136.900,40.390,13.200,hard
1419.000,435.400,129.200,33.080,823.900,263.900,67.260,17.660,234.000,63.370,19.120,6.457,437.400,136.800,40.370,13.240,hard
1418.000,434.300,129.400,33.420,824.500,264.000,67.480,17.620,233.800,63.200,19.170,6.449,436.900,137.100,40.490,13.250,hard
1419.000,433.400,128.400,33.260,830.900,264.400,66.640,17.670,233.600,63.010,19.200,6.442,437.500,136.800,40.470,13.250,hard
1422.000,436.300,129.100,33.480,825.800,265.100,67.360,17.670,234.400,63.310,19.220,6.462,438.700,137.400,40.590,13.270,hard
1426.000,435.000,130.000,33.690,832.500,264.200,67.000,17.670,233.200,63.120,19.170,6.465,438.400,137.700,40.690,13.330,hard
1426.000,436.200,129.300,33.560,825.800,264.100,67.400,17.720,234.900,63.420,19.270,6.496,439.000,137.700,40.780,13.360,hard
1429.000,439.400,129.600,33.390,823.000,265.500,67.450,17.550,235.900,63.450,19.270,6.459,437.300,137.000,40.500,13.230,hard
1421.000,437.100,129.200,33.290,827.100,264.500,67.180,17.670,232.400,63.490,19.200,6.449,436.400,136.700,40.290,13.160,hard
1416.000,432.100,128.600,33.180,831.200,262.900,67.500,17.710,235.900,63.130,19.130,6.438,434.900,136.400,40.160,13.150,hard
1414.000,434.800,128.600,33.170,826.300,264.700,67.370,17.650,233.900,62.980,19.120,6.449,436.400,136.500,40.260,13.150,hard
1416.000,433.600,128.100,33.160,826.600,264.200,67.120,17.710,233.700,63.000,19.120,6.447,435.900,136.600,40.220,13.180,hard
1416.000,435.800,129.900,33.200,821.100,264.600,67.460,17.730,235.100,62.560,19.200,6.441,435.200,137.100,40.350,13.190,hard
1418.000,435.200,129.600,33.260,824.800,264.500,67.390,17.680,233.900,63.230,19.230,6.452,437.000,136.900,40.400,13.260,hard
1420.000,436.800,130.200,33.160,833.500,263.600,67.200,17.760,233.900,63.060,19.240,6.470,437.400,137.100,40.450,13.240,hard
1424.000,436.900,129.700,33.590,824.900,264.400,67.640,17.710,232.000,63.410,19.280,6.480,438.600,137.400,40.570,13.280,hard
1422.000,433.900,129.400,33.450,822.000,264.900,67.230,17.790,235.300,62.980,19.180,6.455,437.300,136.500,40.340,13.130,hard
1415.000,433.100,129.100,33.270,820.400,264.000,67.180,17.590,234.600,63.100,19.200,6.448,435.000,136.200,40.120,13.090,hard
1411.000,433.700,128.400,33.010,825.000,264.000,66.950,17.630,233.800,63.000,19.130,6.435,434.800,136.200,40.080,13.080,hard
1412.000,431.500,127.800,32.850,817.300,262.300,66.730,17.580,234.100,63.180,19.140,6.444,434.000,136.100,40.060,13.080,hard
1411.000,430.100,129.100,33.020,822.100,263.100,67.000,17.600,234.100,62.790,19.140,6.452,434.400,136.100,40.130,13.080,hard
1415.000,432.600,128.200,33.200,827.000,263.900,67.330,17.650,235.800,63.180,19.200,6.453,435.000,136.300,40.170,13.170,hard
1416.000,432.700,128.300,33.150,822.800,262.800,67.310,17.500,233.400,63.160,19.190,6.460,435.000,136.700,40.230,13.190,hard
1417.000,437.000,128.000,33.220,828.700,264.100,67.350,17.580,235.300,63.290,19.240,6.479,435.200,136.800,40.330,13.220,hard
1419.000,436.300,129.300,33.180,830.800,264.900,67.280,17.670,233.800,63.000,19.230,6.467,435.600,136.400,40.250,13.150,hard
1413.000,435.300,128.000,32.980,832.000,263.700,67.360,17.600,234.800,63.180,19.180,6.443,433.700,136.300,40.120,13.050,hard
1410.000,429.300,128.200,32.860,818.900,264.200,67.210,17.480,233.900,62.880,19.160,6.446,433.800,135.800,39.870,13.020,hard
1407.000,432.100,127.700,32.830,818.200,262.100,66.370,17.640,231.900,62.950,19.110,6.443,433.900,136.100,39.880,13.060,hard
1406.000,432.900,128.700,32.870,821.600,264.400,66.690,17.500,234.200,62.880,19.140,6.451,433.500,135.800,39.990,13.040,hard
1408.000,430.500,128.000,32.910,818.400,263.200,66.980,17.560,234.700,62.760,19.180,6.460,434.300,136.300,40.010,13.090,hard
1409.000,433.800,129.400,32.970,818.700,262.100,67.030,17.550,233.000,63.130,19.200,6.459,435.500,136.200,40.050,13.090,hard
1413.000,435.900,128.800,33.140,817.400,263.700,67.130,17.580,235.200,62.880,19.150,6.473,435.900,136.500,40.110,13.160,hard
1414.000,432.100,129.100,33.160,815.800,263.800,67.700,17.670,234.400,63.170,19.260,6.478,436.100,136.600,40.200,13.160,hard
1413.000,437.200,129.400,32.880,826.800,262.000,66.990,17.650,234.200,63.310,19.180,6.456,434.000,135.800,39.970,13.060,hard
1407.000,430.600,128.400,32.900,820.100,263.300,67.130,17.580,234.100,62.800,19.200,6.471,434.000,135.600,39.840,12.990,hard
1405.000,432.100,126.700,32.630,831.800,261.800,66.830,17.480,233.900,62.790,19.150,6.447,432.300,135.800,39.670,12.950,hard
1406.000,428.900,127.400,32.730,822.100,262.400,67.110,17.640,234.000,62.950,19.170,6.453,433.200,135.500,39.770,13.010,hard
1405.000,429.500,127.000,32.730,815.900,261.800,66.910,17.500,233.800,63.140,19.220,6.450,433.400,135.700,39.920,13.000,hard
1406.000,430.800,128.100,32.910,822.200,261.500,66.900,17.490,233.000,63.230,19.190,6.457,434.100,135.600,40.000,13.050,hard
1409.000,432.300,128.700,32.860,818.300,262.200,66.590,17.710,234.100,63.470,19.230,6.482,433.300,136.100,40.040,13.060,hard
1413.000,434.600,128.300,32.830,819.000,263.200,67.280,17.720,233.700,63.170,19.230,6.489,434.100,136.300,40.190,13.090,hard
1412.000,429.600,129.000,33.040,818.300,262.400,67.250,17.590,232.200,63.100,19.250,6.481,434.700,136.500,40.190,13.110,hard
1414.000,434.300,128.400,32.850,825.800,263.600,67.250,17.500,233.900,63.080,19.210,6.471,433.300,135.700,39.960,13.000,hard
1409.000,430.000,128.100,32.760,816.400,262.300,66.580,17.480,236.400,62.910,19.190,6.449,432.700,135.500,39.860,12.940,hard
1406.000,430.200,127.500,32.610,821.800,264.400,67.130,17.520,233.800,63.090,19.170,6.466,432.200,135.100,39.830,12.970,hard
1403.000,432.000,127.800,32.730,815.000,263.500,66.930,17.580,234.700,63.130,19.190,6.452,432.700,135.200,39.800,12.930,hard
1407.000,429.400,126.500,32.860,812.800,262.600,66.570,17.410,235.400,62.890,19.230,6.467,432.200,135.400,39.800,13.000,hard
1406.000,432.200,128.800,32.830,820.300,263.400,66.760,17.560,233.300,63.250,19.230,6.493,432.700,135.700,39.850,13.040,hard
1409.000,431.500,127.800,32.660,821.700,261.000,67.020,17.500,233.100,63.090,19.190,6.477,433.500,135.800,39.890,13.110,hard
1412.000,430.700,128.100,33.090,807.500,263.300,66.620,17.460,233.900,63.190,19.240,6.480,434.700,136.200,40.070,13.080,hard
1414.000,433.500,129.000,32.970,820.100,263.200,67.040,17.470,235.300,62.970,19.220,6.477,435.400,136.400,40.170,13.140,hard
1415.000,434.600,128.900,32.980,821.800,263.400,67.330,17.460,235.300,63.230,19.280,6.481,433.500,135.800,40.060,13.040,hard
1408.000,434.500,127.800,32.880,822.500,262.300,66.450,17.550,234.100,63.130,19.190,6.461,433.000,135.600,39.840,12.990,hard
1405.000,434.400,127.700,32.610,820.000,261.800,66.560,17.500,233.700,63.080,19.220,6.458,432.700,135.300,39.810,12.950,hard
1404.000,431.200,128.000,32.700,820.700,260.900,66.400,17.510,234.800,62.940,19.290,6.476,432.400,135.600,39.830,12.990,hard
1405.000,432.700,127.800,32.710,819.200,263.300,66.730,17.500,235.400,62.970,19.170,6.487,432.300,135.400,39.810,12.990,hard
1405.000,429.600,128.800,32.750,819.600,261.800,66.420,17.390,234.800,62.950,19.250,6.468,433.600,135.700,40.030,13.050,hard
1408.000,433.900,128.500,33.020,823.700,262.100,66.750,17.500,233.000,62.900,19.200,6.485,434.200,136.000,40.020,13.110,hard
1412.000,434.900,128.600,33.010,819.700,262.600,66.730,17.550,233.400,62.990,19.240,6.498,435.100,136.300,40.070,13.150,hard
1415.000,434.700,129.600,33.110,818.900,262.100,67.140,17.590,235.200,63.160,19.300,6.503,435.800,136.200,40.190,13.140,hard
1418.000,435.400,129.800,33.000,830.600,262.800,66.810,17.530,233.700,63.030,19.260,6.490,435.100,136.000,39.960,13.040,hard
1410.000,434.800,128.900,32.790,816.700,262.500,66.750,17.480,234.300,63.030,19.220,6.480,433.900,135.600,39.850,13.010,hard
1408.000,431.100,128.500,32.710,821.200,261.900,66.820,17.360,235.000,63.080,19.160,6.463,433.500,135.300,39.800,13.030,hard
1408.000,433.000,127.600,32.660,814.300,263.700,66.690,17.400,234.800,63.000,19.240,6.474,433.800,135.600,39.880,13.030,hard
1409.000,434.400,128.900,32.960,818.100,262.500,67.250,17.440,233.900,63.290,19.140,6.481,432.200,135.600,39.880,13.040,hard
1414.000,431.100,129.100,33.000,816.700,262.900,66.740,17.500,235.200,63.260,19.200,6.500,433.500,135.700,39.990,13.090,hard
1415.000,431.400,129.100,33.020,819.100,263.900,67.260,17.470,235.700,63.440,19.230,6.489,434.300,136.300,40.130,13.110,hard
1418.000,436.300,129.400,33.280,817.800,263.400,67.010,17.500,236.000,63.030,19.250,6.499,435.200,136.400,40.150,13.160,hard
1421.000,435.100,129.600,33.180,822.500,264.700,66.930,17.580,233.400,63.320,19.280,6.510,435.500,136.700,40.290,13.180,hard
1422.000,436.500,130.400,33.120,821.100,262.600,66.940,17.540,233.400,63.090,19.230,6.487,433.500,136.200,40.010,13.070,hard
1416.000,433.200,128.100,33.030,826.000,262.600,66.970,17.580,234.800,63.070,19.220,6.470,434.400,135.700,39.880,13.050,hard
1413.000,433.900,128.800,33.040,821.000,261.900,66.940,17.420,234.400,63.270,19.180,6.474,432.900,135.500,39.870,13.020,hard
1414.000,431.400,128.600,32.910,827.600,262.900,66.890,17.520,234.200,63.290,19.230,6.479,433.200,135.800,39.930,13.040,hard
1416.000,431.500,127.800,32.750,820.100,262.300,67.050,17.490,234.500,62.920,19.260,6.483,433.100,135.800,39.940,13.080,hard
1417.000,433.200,129.400,33.150,822.400,262.800,66.910,17.620,233.800,63.380,19.200,6.500,434.300,136.100,40.010,13.130,hard
1423.000,432.600,129.600,33.000,819.100,264.000,67.340,17.530,233.700,62.870,19.280,6.500,434.700,136.400,40.130,13.170,hard
1424.000,440.900,129.600,33.460,819.500,263.200,67.200,17.520,233.500,63.110,19.310,6.504,434.900,136.600,40.350,13.210,hard
1427.000,437.200,130.100,33.580,826.500,266.200,66.890,17.480,234.800,63.470,19.280,6.492,436.100,137.000,40.350,13.260,hard
1430.000,440.500,130.200,33.270,824.000,264.100,67.040,17.590,231.500,63.380,19.280,6.492,434.700,136.600,40.210,13.120,hard
1422.000,435.000,128.600,32.980,822.000,263.900,66.730,17.490,234.600,63.440,19.230,6.485,434.000,135.700,39.990,13.080,hard
1419.000,435.000,129.600,33.060,824.900,265.600,67.310,17.440,233.700,62.880,19.200,6.489,433.900,135.700,39.910,13.100,hard
1418.000,435.500,130.000,33.130,820.400,262.900,66.970,17.580,234.900,63.350,19.200,6.490,433.500,135.600,39.990,13.060,hard
1421.000,440.600,128.700,32.980,830.400,263.400,66.860,17.590,233.600,63.000,19.240,6.485,433.500,135.900,40.010,13.140,hard
1422.000,436.700,129.500,33.250,828.000,265.800,67.050,17.450,233.900,62.880,19.230,6.493,434.800,136.200,40.130,13.150,hard
1425.000,436.300,129.900,33.110,818.700,264.300,66.960,17.490,236.300,63.440,19.220,6.493,435.200,136.300,40.200,13.200,hard
1428.000,435.500,129.900,33.320,820.600,264.300,66.860,17.490,234.300,63.220,19.280,6.496,435.500,136.700,40.350,13.210,hard
1429.000,440.100,129.200,33.510,820.300,263.600,66.990,17.520,234.000,63.250,19.240,6.516,435.800,137.000,40.420,13.280,hard
1433.000,442.800,130.000,33.620,828.900,264.900,67.890,17.710,236.000,63.150,19.310,6.515,436.900,137.300,40.580,13.270,hard
1434.000,437.600,130.300,33.390,823.500,265.000,67.140,17.570,234.800,63.080,19.310,6.506,436.100,136.700,40.320,13.170,hard
1425.000,435.900,129.300,33.370,825.800,263.200,67.430,17.470,233.200,63.190,19.260,6.478,434.100,136.400,40.010,13.130,hard
1423.000,434.400,129.800,33.330,827.600,265.900,67.430,17.440,234.400,62.770,19.230,6.477,434.800,136.300,40.190,13.130,hard
1423.000,440.000,129.600,33.310,825.000,265.300,66.830,17.480,234.300,63.310,19.240,6.489,434.200,136.200,40.210,13.160,hard
1425.000,440.100,129.400,33.190,828.900,264.700,66.800,17.530,232.900,63.040,19.220,6.492,435.200,136.100,40.250,13.160,hard
1426.000,439.100,129.800,33.370,824.500,264.100,67.180,17.550,234.200,63.380,19.260,6.488,435.000,136.500,40.350,13.170,hard
1429.000,438.000,130.300,33.630,835.700,265.600,66.830,17.510,233.600,63.190,19.240,6.494,436.200,136.900,40.440,13.250,hard
1431.000,440.700,130.500,33.790,823.500,263.900,67.240,17.660,234.000,63.290,19.290,6.508,436.300,136.900,40.450,13.290,hard
1433.000,438.600,130.800,33.730,827.400,264.900,66.930,17.600,233.800,63.070,19.250,6.518,436.300,137.200,40.470,13.310,hard
1434.000,437.900,130.400,33.370,835.300,264.300,67.490,17.630,235.800,63.400,19.270,6.488,435.500,136.600,40.240,13.210,hard
1428.000,437.600,130.100,33.550,821.900,264.200,66.930,17.440,234.800,63.060,19.220,6.485,434.200,136.200,40.160,13.140,hard
1425.000,438.000,130.000,33.130,825.400,264.100,67.430,17.460,234.200,62.860,19.230,6.459,433.800,136.200,40.120,13.180,hard
1425.000,436.800,130.400,33.480,826.100,265.600,66.430,17.470,234.600,62.910,19.200,6.472,435.000,136.500,40.110,13.130,hard
1428.000,433.100,129.600,33.350,817.500,265.300,67.160,17.560,234.300,62.960,19.210,6.498,434.600,136.400,40.250,13.170,hard
1427.000,441.200,129.100,33.570,818.900,264.600,67.450,17.560,233.400,63.080,19.250,6.481,435.300,136.500,40.340,13.190,hard
1430.000,437.700,131.200,33.440,829.100,265.700,67.400,17.640,232.900,63.400,19.270,6.496,434.700,136.700,40.380,13.230,hard
