A-DC1,A-DC2,A-DC3,A-DC4,A-DC5,A-DC6,A-DC7,A-DC8,B-DC1,B-DC2,B-DC3,B-DC4,B-DC5,B-DC6,B-DC7,B-DC8,condition
1545.000,302.000,68.940,17.110,889.100,173.700,39.310,8.689,195.300,44.650,12.510,3.973,353.000,75.840,22.500,8.228,baseline
1553.000,302.800,68.730,17.260,893.100,172.900,39.240,8.706,197.200,44.920,12.610,3.970,355.300,76.110,22.670,8.297,baseline
1561.000,307.300,69.020,17.250,886.600,173.100,38.980,8.478,196.000,44.460,12.560,3.983,355.600,75.440,22.270,8.071,baseline
1530.000,296.100,66.720,16.730,883.500,171.900,38.670,8.552,194.900,44.320,12.410,3.924,347.600,74.140,21.870,7.989,baseline
1526.000,298.200,67.150,16.680,881.800,172.800,38.970,8.468,196.000,44.040,12.290,3.893,346.600,74.140,21.890,7.965,baseline
1528.000,295.800,66.420,16.690,881.100,172.900,39.070,8.640,194.500,44.110,12.410,3.921,349.200,74.140,21.990,7.998,baseline
1535.000,296.700,67.300,17.030,885.400,173.100,39.140,8.550,194.400,44.150,12.430,3.932,349.600,74.510,21.860,8.047,baseline
1538.000,298.900,67.450,16.910,883.500,172.500,39.260,8.627,196.100,44.270,12.440,3.924,350.900,75.010,22.150,8.105,baseline
1546.000,302.100,67.720,17.090,891.300,175.100,39.300,8.620,194.300,44.420,12.500,3.953,353.300,75.430,22.400,8.205,baseline
1552.000,302.000,68.360,17.210,888.100,174.000,39.310,8.689,195.000,45.030,12.500,3.964,354.800,76.050,22.700,8.283,baseline
1560.000,304.700,69.030,17.270,890.900,173.500,39.540,8.556,193.200,44.800,12.610,3.970,355.800,76.320,22.470,8.175,baseline
1536.000,296.500,67.190,16.770,881.700,171.300,39.070,8.571,192.500,44.090,12.360,3.912,347.800,74.190,21.970,8.033,baseline
1529.000,298.600,66.570,16.810,882.500,172.900,38.900,8.529,192.900,44.150,12.350,3.898,348.600,74.290,21.890,8.002,baseline
1526.000,296.600,67.410,16.790,880.900,172.400,39.170,8.554,193.100,43.920,12.380,3.905,350.100,74.590,22.030,8.054,baseline
1533.000,298.500,67.250,16.830,881.400,172.200,38.950,8.523,192.900,44.090,12.460,3.914,350.600,74.910,22.150,8.107,baseline
1537.000,299.800,66.840,16.950,880.200,173.100,39.270,8.553,193.600,44.400,12.450,3.917,352.700,75.250,22.330,8.175,baseline
1544.000,301.600,67.410,17.130,887.000,173.300,39.380,8.611,194.500,44.890,12.450,3.944,353.300,75.930,22.670,8.269,baseline
1553.000,301.300,68.070,17.280,893.700,175.100,39.490,8.663,195.200,44.710,12.500,3.971,356.500,76.990,22.860,8.358,baseline
1558.000,307.200,69.000,17.480,891.300,175.100,39.820,8.735,194.200,44.780,12.540,3.974,358.800,77.430,23.030,8.367,baseline
1552.000,299.900,67.590,16.800,888.000,172.600,38.870,8.542,196.600,44.610,12.480,3.944,351.200,75.210,22.200,8.102,baseline
1529.000,294.300,67.530,16.780,889.400,172.000,38.940,8.494,193.600,44.050,12.380,3.897,350.400,74.590,22.120,8.085,baseline
1528.000,298.700,66.980,16.830,893.000,172.300,39.060,8.553,193.500,43.840,12.320,3.907,349.900,75.090,22.170,8.125,baseline
1532.000,295.500,67.680,16.840,887.200,171.600,38.990,8.473,193.100,44.560,12.390,3.907,352.700,75.380,22.300,8.176,baseline
1536.000,298.700,67.740,16.830,887.800,173.300,38.880,8.496,193.400,44.230,12.420,3.919,353.900,75.790,22.480,8.215,baseline
1540.000,300.000,67.960,17.080,888.300,173.000,39.440,8.610,193.300,44.510,12.430,3.923,356.100,76.170,22.700,8.326,baseline
1547.000,303.000,68.330,17.330,892.400,172.900,39.290,8.660,194.400,44.430,12.530,3.970,358.000,77.280,22.860,8.426,baseline
1556.000,303.900,68.920,17.380,892.700,174.400,39.260,8.618,197.000,44.710,12.560,3.967,360.100,77.740,23.240,8.498,baseline
1560.000,304.500,69.650,17.130,887.500,173.000,38.920,8.505,195.100,44.840,12.610,3.959,357.500,75.890,22.450,8.214,baseline
1530.000,297.700,66.600,16.630,878.000,171.200,38.930,8.522,194.200,44.400,12.420,3.924,353.000,75.180,22.360,8.144,baseline
1529.000,295.300,67.130,16.840,885.300,172.000,38.550,8.506,195.800,44.080,12.390,3.919,353.200,75.550,22.360,8.185,baseline
1534.000,298.400,67.630,16.920,881.000,171.700,39.020,8.548,195.600,44.530,12.490,3.938,354.900,75.630,22.600,8.260,baseline
1537.000,301.300,68.180,16.890,882.000,173.000,38.780,8.538,194.200,44.390,12.500,3.937,355.600,76.270,22.670,8.322,baseline
1540.000,300.200,68.140,17.070,885.400,170.900,38.880,8.619,196.600,44.470,12.510,3.937,357.300,76.800,22.860,8.389,baseline
1546.000,301.200,68.380,17.210,888.400,173.700,38.990,8.549,194.800,44.740,12.560,3.966,359.000,77.040,23.110,8.457,baseline
1554.000,303.200,68.940,17.270,892.600,174.900,39.140,8.618,195.900,44.770,12.560,3.979,361.200,78.140,23.210,8.526,baseline
1560.000,308.100,68.450,17.280,888.300,171.200,38.770,8.480,195.500,44.980,12.630,3.958,358.400,76.630,22.680,8.278,baseline
1526.000,294.700,66.730,16.730,872.600,171.100,38.500,8.508,196.700,44.340,12.380,3.910,353.400,75.600,22.430,8.190,baseline
1525.000,297.400,67.610,16.670,878.000,171.100,38.480,8.425,192.900,43.970,12.420,3.900,354.300,75.570,22.440,8.202,baseline
1525.000,297.900,67.340,17.070,872.000,171.900,39.010,8.555,194.500,44.620,12.430,3.935,355.500,75.900,22.730,8.260,baseline
1531.000,298.100,66.610,16.900,868.600,170.600,38.300,8.419,194.500,44.860,12.460,3.934,356.100,76.140,22.640,8.264,baseline
1532.000,299.100,67.430,16.990,879.500,172.200,38.600,8.535,195.500,44.850,12.440,3.940,356.200,76.900,22.820,8.355,baseline
1534.000,300.900,67.490,17.070,884.300,169.900,38.830,8.597,193.700,44.590,12.520,3.966,359.300,76.910,23.070,8.459,baseline
1543.000,301.400,68.380,17.020,884.900,171.600,38.840,8.641,197.100,44.860,12.600,3.980,360.300,77.960,23.260,8.564,baseline
1551.000,307.100,68.660,17.110,882.200,172.200,38.620,8.438,198.600,44.840,12.570,3.968,357.800,76.660,22.630,8.273,baseline
1519.000,295.400,66.190,16.720,874.900,169.100,38.290,8.349,193.100,44.250,12.490,3.909,354.600,75.770,22.370,8.160,baseline
1517.000,297.300,66.860,16.660,872.600,171.300,38.160,8.427,194.900,44.110,12.410,3.924,354.200,75.250,22.410,8.202,baseline
1518.000,295.400,66.920,16.760,877.100,170.800,38.500,8.497,196.100,44.070,12.460,3.934,355.200,76.280,22.570,8.238,baseline
1523.000,295.400,66.810,16.830,883.900,171.100,38.980,8.444,196.300,44.200,12.470,3.943,355.500,76.230,22.650,8.359,baseline
1527.000,298.100,67.470,17.010,881.500,171.700,38.500,8.464,194.500,44.410,12.530,3.951,355.900,76.550,22.790,8.394,baseline
1534.000,298.700,67.760,17.050,881.300,171.800,38.960,8.559,195.100,44.430,12.560,3.971,358.400,77.250,23.050,8.469,baseline
1542.000,301.400,67.480,17.250,876.500,173.200,39.340,8.585,196.200,45.160,12.590,3.992,361.300,77.970,23.340,8.561,baseline
1550.000,303.400,68.520,17.240,881.200,171.400,38.730,8.437,195.600,44.890,12.680,3.977,358.600,76.580,22.710,8.285,baseline
1514.000,296.300,66.680,16.600,873.900,168.400,38.430,8.391,195.400,44.500,12.510,3.935,353.200,75.410,22.550,8.231,baseline
1515.000,292.000,66.580,16.760,883.800,169.900,38.600,8.424,193.900,44.220,12.440,3.932,352.800,75.040,22.410,8.221,baseline
1517.000,295.800,66.230,16.670,869.900,170.200,38.460,8.389,193.400,44.650,12.460,3.931,355.200,75.500,22.560,8.278,baseline
1521.000,295.600,66.950,16.730,876.800,170.900,38.680,8.497,191.700,44.450,12.510,3.947,353.800,76.030,22.590,8.303,baseline
1524.000,297.500,66.750,16.790,883.000,170.900,38.470,8.555,195.900,44.510,12.560,3.962,356.900,76.010,22.760,8.368,baseline
1531.000,301.200,67.040,16.930,876.500,170.500,38.610,8.404,192.800,44.550,12.540,3.980,358.500,77.050,22.930,8.473,baseline
1537.000,298.900,67.920,17.290,877.400,173.400,38.990,8.548,196.200,44.840,12.620,4.004,361.200,77.550,23.120,8.533,baseline
1545.000,303.200,67.860,17.220,876.700,170.700,38.540,8.432,194.400,45.160,12.650,3.992,360.200,77.160,22.900,8.360,baseline
1514.000,289.500,66.150,16.600,867.200,170.200,38.180,8.389,195.200,44.690,12.460,3.937,352.100,75.470,22.360,8.187,baseline
1512.000,291.500,66.340,16.550,872.100,169.000,37.990,8.381,193.300,44.180,12.470,3.931,353.000,75.310,22.390,8.214,baseline
1514.000,291.900,65.700,16.670,867.100,168.800,38.350,8.380,195.700,44.340,12.480,3.937,352.900,75.760,22.590,8.277,baseline
1518.000,294.000,65.730,16.840,862.100,168.900,38.490,8.352,195.400,44.040,12.500,3.953,354.500,75.750,22.660,8.331,baseline
1520.000,296.400,67.010,16.720,869.000,168.700,38.490,8.399,195.000,44.400,12.500,3.950,355.300,76.130,22.770,8.383,baseline
1523.000,297.400,67.280,16.980,875.400,170.400,38.570,8.496,193.900,44.760,12.570,3.986,356.900,77.010,22.930,8.459,baseline
1533.000,301.000,67.830,16.990,879.200,171.200,38.660,8.483,191.400,44.930,12.600,4.002,359.700,77.430,23.190,8.543,baseline
1542.000,300.800,68.430,17.150,876.700,170.300,38.840,8.412,195.400,45.170,12.630,4.023,360.700,77.590,22.870,8.430,baseline
1517.000,297.100,66.680,16.620,868.800,168.500,38.440,8.356,194.400,44.240,12.520,3.943,352.900,75.300,22.380,8.264,baseline
1514.000,293.400,66.270,16.790,876.100,169.600,38.060,8.380,193.100,44.120,12.420,3.937,353.400,75.450,22.350,8.212,baseline
1514.000,295.400,66.600,16.770,868.800,169.400,38.290,8.397,196.100,44.270,12.510,3.954,353.700,75.770,22.560,8.305,baseline
1521.000,295.200,66.870,16.900,879.100,169.600,38.250,8.493,196.200,44.590,12.570,3.960,353.700,75.930,22.650,8.320,baseline
1523.000,297.000,66.990,16.850,878.400,169.300,38.490,8.467,194.200,44.550,12.510,3.988,354.800,76.380,22.900,8.374,baseline
1529.000,296.700,67.650,16.960,875.200,170.300,38.460,8.433,196.000,44.790,12.510,3.977,357.200,77.110,23.000,8.482,baseline
1536.000,301.300,68.820,17.160,880.700,172.100,39.070,8.483,197.600,44.930,12.610,4.015,359.600,77.880,23.220,8.567,baseline
1543.000,306.100,68.730,17.100,875.600,170.600,38.690,8.441,197.900,44.990,12.670,4.018,358.800,77.180,22.810,8.376,baseline
1517.000,293.400,67.010,16.540,862.100,168.700,38.200,8.371,194.800,44.430,12.460,3.948,351.900,75.010,22.490,8.204,baseline
1511.000,291.600,66.600,16.600,871.800,168.200,38.670,8.358,193.600,44.250,12.430,3.933,351.500,75.050,22.250,8.201,baseline
1512.000,295.600,66.340,16.670,870.100,169.400,37.890,8.379,194.600,44.210,12.480,3.949,352.200,75.350,22.400,8.265,baseline
1520.000,297.900,67.380,16.780,874.900,168.700,38.480,8.495,193.100,44.230,12.470,3.950,352.200,75.240,22.520,8.261,baseline
1523.000,296.100,67.050,16.720,871.800,169.600,38.460,8.450,193.500,44.470,12.480,3.968,353.700,75.720,22.530,8.332,baseline
1527.000,298.100,67.550,16.930,874.400,170.700,38.560,8.473,194.900,44.570,12.570,3.978,355.000,76.380,22.840,8.416,baseline
1534.000,301.400,67.990,17.030,877.400,170.200,38.750,8.447,195.900,44.530,12.620,3.983,357.700,76.920,23.090,8.501,baseline
1544.000,301.600,68.610,17.210,879.500,170.800,38.830,8.472,195.900,44.990,12.610,4.022,359.200,77.390,22.920,8.368,baseline
1518.000,294.400,66.590,16.650,875.100,170.200,38.120,8.428,196.900,44.260,12.460,3.931,350.100,74.600,22.310,8.147,baseline
1511.000,294.300,66.150,16.640,866.400,170.100,38.180,8.373,194.300,44.100,12.410,3.953,350.100,74.560,22.270,8.133,baseline
1510.000,294.500,66.320,16.690,873.800,168.200,38.050,8.469,196.200,44.300,12.480,3.948,350.700,74.830,22.290,8.199,baseline
1515.000,295.800,65.570,16.810,883.200,170.700,38.700,8.364,194.800,44.300,12.460,3.948,352.300,75.130,22.340,8.204,baseline
1516.000,295.900,66.530,16.690,876.000,169.200,38.490,8.463,192.900,44.490,12.390,3.957,352.000,75.540,22.500,8.237,baseline
1524.000,301.000,66.450,16.860,880.500,171.400,38.480,8.431,191.600,44.500,12.530,3.981,353.000,76.120,22.640,8.324,baseline
1531.000,299.100,68.110,17.070,882.100,171.000,38.840,8.577,194.300,44.750,12.630,4.000,356.400,76.610,22.900,8.415,baseline
1539.000,299.200,68.510,17.070,877.100,172.300,39.160,8.510,194.300,44.730,12.640,4.005,357.900,77.350,23.080,8.529,baseline
1543.000,301.100,68.790,16.890,873.700,168.800,38.280,8.333,198.000,44.940,12.650,3.973,354.200,75.440,22.400,8.183,baseline
1510.000,293.500,66.480,16.750,864.400,168.900,38.360,8.292,191.400,44.120,12.410,3.919,349.800,74.730,22.210,8.117,baseline
1509.000,295.000,66.640,16.660,871.600,168.000,38.350,8.338,195.700,44.150,12.410,3.922,349.300,74.530,22.150,8.139,baseline
1513.000,294.800,66.810,16.670,871.200,168.900,38.350,8.483,194.000,44.870,12.440,3.943,352.500,75.190,22.310,8.133,baseline
1517.000,295.800,66.230,16.770,878.100,170.200,38.380,8.447,194.000,44.290,12.450,3.956,351.100,75.490,22.370,8.214,baseline
1520.000,296.700,67.670,16.790,872.700,168.400,38.810,8.488,195.200,44.640,12.490,3.951,353.300,75.810,22.580,8.281,baseline
1525.000,300.200,67.350,16.910,871.100,170.500,38.690,8.458,194.400,45.000,12.560,3.991,354.800,76.330,22.770,8.382,baseline
1534.000,300.500,69.020,17.140,883.900,171.400,38.630,8.601,198.000,45.230,12.630,3.997,357.500,77.260,22.980,8.468,baseline
1542.000,301.800,68.670,17.140,882.900,171.100,39.100,8.599,196.300,45.200,12.670,4.021,360.000,77.670,23.160,8.521,baseline
1539.000,296.200,67.340,16.750,876.100,168.900,38.440,8.422,195.100,44.660,12.590,3.966,353.000,75.410,22.350,8.170,baseline
1510.000,292.800,66.040,16.620,863.800,168.000,37.830,8.298,195.000,44.080,12.390,3.925,350.400,74.940,22.160,8.118,baseline
1511.000,295.800,65.840,16.630,870.900,168.900,38.080,8.308,194.500,44.180,12.450,3.934,351.300,75.120,22.330,8.200,baseline
1517.000,297.300,67.020,16.720,870.200,168.000,38.120,8.423,195.600,44.430,12.490,3.947,352.000,75.470,22.430,8.227,baseline
1517.000,296.100,67.090,16.840,872.500,169.300,38.330,8.407,195.500,44.490,12.500,3.945,352.900,75.980,22.530,8.266,baseline
1522.000,299.000,67.020,16.870,872.400,170.700,38.400,8.431,195.200,44.480,12.540,3.946,356.300,76.190,22.720,8.317,baseline
1531.000,304.300,67.940,17.020,877.800,170.600,38.660,8.507,194.700,45.080,12.580,4.005,357.000,77.000,22.960,8.428,baseline
1539.000,304.500,68.480,17.170,879.800,171.500,38.690,8.523,196.400,45.090,12.620,3.997,361.100,77.740,23.120,8.503,baseline
1547.000,301.400,68.700,17.150,878.900,170.700,38.760,8.433,199.500,45.260,12.680,4.038,362.000,78.020,23.030,8.441,baseline
1524.000,296.800,66.910,16.640,872.800,168.700,38.300,8.405,196.400,44.810,12.510,3.955,353.200,75.490,22.390,8.180,baseline
1514.000,296.300,65.960,16.700,868.700,167.900,38.560,8.357,194.100,44.500,12.430,3.948,352.700,75.360,22.410,8.144,baseline
1517.000,298.300,67.590,16.800,871.700,168.400,38.240,8.424,195.400,44.300,12.450,3.931,354.200,76.300,22.500,8.264,baseline
1524.000,300.800,68.200,16.890,877.100,170.100,38.350,8.416,195.800,44.500,12.500,3.959,355.100,75.680,22.540,8.258,baseline
1523.000,297.800,67.190,16.860,873.800,169.100,38.430,8.461,195.700,44.550,12.500,3.964,354.500,76.300,22.660,8.322,baseline
1531.000,301.400,67.460,17.050,872.900,170.900,38.340,8.472,195.500,44.540,12.640,3.980,358.700,76.980,22.840,8.430,baseline
1537.000,300.100,68.550,17.300,877.600,169.600,38.660,8.484,194.700,44.830,12.640,3.979,359.400,77.790,23.170,8.517,baseline
1547.000,303.100,68.890,17.420,880.200,172.300,38.690,8.593,197.500,44.850,12.670,4.006,362.400,78.350,23.360,8.536,baseline
1548.000,303.200,67.990,17.010,881.600,168.800,38.120,8.440,197.000,45.130,12.570,3.970,357.000,76.390,22.580,8.209,baseline
1516.000,297.100,66.930,16.760,867.800,168.900,38.580,8.333,194.400,44.620,12.470,3.934,353.100,75.720,22.430,8.153,baseline
1517.000,298.500,67.660,16.780,873.800,169.500,38.260,8.392,192.200,44.080,12.420,3.930,352.700,75.650,22.370,8.214,baseline
1522.000,298.300,67.810,16.870,872.600,169.400,38.760,8.447,195.500,44.220,12.520,3.961,354.200,76.320,22.470,8.246,baseline
1523.000,298.300,67.460,17.040,868.700,169.600,38.930,8.420,193.800,44.980,12.500,3.944,354.800,76.090,22.670,8.279,baseline
1528.000,300.700,68.090,17.080,879.700,170.100,38.680,8.538,195.800,44.700,12.530,3.946,356.600,76.630,22.840,8.324,baseline
1534.000,303.000,68.290,17.080,878.800,171.400,38.670,8.480,194.700,44.870,12.580,3.972,359.600,77.290,23.020,8.422,baseline
1544.000,304.600,69.110,17.270,880.800,171.800,38.850,8.603,197.900,44.830,12.630,3.993,361.700,78.000,23.190,8.518,baseline
1550.000,304.600,69.480,17.170,879.700,167.900,38.340,8.351,196.400,44.990,12.670,3.955,356.900,76.690,22.620,8.240,baseline
1519.000,295.700,66.960,16.800,869.000,169.200,38.100,8.382,193.500,44.420,12.460,3.930,353.600,75.500,22.400,8.095,baseline
1518.000,294.600,66.730,16.780,872.500,168.700,38.110,8.423,196.200,43.850,12.370,3.905,352.200,75.210,22.290,8.141,baseline
1517.000,297.500,66.470,16.840,873.100,167.600,38.330,8.487,191.700,44.380,12.460,3.929,353.000,75.590,22.380,8.156,baseline
1523.000,299.400,67.260,17.010,871.000,169.700,38.610,8.380,193.400,44.030,12.440,3.938,354.500,75.970,22.450,8.235,baseline
1525.000,301.900,68.120,16.980,876.900,169.800,38.690,8.455,197.100,44.300,12.510,3.936,355.300,76.150,22.600,8.282,baseline
1533.000,299.600,67.700,17.070,883.400,171.500,38.610,8.545,194.100,44.350,12.540,3.962,357.200,76.680,22.880,8.358,baseline
1542.000,305.000,69.150,17.250,883.500,170.900,38.790,8.526,195.100,45.020,12.560,3.994,359.800,77.430,23.000,8.451,baseline
1549.000,303.800,69.190,17.310,880.700,170.000,38.570,8.464,198.100,44.860,12.640,3.981,359.400,76.780,22.750,8.245,baseline
1519.000,297.900,66.790,16.620,865.600,168.500,38.250,8.366,193.200,44.220,12.400,3.906,352.600,75.330,22.170,8.102,baseline
1516.000,296.300,66.520,16.680,870.700,168.600,38.380,8.395,193.500,44.170,12.360,3.892,351.000,75.150,22.200,8.045,baseline
1517.000,294.700,66.720,16.740,874.000,170.000,38.070,8.394,194.000,43.950,12.400,3.925,352.700,75.320,22.350,8.151,baseline
1523.000,297.900,67.560,16.790,879.200,170.400,38.550,8.485,193.600,43.820,12.440,3.917,353.000,75.460,22.310,8.128,baseline
1523.000,297.400,68.280,16.900,878.900,171.100,38.690,8.486,194.500,44.050,12.460,3.944,354.500,76.180,22.560,8.200,baseline
1534.000,303.300,67.860,17.110,877.800,170.400,38.460,8.592,193.200,44.710,12.490,3.963,356.500,76.350,22.620,8.304,baseline
1542.000,302.800,68.430,17.180,885.000,171.800,38.790,8.552,194.700,44.410,12.480,3.976,359.000,77.080,22.960,8.406,baseline
1549.000,307.400,69.180,17.230,887.100,173.700,39.170,8.598,197.600,44.260,12.620,3.990,362.100,77.870,23.090,8.413,baseline
1542.000,302.300,67.860,16.860,880.400,169.700,38.350,8.504,197.600,44.710,12.480,3.927,353.100,75.460,22.230,8.085,baseline
1518.000,296.600,66.640,16.740,868.500,170.500,38.340,8.393,191.800,43.670,12.430,3.908,352.000,75.020,22.120,8.049,baseline
1518.000,296.500,66.990,16.760,878.200,170.100,38.510,8.459,191.500,44.430,12.390,3.900,351.500,74.950,22.250,8.089,baseline
1521.000,299.700,66.930,16.760,875.200,170.300,38.660,8.526,197.400,44.360,12.420,3.938,353.400,75.420,22.360,8.121,baseline
1523.000,298.400,68.110,16.810,878.700,170.300,38.620,8.492,192.900,44.190,12.450,3.943,353.300,75.800,22.380,8.162,baseline
1531.000,302.200,68.540,16.920,875.800,170.300,39.070,8.503,193.600,44.410,12.500,3.955,355.900,76.290,22.660,8.242,baseline
1535.000,303.000,68.890,17.120,884.200,171.300,39.110,8.579,195.500,44.760,12.510,3.983,358.300,77.160,22.760,8.351,baseline
1545.000,303.500,68.760,17.250,888.000,170.300,39.330,8.578,194.600,44.820,12.560,4.002,360.900,77.500,22.990,8.407,baseline
1552.000,306.000,69.510,17.300,883.300,172.200,38.780,8.525,195.300,44.950,12.580,4.005,359.600,76.840,22.550,8.191,baseline
1519.000,296.900,66.880,16.700,880.600,168.300,38.280,8.480,195.000,44.210,12.420,3.927,352.300,74.940,22.180,8.062,baseline
1519.000,296.900,67.340,16.900,868.900,170.500,38.370,8.452,193.500,44.440,12.370,3.940,353.100,75.260,22.300,8.100,baseline
1521.000,299.500,67.840,16.760,867.500,169.900,38.610,8.513,195.500,44.270,12.440,3.942,353.700,75.580,22.410,8.094,baseline
1526.000,297.000,67.280,16.760,875.800,169.700,38.390,8.488,196.200,44.540,12.460,3.960,354.400,75.760,22.340,8.133,baseline
1526.000,301.300,67.770,16.820,876.300,168.900,38.940,8.435,191.900,44.220,12.510,3.952,356.900,76.310,22.530,8.197,baseline
1532.000,303.600,68.630,17.100,880.300,170.000,38.620,8.507,195.800,44.770,12.550,3.987,358.500,76.830,22.650,8.301,baseline
1543.000,304.900,68.610,17.170,873.900,170.800,38.800,8.554,196.400,44.470,12.590,4.011,360.000,77.660,22.870,8.391,baseline
1548.000,306.900,69.590,17.300,883.800,173.100,38.860,8.547,196.200,44.780,12.590,4.009,362.100,77.720,23.020,8.362,baseline
1535.000,300.000,68.050,16.690,871.900,170.700,38.330,8.454,196.500,44.370,12.500,3.961,355.900,75.530,22.270,8.066,baseline
1520.000,296.900,66.870,16.820,872.500,170.600,38.560,8.420,193.500,44.050,12.390,3.949,352.300,75.250,22.150,8.048,baseline
1522.000,298.500,66.000,16.800,874.800,171.300,38.840,8.452,193.600,44.340,12.420,3.950,354.000,75.140,22.300,8.107,baseline
1528.000,298.200,67.850,16.930,878.300,170.600,38.380,8.501,193.300,44.120,12.470,3.968,354.800,75.620,22.280,8.117,baseline
1528.000,301.300,67.650,16.990,868.300,172.100,38.560,8.560,196.000,44.440,12.530,3.978,355.500,75.830,22.400,8.144,baseline
1534.000,301.700,67.590,16.970,881.500,171.200,38.510,8.610,193.100,44.250,12.510,3.979,356.900,76.190,22.520,8.242,baseline
1542.000,305.500,67.990,17.170,884.500,172.900,38.860,8.643,196.500,44.900,12.590,3.993,360.000,77.180,22.800,8.339,baseline
1549.000,305.500,68.940,17.320,890.500,172.600,39.350,8.618,194.700,44.620,12.690,4.028,361.800,77.820,23.080,8.345,baseline
1548.000,303.500,67.930,16.920,878.300,168.300,38.720,8.547,196.900,44.610,12.550,3.985,355.100,75.610,22.200,8.089,baseline
1520.000,298.800,66.840,16.570,868.400,171.300,38.720,8.449,190.700,44.330,12.440,3.956,353.100,75.070,22.080,8.011,baseline
1520.000,298.300,67.240,16.670,883.500,170.100,38.530,8.481,194.600,44.100,12.460,3.947,352.600,75.070,22.080,8.046,baseline
1523.000,302.500,68.060,16.660,881.000,170.800,38.500,8.500,192.500,44.140,12.470,3.959,354.000,75.130,22.220,8.028,baseline
1527.000,299.500,67.350,16.800,881.200,169.900,38.690,8.491,192.100,44.430,12.530,3.968,354.200,75.300,22.220,8.126,baseline
1530.000,301.000,68.010,16.960,872.900,171.200,38.920,8.560,192.800,44.200,12.570,3.977,355.200,76.190,22.410,8.182,baseline
1539.000,302.700,68.870,17.120,882.600,172.700,38.720,8.586,192.700,44.370,12.610,4.012,357.500,76.630,22.590,8.302,baseline
1546.000,308.300,68.470,17.150,880.100,172.900,39.510,8.595,195.100,44.800,12.650,4.029,359.800,77.300,22.800,8.390,baseline
1553.000,306.900,69.610,17.300,889.600,171.400,38.810,8.540,195.800,44.920,12.710,4.044,360.500,76.870,22.590,8.187,baseline
1524.000,294.400,66.340,16.650,880.600,171.000,38.420,8.517,195.300,44.220,12.510,3.951,351.800,74.870,21.930,7.998,baseline
1522.000,298.100,67.230,16.660,880.300,170.800,38.830,8.502,192.300,43.860,12.480,3.949,350.400,74.720,21.920,7.987,baseline
1520.000,298.300,67.510,16.870,869.900,170.700,38.830,8.437,193.300,43.870,12.460,3.968,351.900,75.220,22.180,8.024,baseline
1525.000,298.100,66.680,16.670,870.500,169.300,38.500,8.478,194.200,44.250,12.540,3.981,352.400,75.030,22.160,8.060,baseline
1527.000,301.500,67.780,16.920,877.400,170.700,39.260,8.546,194.400,43.950,12.500,3.968,353.900,75.460,22.340,8.109,baseline
1533.000,302.200,67.390,16.880,878.400,172.000,38.660,8.533,195.200,44.510,12.540,4.002,355.100,76.060,22.480,8.199,baseline
1541.000,299.800,68.570,17.120,884.200,171.600,39.330,8.590,194.100,44.730,12.640,4.028,356.400,76.730,22.660,8.294,baseline
1550.000,306.400,68.980,17.180,879.600,173.300,39.150,8.582,197.600,44.630,12.670,4.030,360.100,77.240,23.010,8.374,baseline
1555.000,306.700,68.170,17.210,878.000,171.700,38.630,8.510,196.000,44.670,12.660,4.033,356.900,75.980,22.380,8.094,baseline
1520.000,298.800,66.490,16.610,876.300,170.800,38.620,8.401,193.900,44.420,12.490,3.952,351.100,74.670,22.100,8.007,baseline
1521.000,296.900,67.060,16.640,876.900,169.700,38.340,8.435,192.200,44.030,12.420,3.946,350.000,74.280,21.970,8.005,baseline
1522.000,296.500,67.010,16.790,878.800,171.300,38.770,8.548,193.400,44.140,12.460,3.974,350.300,74.980,22.080,8.043,baseline
1526.000,300.200,67.480,16.830,876.000,170.900,38.820,8.426,193.800,44.480,12.480,3.954,350.900,75.020,22.110,8.069,baseline
1528.000,301.600,67.750,16.970,886.400,171.200,38.660,8.568,193.800,44.490,12.510,3.988,353.300,75.420,22.310,8.134,baseline
1536.000,302.100,67.820,17.000,887.300,170.500,38.690,8.510,196.100,44.570,12.580,4.012,354.900,75.970,22.630,8.243,baseline
1543.000,304.600,68.520,17.290,888.200,171.000,39.120,8.553,195.000,44.710,12.560,4.040,357.700,76.750,22.830,8.302,baseline
1551.000,307.700,69.370,17.240,888.200,171.800,38.780,8.561,196.200,44.700,12.690,4.034,360.000,77.400,22.970,8.398,baseline
1557.000,305.600,69.350,17.320,885.500,171.500,38.740,8.493,195.300,44.880,12.700,4.045,358.600,76.290,22.440,8.182,baseline
1526.000,299.200,67.750,16.660,871.700,169.800,38.180,8.409,193.400,44.380,12.490,3.971,350.900,74.850,22.170,8.067,baseline
1523.000,296.200,67.040,16.690,874.200,170.300,38.600,8.491,193.800,44.330,12.520,3.958,351.700,74.560,22.160,8.060,baseline
1523.000,300.200,67.650,16.900,874.000,172.000,38.550,8.492,192.700,43.980,12.530,3.976,353.400,75.320,22.210,8.080,baseline
1530.000,301.800,67.280,16.820,879.400,170.000,38.600,8.511,194.300,44.300,12.530,3.985,352.400,75.200,22.190,8.149,baseline
1533.000,300.800,68.290,17.010,882.500,171.700,38.730,8.427,194.000,44.380,12.510,3.987,353.100,75.740,22.410,8.223,baseline
1537.000,302.000,68.240,17.030,884.300,172.800,39.100,8.548,194.700,44.680,12.600,4.007,355.400,76.290,22.680,8.289,baseline
1547.000,303.400,68.670,17.180,883.600,172.500,38.810,8.542,193.100,44.690,12.620,4.011,357.600,76.770,22.800,8.341,baseline
1552.000,303.600,69.370,17.290,889.400,173.000,39.120,8.475,196.000,44.900,12.630,4.046,359.600,77.310,22.980,8.451,baseline
1553.000,308.000,68.950,17.190,878.900,169.500,38.520,8.499,196.800,44.630,12.610,3.992,353.300,75.490,22.380,8.128,baseline
1519.000,297.300,66.750,16.770,878.500,170.300,38.600,8.448,193.200,44.310,12.380,3.949,349.200,74.830,22.210,8.050,baseline
1521.000,295.600,67.460,16.630,875.700,169.100,38.380,8.482,192.500,43.980,12.400,3.952,350.400,74.620,22.150,8.074,baseline
1522.000,299.700,66.650,16.880,876.800,171.800,38.520,8.455,192.900,44.210,12.440,3.975,351.400,74.950,22.250,8.134,baseline
1524.000,301.500,66.270,16.820,878.000,170.300,38.370,8.491,195.000,44.310,12.450,3.970,351.200,75.070,22.190,8.166,baseline
1528.000,298.300,67.570,17.000,888.800,170.800,38.590,8.485,194.500,44.570,12.500,3.944,352.900,75.400,22.440,8.215,baseline
1537.000,301.100,68.310,16.950,885.900,173.100,38.680,8.472,196.900,44.400,12.500,3.999,354.400,75.940,22.730,8.306,baseline
1542.000,304.400,68.680,17.130,891.500,172.600,38.970,8.513,195.200,44.530,12.550,3.995,357.500,76.690,22.880,8.423,baseline
1551.000,305.100,68.950,17.310,886.800,172.800,39.140,8.427,195.500,44.760,12.610,4.028,359.200,77.600,22.780,8.332,baseline
1535.000,301.300,66.980,16.720,881.400,170.900,38.580,8.444,193.000,44.340,12.490,3.967,349.100,74.670,22.150,8.088,baseline
1517.000,295.400,66.710,16.640,871.700,169.400,38.660,8.376,191.400,44.000,12.400,3.928,349.000,74.460,22.030,8.032,baseline
1515.000,294.100,66.330,16.640,871.100,169.300,38.460,8.455,194.400,43.950,12.410,3.937,348.700,74.480,22.110,8.077,baseline
1520.000,297.400,66.690,16.790,874.100,169.100,38.150,8.392,193.800,44.030,12.370,3.952,349.500,74.820,22.130,8.102,baseline
1521.000,297.100,67.590,16.800,877.300,170.400,38.480,8.476,192.500,43.940,12.450,3.965,349.900,74.810,22.260,8.131,baseline
1527.000,301.100,67.170,16.790,881.300,171.700,38.730,8.526,193.100,44.120,12.480,3.962,350.700,75.350,22.450,8.231,baseline
1534.000,299.500,68.240,16.920,881.500,171.500,39.070,8.516,196.200,44.290,12.520,3.973,353.800,75.860,22.680,8.317,baseline
1540.000,304.700,68.360,17.140,883.800,171.300,38.820,8.590,196.400,44.660,12.570,3.976,356.500,76.770,22.800,8.388,baseline
1549.000,307.600,69.190,17.330,889.800,171.100,38.730,8.476,195.500,44.750,12.570,3.992,354.800,76.080,22.420,8.140,baseline
1519.000,295.800,67.250,16.730,868.100,170.600,38.270,8.459,193.000,43.860,12.330,3.900,348.500,74.460,21.920,8.002,baseline
1519.000,297.100,65.960,16.650,875.400,170.000,38.480,8.445,195.200,43.530,12.290,3.893,346.700,73.960,21.910,7.997,baseline
1518.000,298.300,66.670,16.650,878.400,171.700,39.150,8.466,190.800,44.120,12.370,3.911,347.100,74.320,22.080,8.032,baseline
1524.000,302.600,67.780,16.790,886.000,171.700,39.000,8.543,192.900,43.850,12.360,3.929,348.300,74.280,21.990,8.107,baseline
1526.000,298.800,67.780,16.860,895.400,172.400,39.220,8.579,196.400,43.870,12.390,3.935,349.200,74.850,22.150,8.151,baseline
1534.000,304.600,68.180,16.960,891.900,172.900,39.120,8.543,195.000,44.260,12.440,3.940,350.900,75.460,22.480,8.255,baseline
1540.000,303.300,68.500,17.180,894.200,172.200,39.540,8.559,192.600,44.500,12.520,3.975,353.000,75.950,22.680,8.337,baseline
1549.000,307.000,69.210,17.160,885.500,173.700,39.710,8.669,195.500,44.180,12.590,3.980,356.600,76.800,22.920,8.420,baseline
1553.000,305.900,68.420,16.990,884.400,171.900,39.090,8.473,194.900,44.090,12.520,3.945,349.900,75.110,22.190,8.076,baseline
1516.000,298.000,67.610,16.600,881.500,171.500,38.480,8.425,192.200,44.090,12.270,3.914,347.100,74.160,21.920,8.005,baseline
1516.000,298.500,67.640,16.730,883.300,169.300,38.460,8.433,192.200,43.940,12.320,3.897,347.000,74.030,21.870,8.002,baseline
1518.000,298.800,66.900,16.880,886.700,170.300,39.170,8.473,194.100,43.920,12.370,3.918,347.900,74.450,22.060,8.074,baseline
1523.000,298.300,68.010,16.770,888.200,172.200,38.770,8.524,191.000,44.150,12.380,3.922,348.300,74.690,22.100,8.108,baseline
1526.000,299.700,67.140,16.910,883.900,172.900,38.560,8.525,192.100,44.100,12.380,3.933,349.700,75.000,22.300,8.161,baseline
1534.000,303.500,68.060,17.150,886.200,172.900,39.010,8.573,193.900,44.360,12.460,3.964,352.700,75.600,22.570,8.277,baseline
1540.000,300.700,69.480,17.100,884.400,172.900,39.470,8.651,193.100,44.630,12.470,3.957,354.700,76.660,22.630,8.334,baseline
1549.000,306.700,69.750,17.430,892.300,173.700,39.330,8.592,193.500,44.550,12.550,3.975,356.700,76.990,22.780,8.308,baseline
1532.000,296.500,66.700,16.770,867.800,169.700,38.240,8.390,195.900,43.980,12.430,3.921,349.100,74.470,22.100,8.057,baseline
1514.000,296.000,67.320,16.710,870.400,169.000,38.400,8.404,193.300,43.610,12.310,3.903,347.200,74.320,21.950,8.018,baseline
1511.000,298.000,65.880,16.710,877.200,170.100,37.960,8.424,196.100,44.190,12.330,3.901,347.600,74.660,22.160,8.079,baseline
1515.000,296.500,67.050,16.610,876.400,167.900,38.470,8.377,192.300,44.330,12.330,3.897,348.900,74.530,22.130,8.082,baseline
1514.000,295.800,66.570,16.700,872.100,168.900,38.350,8.457,190.700,43.830,12.400,3.921,348.600,74.920,22.120,8.122,baseline
1519.000,298.500,66.820,16.900,868.700,168.500,38.500,8.420,192.300,44.190,12.390,3.938,351.300,75.010,22.380,8.218,baseline
1528.000,301.800,67.380,16.770,875.700,170.300,38.560,8.452,194.900,44.660,12.480,3.950,351.900,76.030,22.630,8.277,baseline
1533.000,301.300,68.170,17.080,882.000,170.000,39.180,8.550,193.700,44.770,12.550,3.959,354.800,76.670,22.830,8.395,baseline
1539.000,307.300,69.240,17.040,882.900,169.000,38.660,8.438,196.800,44.510,12.550,3.983,354.300,75.910,22.390,8.139,baseline
1508.000,296.000,66.040,16.620,871.500,167.400,38.440,8.336,193.200,43.890,12.400,3.913,347.400,74.390,22.010,8.010,baseline
1504.000,292.500,66.320,16.490,878.000,169.600,38.450,8.324,192.800,43.880,12.310,3.912,346.500,73.790,21.960,7.998,baseline
1504.000,296.300,66.330,16.580,882.100,169.100,38.430,8.415,192.100,43.670,12.360,3.894,347.100,74.340,21.970,8.038,baseline
1510.000,294.700,66.430,16.700,877.800,168.600,38.150,8.400,195.800,44.110,12.370,3.896,347.500,74.370,22.080,8.062,baseline
1512.000,297.900,66.660,16.580,877.000,169.500,38.580,8.465,193.000,43.930,12.370,3.934,349.600,74.700,22.120,8.124,baseline
1518.000,298.600,67.670,16.840,883.900,170.800,38.850,8.482,193.200,44.070,12.490,3.950,350.700,75.460,22.420,8.243,baseline
1528.000,299.100,67.150,16.890,885.300,170.700,39.220,8.555,193.000,44.200,12.530,3.969,353.500,76.450,22.550,8.307,baseline
1535.000,301.700,68.500,17.160,886.100,172.700,39.320,8.477,194.500,44.500,12.550,3.972,356.400,76.670,22.750,8.339,baseline
1530.000,301.400,66.810,16.820,876.600,170.700,38.450,8.440,193.300,44.290,12.440,3.920,349.500,74.630,21.890,8.037,baseline
1501.000,295.000,65.720,16.360,876.100,168.700,37.950,8.391,193.300,44.190,12.330,3.883,346.000,74.030,21.920,7.990,baseline
1501.000,295.700,66.380,16.530,877.000,167.900,38.330,8.394,191.000,44.090,12.290,3.893,345.800,73.720,21.890,7.983,baseline
1501.000,293.500,66.820,16.550,870.800,169.500,38.200,8.396,192.700,43.750,12.380,3.896,347.100,74.350,21.970,8.026,baseline
1504.000,293.700,66.660,16.540,875.600,169.300,38.360,8.420,188.500,43.980,12.350,3.891,348.000,74.410,22.070,8.058,baseline
1509.000,299.100,66.240,16.730,879.500,168.600,38.780,8.395,191.400,44.190,12.390,3.904,348.800,74.900,22.280,8.134,baseline
1515.000,298.000,67.180,16.760,878.500,169.400,39.080,8.499,192.400,44.240,12.490,3.943,350.900,75.720,22.390,8.216,baseline
1525.000,301.500,68.260,16.930,887.700,170.500,39.030,8.542,193.500,44.470,12.470,3.951,355.000,76.540,22.650,8.297,baseline
1532.000,301.500,68.270,17.070,886.400,171.100,38.800,8.469,194.400,44.300,12.560,3.969,356.200,76.870,22.890,8.389,baseline
1530.000,298.500,66.500,16.710,879.900,169.600,37.760,8.356,194.100,44.140,12.480,3.909,349.700,75.020,22.000,8.048,baseline
1494.000,292.100,65.870,16.500,869.700,168.700,37.830,8.316,192.800,43.630,12.310,3.881,345.600,73.870,21.930,7.947,baseline
1495.000,289.300,65.180,16.440,873.300,167.800,38.070,8.376,193.600,44.040,12.240,3.853,344.500,73.930,21.790,7.991,baseline
1497.000,292.500,65.500,16.330,870.000,167.800,38.130,8.398,191.300,43.610,12.270,3.875,347.000,74.080,21.910,7.977,baseline
1499.000,292.100,65.700,16.350,871.100,167.900,37.980,8.321,190.500,43.680,12.330,3.889,347.200,74.500,22.040,8.018,baseline
1504.000,293.000,66.170,16.510,874.800,169.000,37.890,8.457,194.000,44.220,12.370,3.905,349.000,75.040,22.200,8.105,baseline
1510.000,296.200,67.050,16.750,874.300,168.700,38.590,8.440,193.400,44.290,12.400,3.930,352.000,75.800,22.430,8.200,baseline
1517.000,298.900,67.580,16.620,879.000,170.200,38.620,8.491,193.100,44.450,12.420,3.939,353.800,76.340,22.640,8.280,baseline
1526.000,302.000,67.010,16.900,886.300,169.500,38.880,8.450,197.100,44.580,12.460,3.962,356.900,76.890,22.800,8.348,baseline
1532.000,298.500,67.460,16.700,876.600,169.000,38.440,8.458,195.300,44.820,12.550,3.945,355.600,75.940,22.520,8.147,baseline
1493.000,292.100,65.600,16.200,873.600,167.000,38.180,8.334,193.100,44.060,12.210,3.865,347.600,74.150,21.940,7.935,baseline
1491.000,287.500,65.370,16.320,871.600,165.400,37.870,8.287,192.900,44.000,12.200,3.860,347.000,73.980,21.980,7.979,baseline
1491.000,290.700,66.000,16.330,871.200,166.200,38.380,8.408,193.100,43.810,12.270,3.874,347.900,74.410,21.910,8.033,baseline
1494.000,289.900,65.920,16.220,871.300,168.300,38.060,8.434,194.100,43.950,12.280,3.878,348.000,74.680,22.010,8.014,baseline
1496.000,291.900,65.460,16.400,868.900,167.600,38.420,8.390,194.300,43.880,12.330,3.888,349.000,74.930,22.060,8.115,baseline
1503.000,295.100,66.120,16.440,868.000,167.300,38.190,8.361,189.600,43.960,12.350,3.909,351.700,75.590,22.420,8.198,baseline
1509.000,292.400,66.430,16.580,880.600,169.200,38.510,8.506,193.500,44.530,12.440,3.939,355.000,76.290,22.580,8.280,baseline
1517.000,298.800,67.300,16.710,876.700,168.400,38.100,8.434,195.700,44.280,12.500,3.932,355.600,76.660,22.680,8.328,baseline
1523.000,299.500,66.470,16.880,880.800,168.200,38.270,8.358,193.400,44.660,12.510,3.958,356.300,76.580,22.480,8.171,baseline
1489.000,287.200,64.320,16.080,873.400,164.600,37.520,8.305,193.300,44.070,12.310,3.879,348.200,74.240,21.990,8.003,baseline
1484.000,288.100,64.750,16.150,867.100,165.200,37.480,8.325,193.000,43.620,12.220,3.880,348.700,74.250,22.000,7.975,baseline
1483.000,288.600,64.840,16.130,866.500,166.000,37.770,8.276,191.600,43.870,12.330,3.877,348.500,74.510,22.030,8.024,baseline
1486.000,288.300,64.000,16.250,862.900,166.500,38.010,8.360,191.300,43.610,12.300,3.887,349.100,74.460,22.000,8.055,baseline
1486.000,286.200,64.930,16.290,859.400,166.700,37.660,8.352,193.700,43.720,12.310,3.883,350.500,74.970,22.080,8.087,baseline
1493.000,290.800,66.010,16.350,870.500,166.800,37.990,8.338,194.500,44.270,12.370,3.898,351.600,75.700,22.290,8.182,baseline
1500.000,293.000,65.510,16.500,876.500,167.500,38.500,8.336,192.900,43.760,12.400,3.915,355.100,76.320,22.610,8.256,baseline
1509.000,295.400,65.500,16.540,874.600,166.800,38.210,8.433,196.000,44.020,12.450,3.928,356.800,76.630,22.820,8.319,baseline
1511.000,295.000,66.540,16.340,873.000,168.200,37.690,8.276,195.700,44.440,12.500,3.920,351.400,74.960,22.070,8.051,baseline
1476.000,285.400,63.910,15.980,866.300,165.800,37.610,8.298,192.400,43.630,12.250,3.868,346.500,73.920,21.780,7.911,baseline
1472.000,285.200,64.040,15.960,859.200,165.500,37.720,8.247,188.400,43.740,12.210,3.845,346.000,73.630,21.800,7.918,baseline
1474.000,287.300,63.580,15.960,867.100,165.500,37.850,8.350,192.100,43.610,12.260,3.858,347.000,74.110,21.950,7.978,baseline
1479.000,286.200,64.410,15.950,868.500,166.600,37.680,8.277,192.900,44.230,12.220,3.862,347.500,74.360,21.960,7.997,baseline
1481.000,285.200,64.570,16.010,869.200,166.900,38.110,8.383,192.400,43.930,12.350,3.883,349.100,74.520,22.100,8.078,baseline
1487.000,290.600,64.500,16.200,867.300,167.100,38.030,8.355,194.200,44.280,12.350,3.900,350.200,75.350,22.270,8.159,baseline
1495.000,289.600,65.890,16.380,871.100,168.200,38.090,8.448,194.300,44.000,12.430,3.913,353.100,76.020,22.580,8.267,baseline
1505.000,293.900,65.440,16.530,870.700,168.500,38.510,8.349,196.400,44.390,12.480,3.945,355.100,76.530,22.540,8.230,baseline
1487.000,285.800,63.570,15.940,866.700,164.800,37.140,8.298,193.300,44.070,12.370,3.870,347.400,74.050,21.770,7.919,baseline
1468.000,279.900,63.330,15.750,864.100,165.100,37.390,8.171,191.600,43.580,12.220,3.854,346.200,73.550,21.650,7.893,baseline
1465.000,282.800,63.270,15.780,862.700,166.100,37.660,8.193,193.100,43.500,12.190,3.868,344.500,73.380,21.680,7.927,baseline
1470.000,282.800,63.570,15.860,863.100,165.600,37.520,8.251,191.700,44.080,12.240,3.884,345.100,73.760,21.900,7.973,baseline
1471.000,283.300,64.180,15.960,869.100,166.600,37.670,8.244,193.500,43.370,12.280,3.867,347.500,74.230,21.900,7.968,baseline
1476.000,283.600,64.660,15.970,872.000,166.800,37.910,8.360,192.400,43.600,12.310,3.897,347.900,74.580,22.120,8.062,baseline
1484.000,287.400,63.850,16.100,870.300,167.800,37.980,8.491,194.800,44.220,12.390,3.906,351.000,75.300,22.370,8.166,baseline
1493.000,291.200,64.950,16.200,870.700,169.300,38.020,8.423,192.500,44.410,12.440,3.927,353.300,76.100,22.590,8.262,baseline
1501.000,292.800,65.750,16.310,872.500,168.000,38.070,8.322,193.900,44.320,12.440,3.939,354.300,76.080,22.420,8.079,baseline
1469.000,283.600,64.010,15.710,865.500,164.900,37.560,8.297,193.700,44.040,12.260,3.856,344.800,73.480,21.720,7.911,baseline
1460.000,280.500,63.070,15.600,861.000,166.300,37.320,8.238,191.600,43.490,12.230,3.839,344.500,73.370,21.600,7.857,baseline
1457.000,281.500,62.650,15.550,864.300,165.900,37.490,8.239,189.900,43.160,12.250,3.856,343.700,73.310,21.720,7.878,baseline
1465.000,282.100,63.010,15.720,868.100,165.000,37.330,8.286,191.900,43.850,12.300,3.850,344.100,73.610,21.700,7.883,baseline
1464.000,283.000,63.540,15.740,856.700,164.500,37.660,8.265,191.100,43.860,12.300,3.882,346.100,74.050,21.810,7.949,baseline
1470.000,284.900,64.380,15.850,868.000,166.900,37.890,8.291,191.300,43.830,12.320,3.898,348.200,74.240,21.990,8.042,baseline
1481.000,284.600,63.340,16.150,872.300,166.900,38.360,8.403,194.300,43.920,12.370,3.916,350.100,74.950,22.260,8.113,baseline
1486.000,286.200,64.780,16.200,869.800,167.600,38.190,8.458,192.800,44.310,12.430,3.938,351.400,75.860,22.420,8.238,baseline
1495.000,291.300,64.830,16.420,866.300,165.900,37.480,8.328,195.600,44.480,12.480,3.942,351.800,75.450,22.190,7.976,baseline
1457.000,281.700,62.410,15.590,859.400,165.200,37.300,8.232,191.200,43.760,12.210,3.865,344.300,73.050,21.560,7.827,baseline
1452.000,278.100,61.970,15.490,860.900,164.400,37.400,8.181,189.900,43.570,12.200,3.851,343.000,73.010,21.610,7.821,baseline
1452.000,277.700,62.870,15.530,858.300,164.500,37.330,8.251,189.600,43.740,12.230,3.868,343.300,73.180,21.650,7.864,baseline
1458.000,280.900,63.260,15.660,855.700,164.700,37.550,8.355,191.800,43.930,12.220,3.873,343.500,73.390,21.640,7.892,baseline
1460.000,281.800,63.060,15.670,870.500,164.900,37.960,8.369,193.400,43.640,12.310,3.890,345.800,73.550,21.760,7.904,baseline
1465.000,282.900,62.720,15.730,866.300,165.200,37.580,8.336,192.100,43.710,12.350,3.904,346.200,74.170,21.940,8.035,baseline
1473.000,283.900,63.700,15.920,869.100,166.500,37.890,8.277,192.800,43.790,12.420,3.933,350.200,74.640,22.190,8.107,baseline
1480.000,285.300,63.300,16.050,866.900,166.000,37.970,8.407,194.200,44.730,12.500,3.944,351.000,75.670,22.360,8.148,baseline
1474.000,280.000,63.260,15.650,857.400,164.800,37.220,8.230,193.400,44.220,12.380,3.894,343.700,73.250,21.560,7.854,baseline
1446.000,275.900,61.340,15.560,856.100,166.000,37.170,8.180,191.100,43.950,12.260,3.868,342.400,72.660,21.390,7.818,baseline
1446.000,277.400,62.190,15.600,851.200,164.700,37.070,8.193,192.700,43.660,12.200,3.852,341.700,72.570,21.460,7.834,baseline
1450.000,276.400,61.690,15.540,857.500,165.500,37.520,8.286,191.300,43.540,12.310,3.874,342.600,72.850,21.510,7.833,baseline
1451.000,277.200,62.610,15.570,858.200,163.800,37.620,8.231,193.100,43.770,12.280,3.884,342.800,73.280,21.610,7.844,baseline
1455.000,278.800,63.110,15.580,865.700,165.100,37.400,8.338,192.300,43.630,12.320,3.897,343.000,73.680,21.730,7.922,baseline
1460.000,281.600,62.880,15.750,861.300,166.500,37.770,8.346,192.200,43.800,12.360,3.900,346.900,73.910,21.940,8.020,baseline
1469.000,283.600,64.060,15.990,867.200,166.700,37.820,8.373,192.700,44.190,12.490,3.946,348.600,74.650,22.200,8.090,baseline
1470.000,280.700,62.920,15.630,864.100,164.900,37.360,8.303,191.300,44.210,12.410,3.917,342.200,72.770,21.530,7.770,baseline
1435.000,276.700,61.820,15.310,855.600,164.000,37.110,8.217,192.700,43.140,12.230,3.855,338.600,71.920,21.270,7.764,baseline
1433.000,274.200,61.250,15.350,859.400,164.200,37.140,8.222,190.800,43.440,12.180,3.867,337.300,71.760,21.210,7.717,baseline
1435.000,274.000,60.720,15.340,857.500,162.800,37.170,8.251,190.700,43.910,12.190,3.876,338.700,72.050,21.270,7.756,baseline
1438.000,275.600,61.660,15.440,863.100,164.400,37.040,8.273,189.000,43.620,12.250,3.875,338.900,72.180,21.330,7.777,baseline
1442.000,279.000,61.710,15.560,843.600,164.400,37.370,8.244,191.100,43.530,12.310,3.883,340.500,72.530,21.500,7.861,baseline
1449.000,278.300,62.020,15.540,860.100,164.200,37.300,8.285,192.500,43.990,12.290,3.914,342.500,73.470,21.670,7.952,baseline
1458.000,279.500,62.960,15.700,860.300,166.000,37.780,8.361,193.200,44.420,12.420,3.925,344.000,73.800,21.880,8.002,baseline
1462.000,282.900,62.950,15.620,851.600,163.300,37.140,8.109,194.200,43.890,12.370,3.913,341.100,72.710,21.380,7.778,baseline
1427.000,272.600,60.800,15.190,850.500,163.800,36.720,8.146,188.800,43.490,12.150,3.858,335.900,71.330,21.080,7.648,baseline
1425.000,271.800,60.860,15.180,847.200,163.300,36.670,8.201,190.300,43.640,12.160,3.849,334.500,71.000,21.070,7.684,baseline
1426.000,274.900,61.130,15.190,848.200,163.500,36.620,8.199,190.400,43.340,12.210,3.858,336.600,71.800,21.150,7.703,baseline
1429.000,273.100,60.970,15.460,853.600,164.900,37.310,8.079,191.500,43.500,12.210,3.867,337.000,71.660,21.250,7.732,baseline
1432.000,272.400,62.010,15.250,847.800,163.700,37.320,8.233,191.600,43.320,12.270,3.900,338.600,72.100,21.530,7.817,baseline
1441.000,278.400,61.650,15.490,854.700,163.600,37.120,8.232,191.700,43.390,12.320,3.908,340.500,72.810,21.630,7.906,baseline
1448.000,278.600,62.340,15.650,854.800,163.900,37.430,8.278,192.800,43.710,12.350,3.925,342.700,73.660,21.890,7.979,baseline
1455.000,279.900,63.080,15.800,857.100,164.600,37.450,8.210,193.800,44.050,12.480,3.935,344.000,73.420,21.680,7.881,baseline
1428.000,275.600,60.350,15.170,842.700,162.400,36.590,8.071,192.700,43.570,12.250,3.880,336.200,71.310,20.980,7.708,baseline
1417.000,269.500,60.050,15.130,847.300,160.700,36.560,8.118,191.000,43.470,12.170,3.848,335.000,70.850,21.040,7.651,baseline
1417.000,270.600,60.730,15.240,846.100,160.700,36.640,8.151,191.400,43.200,12.220,3.855,335.100,71.510,21.130,7.716,baseline
1447.000,278.500,62.990,15.760,846.800,163.900,37.550,8.278,193.700,43.870,12.420,3.945,343.400,73.590,22.080,8.014,easy
1455.000,279.000,62.580,15.490,845.700,162.500,37.100,8.123,191.400,44.160,12.430,3.911,339.500,72.450,21.360,7.748,easy
1417.000,269.800,60.040,15.220,841.300,161.000,36.780,8.041,190.100,43.290,12.170,3.851,335.000,71.040,20.970,7.674,easy
1417.000,273.300,60.740,15.130,840.500,160.900,36.660,8.027,189.900,43.040,12.220,3.848,333.500,71.080,21.020,7.643,easy
1417.000,273.200,60.240,15.300,838.000,161.100,36.870,8.052,190.000,43.240,12.200,3.868,335.500,71.280,21.100,7.678,easy
1422.000,274.900,61.450,15.200,845.500,160.600,36.710,8.059,189.100,43.600,12.220,3.868,337.000,71.800,21.230,7.751,easy
1427.000,273.500,61.740,15.360,847.500,162.400,36.460,8.173,190.500,43.450,12.260,3.875,338.300,72.030,21.420,7.794,easy
1433.000,273.200,61.760,15.510,845.000,163.000,37.330,8.073,191.800,43.690,12.280,3.905,340.200,72.780,21.580,7.864,easy
1443.000,277.200,63.380,15.740,857.000,163.600,37.060,8.237,193.900,44.140,12.310,3.901,342.300,73.390,21.860,7.996,easy
1450.000,279.000,63.300,15.690,844.500,162.600,37.410,8.243,193.400,43.990,12.410,3.947,344.300,74.030,21.920,7.978,easy
1437.000,273.200,61.870,15.300,840.800,161.000,36.780,8.053,192.700,43.380,12.290,3.880,338.000,71.820,21.200,7.715,easy
1419.000,268.600,61.650,15.180,847.200,161.100,36.400,7.995,191.000,43.180,12.190,3.859,336.200,71.840,21.150,7.725,easy
1419.000,271.200,61.080,15.230,840.500,161.000,36.700,8.067,189.400,43.440,12.140,3.852,337.100,71.610,21.320,7.737,easy
1422.000,271.900,60.780,15.290,843.200,162.300,36.650,8.051,191.700,43.280,12.200,3.869,337.600,71.990,21.290,7.743,easy
1425.000,272.800,60.470,15.340,841.900,161.000,36.880,8.057,190.900,43.660,12.220,3.870,338.200,72.140,21.450,7.826,easy
1432.000,277.100,61.870,15.510,844.200,162.100,37.060,8.098,192.100,43.420,12.250,3.875,339.800,72.710,21.480,7.868,easy
1439.000,276.200,62.610,15.710,856.100,163.600,37.260,8.117,192.000,43.700,12.370,3.913,342.300,73.530,21.830,7.952,easy
1446.000,277.900,62.550,15.780,854.500,163.600,37.440,8.165,193.000,44.400,12.360,3.918,344.300,74.020,22.050,8.019,easy
1454.000,281.200,62.310,15.660,854.500,160.700,36.730,8.091,195.300,44.150,12.430,3.914,340.700,72.530,21.420,7.803,easy
1419.000,271.400,60.800,15.030,842.500,161.300,36.860,8.009,190.400,43.460,12.210,3.858,336.200,71.380,21.170,7.717,easy
1419.000,270.200,61.130,15.200,840.600,161.500,36.720,8.091,189.400,43.330,12.170,3.849,336.100,71.260,21.150,7.676,easy
1417.000,271.600,60.530,15.280,845.900,162.100,36.830,8.079,191.500,43.400,12.220,3.864,335.900,71.590,21.200,7.764,easy
1423.000,272.400,61.030,15.330,843.200,162.500,36.590,8.074,191.700,42.960,12.270,3.857,337.000,71.760,21.200,7.754,easy
1427.000,270.200,61.690,15.310,841.800,161.300,37.120,8.059,190.100,43.600,12.280,3.872,338.100,72.210,21.360,7.847,easy
1434.000,277.900,61.990,15.390,839.100,162.700,37.010,8.186,191.700,43.830,12.320,3.880,340.700,72.920,21.660,7.915,easy
1441.000,277.700,62.310,15.660,850.100,162.700,37.050,8.170,192.700,43.690,12.390,3.901,343.100,73.480,21.850,7.994,easy
1448.000,280.400,62.760,15.760,854.300,164.800,36.810,8.175,193.500,44.160,12.430,3.919,344.300,73.700,21.800,7.930,easy
1428.000,273.600,60.920,15.190,845.500,161.600,37.090,8.090,191.000,43.500,12.230,3.856,336.200,71.420,21.090,7.682,easy
1416.000,273.300,60.640,15.130,839.500,161.100,36.360,8.019,188.300,43.720,12.220,3.837,335.500,70.950,21.070,7.649,easy
1414.000,272.000,60.570,15.150,845.100,160.200,36.430,8.083,189.200,43.320,12.150,3.842,335.000,71.260,21.130,7.703,easy
1419.000,272.400,61.160,15.320,845.700,162.600,36.990,8.065,189.900,43.460,12.190,3.857,335.700,71.510,21.150,7.672,easy
1424.000,270.100,62.280,15.420,841.700,163.700,36.830,8.082,191.100,43.380,12.240,3.852,336.900,71.680,21.370,7.768,easy
1428.000,272.600,61.290,15.360,853.100,162.200,36.990,8.119,192.000,43.720,12.280,3.876,339.900,72.460,21.480,7.874,easy
1435.000,275.900,62.250,15.500,850.200,163.400,37.040,8.209,191.200,43.710,12.300,3.898,341.800,73.120,21.690,7.941,easy
1443.000,277.300,62.540,15.740,851.300,163.600,37.340,8.232,194.200,44.250,12.420,3.926,343.500,73.760,22.000,8.021,easy
1452.000,278.400,63.000,15.440,851.200,163.800,36.740,8.082,194.500,44.180,12.370,3.908,339.000,72.370,21.270,7.748,easy
1416.000,271.000,60.760,15.070,839.900,159.900,36.660,8.044,192.800,43.300,12.200,3.849,334.800,71.390,20.940,7.674,easy
1418.000,272.200,60.870,15.070,837.100,161.900,36.860,8.019,189.700,43.540,12.170,3.864,335.400,71.510,21.060,7.658,easy
1417.000,272.800,60.460,15.310,845.100,161.700,37.030,8.022,191.300,43.590,12.210,3.873,337.200,71.880,21.150,7.735,easy
1423.000,271.700,61.690,15.370,850.800,162.000,36.560,8.091,189.400,43.540,12.250,3.861,338.300,71.830,21.180,7.754,easy
1428.000,274.600,61.790,15.480,850.100,162.200,36.640,8.188,193.300,43.810,12.270,3.883,339.200,72.380,21.410,7.828,easy
1436.000,276.800,61.400,15.570,851.500,162.200,37.380,8.250,192.900,43.830,12.350,3.920,341.600,72.840,21.670,7.913,easy
1444.000,280.300,62.890,15.680,855.000,163.600,37.650,8.260,190.300,43.920,12.420,3.922,343.600,73.810,21.760,7.967,easy
1452.000,280.300,62.960,15.840,851.700,163.800,37.610,8.269,192.200,44.370,12.470,3.931,346.900,74.470,22.090,8.081,easy
1456.000,282.900,62.420,15.510,840.700,161.300,36.890,8.068,192.600,44.060,12.480,3.913,341.500,72.540,21.320,7.758,easy
1424.000,272.400,61.350,15.320,842.400,162.400,36.590,8.108,188.900,43.850,12.180,3.867,337.300,71.990,21.220,7.727,easy
1425.000,274.700,61.130,15.380,852.900,161.300,36.760,8.109,193.000,43.550,12.250,3.857,338.100,71.680,21.110,7.709,easy
1429.000,276.100,61.420,15.480,842.300,161.500,37.220,8.192,191.300,43.150,12.300,3.876,340.500,72.480,21.340,7.750,easy
1434.000,277.500,61.530,15.570,853.800,162.100,36.750,8.129,192.800,44.050,12.280,3.885,340.700,72.480,21.410,7.832,easy
1438.000,278.600,61.800,15.590,847.000,162.600,37.370,8.135,194.800,43.880,12.310,3.912,342.000,73.200,21.550,7.908,easy
1446.000,281.900,63.080,15.720,854.900,162.900,36.870,8.215,193.500,44.110,12.390,3.934,345.500,73.840,21.890,8.006,easy
1454.000,281.700,63.650,15.860,853.000,163.600,37.850,8.198,192.400,44.230,12.470,3.945,347.500,74.600,22.050,8.092,easy
1464.000,285.700,63.990,16.110,859.000,165.300,37.470,8.282,192.900,44.470,12.530,3.973,350.400,75.060,22.300,8.113,easy
1464.000,279.900,62.890,15.720,850.100,163.700,37.050,8.143,194.500,44.700,12.410,3.926,342.600,73.030,21.530,7.804,easy
1438.000,275.800,61.530,15.750,847.200,162.900,36.970,8.102,193.700,43.790,12.250,3.903,341.800,72.850,21.490,7.835,easy
1443.000,276.100,61.670,15.610,852.800,162.200,36.910,8.142,191.800,44.090,12.330,3.897,342.500,72.880,21.520,7.862,easy
1446.000,279.600,62.920,15.690,858.400,162.200,37.290,8.137,193.100,44.030,12.390,3.920,344.400,73.100,21.660,7.870,easy
1453.000,279.600,63.170,15.890,860.500,163.700,37.380,8.186,194.900,44.290,12.430,3.935,344.100,73.840,21.770,7.917,easy
1456.000,281.600,63.140,15.870,860.000,164.100,37.530,8.165,193.700,44.280,12.450,3.951,346.900,74.290,21.910,8.006,easy
1464.000,280.200,63.330,16.040,859.100,164.900,37.790,8.300,196.300,44.280,12.510,3.974,349.300,74.970,22.190,8.081,easy
1471.000,286.000,64.610,16.220,859.300,165.800,37.510,8.373,195.700,44.500,12.550,3.996,352.500,75.480,22.390,8.193,easy
1477.000,288.000,64.710,16.330,862.600,165.000,37.760,8.257,196.100,44.790,12.650,3.997,353.100,75.710,22.420,8.096,easy
1459.000,278.300,63.390,15.700,854.000,162.900,37.310,8.205,193.800,44.390,12.490,3.913,345.400,73.320,21.770,7.918,easy
1449.000,280.800,62.770,15.710,854.700,164.000,37.300,8.256,196.000,44.070,12.410,3.927,345.000,73.470,21.740,7.879,easy
1454.000,283.100,62.670,15.780,860.100,164.200,37.350,8.203,193.300,44.320,12.410,3.927,345.100,73.460,21.790,7.951,easy
1458.000,281.300,62.510,15.890,858.100,164.600,37.870,8.280,195.900,44.190,12.450,3.933,347.500,73.880,21.930,7.987,easy
1461.000,281.300,63.590,15.880,858.100,164.800,37.580,8.264,193.500,44.100,12.470,3.946,347.000,74.250,22.040,7.998,easy
1467.000,284.600,64.150,15.940,862.400,165.500,37.600,8.288,193.200,44.840,12.560,3.970,350.100,74.650,22.260,8.123,easy
1475.000,288.000,64.100,16.180,862.200,166.800,37.490,8.265,195.600,44.680,12.580,3.982,352.800,75.830,22.460,8.185,easy
1484.000,290.300,64.780,16.230,861.600,167.100,37.750,8.359,196.100,44.680,12.680,4.004,355.500,76.400,22.560,8.305,easy
1490.000,289.100,64.030,16.200,863.100,165.300,37.430,8.215,197.900,44.660,12.660,3.975,350.500,74.500,21.920,8.013,easy
1457.000,281.400,63.430,15.820,854.200,164.400,37.370,8.141,194.700,44.120,12.450,3.935,347.200,73.850,21.760,7.951,easy
1462.000,282.300,62.840,15.830,855.800,165.900,37.780,8.214,195.700,44.130,12.470,3.932,346.100,73.560,21.780,7.921,easy
1463.000,280.600,63.660,15.900,860.800,164.900,37.790,8.257,194.800,44.660,12.440,3.949,347.100,74.310,21.900,7.995,easy
1468.000,284.600,64.230,15.870,862.100,166.600,37.710,8.282,194.300,44.270,12.510,3.963,347.700,74.160,21.930,7.983,easy
1470.000,286.000,63.650,15.870,861.300,165.200,37.890,8.235,193.300,44.520,12.540,3.958,349.100,74.650,22.140,8.078,easy
1478.000,285.500,64.550,16.040,860.900,165.600,37.830,8.348,198.300,44.920,12.570,3.992,352.000,75.170,22.300,8.160,easy
1486.000,288.300,65.190,16.420,863.800,167.300,37.950,8.307,197.500,44.530,12.600,4.001,355.000,75.620,22.600,8.266,easy
1492.000,292.100,65.250,16.460,868.800,166.800,38.360,8.376,197.700,44.790,12.660,4.030,356.100,76.480,22.530,8.242,easy
1476.000,283.800,63.610,15.850,857.100,165.900,37.270,8.224,193.300,44.360,12.600,3.954,348.800,73.740,21.770,7.946,easy
1464.000,281.300,63.790,15.870,859.400,164.300,37.440,8.254,195.400,44.290,12.420,3.953,347.700,73.760,21.670,7.936,easy
1465.000,282.600,63.920,15.870,862.800,166.200,37.730,8.335,193.400,44.120,12.410,3.956,347.100,73.770,21.830,7.961,easy
1470.000,283.200,63.570,15.850,865.200,166.300,37.510,8.270,195.900,44.530,12.470,3.951,348.100,74.050,21.810,7.989,easy
1471.000,284.600,63.800,15.990,862.500,166.400,37.900,8.324,197.000,44.510,12.470,3.980,348.100,74.390,22.010,8.043,easy
1476.000,284.800,63.720,16.070,858.000,165.000,37.640,8.244,194.200,44.860,12.580,3.983,351.300,74.870,22.040,8.140,easy
1483.000,288.600,64.930,16.220,865.900,167.600,37.990,8.392,196.100,44.820,12.610,4.021,353.200,75.590,22.410,8.231,easy
1492.000,288.100,65.360,16.350,871.900,167.800,37.980,8.320,197.700,44.640,12.700,4.027,354.400,76.310,22.470,8.329,easy
1501.000,292.100,65.680,16.380,875.300,168.400,38.120,8.380,199.200,45.280,12.640,4.024,355.400,76.210,22.470,8.163,easy
1472.000,282.500,63.210,15.930,858.100,165.000,37.650,8.287,192.600,44.200,12.490,3.948,348.200,73.730,21.810,7.974,easy
1465.000,283.900,64.130,15.980,859.500,165.900,37.480,8.292,194.800,44.220,12.470,3.952,346.000,73.350,21.750,7.900,easy
1468.000,283.500,63.880,15.920,853.100,166.000,37.930,8.253,194.100,44.130,12.450,3.957,347.300,73.760,21.780,7.977,easy
1473.000,286.200,64.590,15.900,861.700,166.600,37.680,8.226,194.900,44.350,12.510,3.980,347.300,73.850,21.820,8.030,easy
1475.000,287.800,64.270,16.040,857.300,165.000,37.370,8.251,195.800,44.300,12.500,3.967,349.200,74.320,21.930,8.035,easy
1481.000,283.900,64.290,16.410,862.500,166.700,37.910,8.257,195.300,44.570,12.580,3.985,350.400,74.900,22.170,8.155,easy
1488.000,287.500,65.260,16.390,866.100,167.900,38.240,8.344,197.500,44.800,12.610,4.007,353.000,75.600,22.420,8.237,easy
1496.000,295.500,66.230,16.560,872.700,167.600,37.930,8.369,196.100,44.740,12.670,4.021,355.300,76.120,22.580,8.332,easy
1504.000,294.300,66.770,16.530,880.200,166.900,38.190,8.367,194.800,45.100,12.660,4.055,355.600,76.290,22.540,8.240,easy
1482.000,286.800,63.980,16.030,861.100,164.100,37.970,8.236,193.300,44.620,12.550,3.972,347.800,73.640,21.720,7.992,easy
1472.000,287.000,64.400,16.000,867.300,165.800,37.530,8.284,194.200,44.220,12.460,3.954,347.500,73.600,21.670,7.944,easy
1474.000,287.600,63.980,15.990,869.000,165.200,37.410,8.319,193.200,44.460,12.500,3.984,347.400,73.710,21.910,8.005,easy
1480.000,290.100,64.340,16.190,863.500,165.800,37.480,8.223,196.400,44.450,12.520,3.959,347.600,73.830,21.930,8.003,easy
1480.000,286.600,64.640,16.120,864.800,167.200,37.830,8.298,194.600,44.300,12.490,3.974,348.900,74.000,21.930,8.046,easy
1485.000,291.200,64.850,16.260,866.000,166.900,37.690,8.285,193.900,44.280,12.550,3.982,350.100,74.460,22.100,8.193,easy
1493.000,291.300,65.110,16.450,875.300,167.800,38.100,8.421,198.200,44.620,12.630,4.006,352.100,75.000,22.370,8.197,easy
1499.000,291.400,65.370,16.500,870.900,167.400,38.110,8.460,195.600,44.810,12.640,4.042,354.400,75.850,22.460,8.300,easy
1507.000,290.100,66.310,16.620,872.700,167.400,38.260,8.334,198.100,45.300,12.680,4.014,353.100,75.460,22.180,8.093,easy
1477.000,285.200,64.310,16.200,862.600,165.600,37.780,8.228,195.600,44.280,12.430,3.947,345.400,73.260,21.640,7.940,easy
1474.000,283.000,64.060,15.910,860.700,166.100,37.450,8.285,195.300,44.190,12.420,3.945,345.800,73.140,21.630,7.903,easy
1473.000,285.300,64.890,15.940,876.200,165.200,37.740,8.290,194.300,44.300,12.460,3.966,345.400,73.600,21.680,7.938,easy
1478.000,286.500,64.240,15.990,859.800,165.700,37.630,8.344,194.600,44.150,12.550,3.960,346.200,73.250,21.650,7.980,easy
1479.000,286.000,64.730,15.980,862.600,167.300,37.920,8.373,196.000,44.240,12.530,3.990,346.800,73.510,21.760,8.013,easy
1488.000,287.800,65.440,16.160,869.400,165.900,37.940,8.357,194.800,44.610,12.550,3.995,349.000,74.130,22.000,8.087,easy
1495.000,293.000,65.750,16.470,865.900,168.100,38.080,8.382,194.700,44.550,12.590,4.004,350.500,74.880,22.170,8.161,easy
1504.000,294.400,65.670,16.550,869.500,167.700,38.410,8.447,196.000,44.740,12.690,4.022,353.100,75.320,22.290,8.211,easy
1501.000,285.400,65.120,16.160,861.400,167.400,37.380,8.357,197.800,45.020,12.600,3.991,347.000,73.420,21.690,7.895,easy
1474.000,286.800,63.830,16.050,854.900,164.700,37.820,8.233,191.500,43.940,12.440,3.953,343.300,72.730,21.320,7.856,easy
1472.000,284.500,63.620,16.010,860.400,166.900,37.900,8.360,189.400,43.920,12.410,3.943,342.800,72.650,21.340,7.847,easy
1477.000,286.400,63.760,16.150,860.100,167.000,37.410,8.306,194.900,44.390,12.500,3.965,343.900,72.840,21.440,7.861,easy
1479.000,287.700,64.290,16.100,862.800,167.100,37.890,8.308,194.500,44.170,12.480,3.969,343.500,72.920,21.540,7.883,easy
1482.000,289.500,65.780,16.260,867.900,166.200,38.220,8.409,195.800,44.470,12.540,3.986,345.700,73.520,21.740,7.967,easy
1488.000,291.000,65.420,16.440,869.500,167.800,38.230,8.412,195.400,44.500,12.570,4.017,347.700,74.240,21.960,8.055,easy
1497.000,290.500,65.450,16.490,868.500,167.500,38.390,8.387,196.200,44.370,12.680,4.027,349.600,74.630,22.180,8.130,easy
1506.000,293.000,66.090,16.610,879.300,167.500,38.590,8.384,193.700,44.830,12.690,4.045,351.300,75.510,22.180,8.097,easy
1487.000,288.400,64.670,16.000,862.800,165.200,37.600,8.328,196.600,44.700,12.530,3.976,344.200,72.890,21.470,7.835,easy
1476.000,284.900,64.850,16.000,865.300,166.600,37.740,8.277,196.300,43.850,12.450,3.955,340.100,72.370,21.270,7.817,easy
1475.000,287.600,64.650,16.000,867.600,166.900,37.590,8.322,193.500,43.960,12.400,3.968,341.300,72.180,21.270,7.835,easy
1478.000,285.200,65.280,16.070,856.500,166.400,38.170,8.278,193.000,44.330,12.500,3.960,342.700,72.560,21.380,7.810,easy
1479.000,289.100,64.660,16.110,870.000,164.500,37.610,8.333,194.400,44.190,12.510,3.985,343.600,73.060,21.470,7.882,easy
1485.000,290.700,65.220,16.280,867.400,167.500,38.260,8.336,194.700,44.300,12.530,4.000,345.700,73.490,21.650,7.941,easy
1493.000,291.800,66.060,16.380,866.900,166.800,37.630,8.417,193.900,44.500,12.610,4.023,347.100,74.150,21.900,8.014,easy
1499.000,293.900,66.120,16.540,869.800,167.300,38.120,8.512,194.100,44.310,12.690,4.031,348.900,74.740,22.180,8.136,easy
1510.000,297.200,66.440,16.650,876.700,168.100,38.090,8.323,198.100,44.680,12.690,4.039,349.600,74.760,21.890,7.970,easy
1484.000,287.700,64.050,15.920,869.000,166.500,37.630,8.340,195.300,44.220,12.520,3.993,341.500,72.560,21.280,7.815,easy
1478.000,286.800,64.590,15.910,859.700,165.500,37.570,8.295,193.500,44.430,12.490,3.980,340.300,72.290,21.230,7.753,easy
1476.000,287.500,64.000,15.990,859.100,165.700,37.260,8.337,195.700,44.260,12.510,3.987,342.600,72.430,21.310,7.794,easy
1482.000,287.700,64.570,16.110,858.400,166.300,37.920,8.330,195.600,44.490,12.520,3.986,343.300,72.600,21.430,7.831,easy
1485.000,285.800,65.330,16.140,866.400,166.600,37.970,8.322,194.900,44.460,12.550,3.988,343.100,72.730,21.500,7.885,easy
1492.000,289.400,65.570,16.360,876.500,167.300,37.840,8.354,195.100,44.670,12.540,4.009,345.000,73.630,21.690,7.950,easy
1498.000,292.200,65.510,16.510,865.900,169.100,38.130,8.481,198.100,44.610,12.620,4.028,347.200,74.490,21.840,8.083,easy
1505.000,293.000,66.530,16.560,873.700,166.700,38.090,8.371,194.000,44.580,12.740,4.037,350.200,74.870,22.080,8.079,easy
1497.000,289.200,64.360,16.120,861.900,166.000,37.930,8.284,194.900,44.530,12.570,4.016,342.900,72.440,21.310,7.772,easy
1480.000,291.600,65.110,16.130,862.400,166.800,37.850,8.372,194.400,44.200,12.560,3.961,341.300,72.210,21.300,7.760,easy
1479.000,286.800,63.540,16.090,866.000,166.000,38.010,8.322,193.700,43.920,12.490,3.987,342.200,72.390,21.440,7.805,easy
1485.000,287.700,64.670,16.270,868.000,165.700,38.120,8.392,196.000,44.570,12.560,3.992,343.600,72.930,21.350,7.815,easy
1489.000,289.600,64.460,16.210,868.200,168.100,38.020,8.441,195.800,44.440,12.540,4.003,342.300,72.720,21.390,7.874,easy
1494.000,289.400,64.810,16.320,874.100,167.400,38.480,8.442,195.300,44.600,12.640,4.017,345.400,73.170,21.650,7.999,easy
1498.000,292.100,66.530,16.290,871.100,167.400,38.460,8.397,197.200,44.870,12.700,4.047,348.000,74.020,21.780,8.037,easy
1504.000,293.400,65.800,16.570,865.900,167.600,38.400,8.569,196.600,44.790,12.760,4.052,349.800,74.740,22.010,8.080,easy
1507.000,293.600,66.050,16.330,863.700,168.200,37.730,8.366,196.000,45.130,12.740,4.047,345.800,73.190,21.470,7.842,easy
1480.000,289.900,63.590,16.120,870.100,166.400,37.690,8.374,193.700,44.440,12.510,3.982,340.200,72.340,21.250,7.748,easy
1480.000,288.800,64.770,16.070,857.800,167.300,38.090,8.342,194.800,44.240,12.530,3.976,340.300,72.160,21.100,7.738,easy
1482.000,288.700,64.220,15.920,863.300,166.000,38.070,8.437,194.200,44.690,12.540,3.997,341.100,72.050,21.200,7.772,easy
1486.000,289.000,64.750,16.020,861.500,167.200,38.110,8.341,197.400,44.440,12.570,4.010,341.700,72.210,21.310,7.787,easy
1488.000,287.100,64.270,16.220,870.400,168.100,38.000,8.426,195.400,44.350,12.620,4.029,343.300,72.580,21.450,7.858,easy
1494.000,291.500,65.870,16.400,882.200,169.600,38.580,8.540,198.800,44.630,12.670,4.030,344.700,73.270,21.580,7.939,easy
1501.000,293.800,66.110,16.420,877.400,168.700,38.490,8.511,195.900,45.110,12.690,4.071,348.300,74.250,21.820,8.023,easy
1508.000,293.300,66.380,16.330,871.700,166.200,37.820,8.348,193.500,44.810,12.760,4.046,344.500,72.940,21.360,7.804,easy
1478.000,290.000,63.960,15.870,853.600,165.700,37.940,8.280,197.100,44.470,12.550,3.998,339.700,71.850,21.080,7.676,easy
1477.000,286.000,64.240,15.900,854.100,167.800,37.780,8.395,194.300,44.310,12.540,3.995,339.100,71.500,21.110,7.648,easy
1479.000,288.300,65.390,16.010,863.400,168.200,38.430,8.379,193.700,44.050,12.550,4.012,340.000,71.970,21.090,7.717,easy
1484.000,290.800,63.760,15.870,868.200,167.300,38.130,8.355,196.500,44.430,12.560,3.997,339.500,72.220,21.190,7.758,easy
1485.000,287.900,65.260,16.070,867.500,168.300,38.110,8.394,192.600,44.720,12.660,4.016,341.800,72.360,21.280,7.806,easy
1493.000,292.400,65.510,16.240,864.600,168.200,38.530,8.438,196.800,44.410,12.680,4.040,343.100,73.350,21.640,7.864,easy
1500.000,290.400,65.770,16.530,876.600,168.100,38.260,8.484,195.500,45.090,12.720,4.068,346.700,73.860,21.910,8.001,easy
1508.000,293.400,65.380,16.330,876.200,168.400,38.540,8.444,197.700,45.250,12.840,4.077,348.500,74.070,21.750,7.896,easy
1489.000,287.000,64.470,15.970,865.500,165.900,38.340,8.397,196.000,44.930,12.570,4.006,340.200,71.890,21.040,7.652,easy
1477.000,286.900,64.080,16.010,861.200,166.600,37.810,8.333,193.900,44.430,12.560,3.998,339.700,71.780,21.040,7.642,easy
1477.000,286.700,64.300,15.880,866.400,166.900,38.180,8.437,194.800,44.430,12.620,4.009,339.300,71.530,21.070,7.687,easy
1483.000,289.700,65.230,16.020,864.000,167.700,38.290,8.395,192.500,44.670,12.660,4.013,340.300,72.100,21.200,7.710,easy
1483.000,287.400,64.660,16.140,867.000,167.500,38.570,8.548,194.000,44.660,12.670,4.022,342.000,72.420,21.310,7.780,easy
1490.000,288.900,65.030,16.190,870.300,167.000,38.360,8.451,195.100,44.820,12.670,4.051,343.700,73.010,21.500,7.852,easy
1497.000,291.100,65.620,16.420,871.600,168.400,38.370,8.542,197.100,44.790,12.750,4.072,346.100,73.710,21.710,7.951,easy
1504.000,294.100,65.770,16.460,871.100,167.600,38.260,8.466,196.700,45.060,12.770,4.075,348.000,74.530,21.870,8.016,easy
1511.000,294.700,66.610,16.710,875.500,168.600,38.530,8.440,197.100,45.220,12.830,4.093,349.500,74.840,21.840,7.915,easy
1490.000,289.700,64.570,16.020,874.400,167.000,38.080,8.414,196.100,44.730,12.640,4.049,341.000,72.440,21.170,7.721,easy
1483.000,285.700,64.240,15.900,864.100,166.800,37.960,8.413,196.100,44.320,12.560,4.024,340.900,72.040,21.150,7.683,easy
1482.000,287.500,65.030,15.990,860.000,165.700,37.940,8.387,193.300,44.520,12.570,4.022,341.900,72.360,21.250,7.756,easy
1486.000,288.000,65.060,16.160,868.300,166.500,38.420,8.469,196.300,44.850,12.620,4.036,342.200,72.840,21.280,7.783,easy
1491.000,288.800,65.710,16.080,868.800,165.500,38.520,8.520,194.100,44.660,12.650,4.030,343.200,73.000,21.410,7.881,easy
1495.000,289.600,65.700,16.350,876.500,167.700,38.590,8.529,197.300,44.860,12.700,4.050,345.200,73.590,21.780,7.916,easy
1503.000,291.800,66.060,16.390,870.500,169.300,38.670,8.555,195.900,45.290,12.790,4.065,347.400,74.500,21.920,8.007,easy
1512.000,293.400,67.600,16.480,876.700,170.500,38.680,8.568,196.700,45.040,12.810,4.085,350.300,74.800,22.170,8.106,easy
1520.000,298.100,67.020,16.740,878.100,168.100,38.340,8.504,197.500,45.440,12.880,4.109,351.200,74.840,21.960,7.988,easy
1496.000,291.700,65.730,16.150,865.100,167.900,38.230,8.445,197.500,45.090,12.580,4.022,343.000,73.180,21.410,7.806,easy
1493.000,291.400,65.460,16.040,864.600,167.400,37.750,8.409,195.500,44.800,12.600,4.017,343.800,73.030,21.460,7.782,easy
1491.000,289.500,64.770,16.140,861.200,168.800,38.390,8.417,194.000,44.540,12.650,4.031,344.300,73.360,21.600,7.878,easy
1497.000,293.300,65.350,16.330,874.300,168.800,38.340,8.466,193.700,44.810,12.650,4.043,345.900,73.320,21.630,7.907,easy
1501.000,295.400,65.080,16.350,873.900,168.900,38.750,8.519,194.300,44.750,12.700,4.041,346.700,74.010,21.720,7.975,easy
1506.000,296.200,65.440,16.590,874.400,169.400,38.750,8.540,196.100,44.930,12.760,4.062,347.700,74.440,21.970,8.024,easy
1515.000,296.700,66.600,16.520,875.500,168.100,38.920,8.615,199.200,44.670,12.800,4.064,351.800,74.790,22.230,8.145,easy
1520.000,299.400,67.100,16.670,883.700,169.300,38.910,8.655,198.600,45.210,12.800,4.074,352.900,75.430,22.410,8.206,easy
1520.000,296.200,65.670,16.540,881.600,168.300,38.370,8.545,197.200,45.260,12.740,4.068,348.900,73.920,21.710,7.908,easy
1497.000,289.100,65.440,16.210,873.400,169.500,38.060,8.458,195.200,44.750,12.640,4.025,344.900,73.720,21.590,7.900,easy
1498.000,292.400,65.220,16.270,872.800,167.700,38.190,8.480,197.200,44.560,12.600,4.003,345.800,73.690,21.700,7.919,easy
1502.000,291.700,66.100,16.340,870.600,168.600,38.380,8.512,196.800,44.850,12.630,4.015,347.300,73.810,21.740,7.961,easy
1505.000,293.700,65.790,16.520,874.400,169.600,38.520,8.482,198.700,44.470,12.570,4.026,347.500,74.320,21.870,7.994,easy
1509.000,293.900,66.000,16.490,881.100,169.600,38.530,8.535,195.700,44.840,12.680,4.026,349.900,74.530,22.060,8.065,easy
1515.000,294.500,66.770,16.460,879.000,170.300,38.950,8.527,196.500,45.230,12.740,4.066,352.100,75.470,22.240,8.135,easy
1521.000,298.900,67.250,16.800,880.100,169.300,38.770,8.507,198.500,45.050,12.810,4.067,353.700,75.780,22.540,8.239,easy
1527.000,298.300,67.740,16.910,878.700,170.100,38.370,8.397,196.500,45.210,12.830,4.078,354.500,75.170,22.250,8.042,easy
1504.000,295.300,65.810,16.450,877.900,168.300,38.480,8.423,195.800,44.630,12.590,3.983,347.100,73.880,21.680,7.932,easy
1502.000,291.200,65.700,16.390,866.600,169.600,38.500,8.436,195.500,44.500,12.540,3.993,347.400,73.560,21.690,7.865,easy
1502.000,293.500,65.320,16.350,873.800,170.000,38.060,8.435,191.700,44.440,12.540,3.997,346.700,73.850,21.830,7.972,easy
1507.000,295.200,66.360,16.290,879.300,169.900,38.670,8.473,193.200,44.320,12.550,3.993,347.900,73.940,21.850,7.958,easy
1509.000,296.600,66.540,16.410,876.700,168.900,38.630,8.419,195.100,44.550,12.580,3.984,349.100,74.690,21.840,8.052,easy
1513.000,294.100,67.050,16.580,882.500,168.300,38.670,8.480,195.300,44.770,12.660,4.002,351.400,75.180,22.200,8.136,easy
1521.000,296.600,67.250,16.740,881.700,169.700,39.130,8.452,195.200,44.990,12.710,4.032,352.800,75.750,22.430,8.244,easy
1529.000,298.000,67.960,16.940,876.300,171.200,39.040,8.494,194.300,45.210,12.740,4.049,355.200,76.080,22.460,8.222,easy
1523.000,294.100,65.890,16.500,866.800,167.900,38.200,8.327,197.800,44.840,12.640,4.002,348.000,74.330,21.760,7.968,easy
1504.000,290.800,64.830,16.450,872.600,167.700,38.250,8.386,193.200,44.600,12.490,3.988,346.400,73.870,21.850,7.940,easy
1502.000,295.200,65.050,16.500,873.200,168.600,38.060,8.392,194.900,44.330,12.550,3.967,346.100,73.650,21.790,7.968,easy
1506.000,295.500,65.750,16.460,872.500,168.800,38.490,8.373,195.100,44.600,12.530,3.968,348.400,74.200,21.850,7.992,easy
1509.000,289.800,65.400,16.470,869.300,168.300,38.710,8.431,196.700,44.550,12.620,3.976,348.600,74.300,22.010,8.040,easy
1515.000,294.900,66.110,16.700,877.500,169.000,38.490,8.558,195.600,44.660,12.530,4.008,350.900,74.610,22.140,8.145,easy
1520.000,298.500,67.980,16.660,872.400,170.000,38.630,8.492,197.500,45.040,12.630,4.001,352.900,75.750,22.380,8.212,easy
1527.000,297.600,67.790,16.960,877.300,170.300,38.510,8.457,196.900,44.870,12.690,4.025,355.100,76.460,22.610,8.305,easy
1537.000,298.100,68.450,16.880,876.100,169.200,38.650,8.409,197.700,45.080,12.740,4.047,356.500,76.070,22.410,8.209,easy
1515.000,295.300,66.660,16.300,869.400,168.000,37.990,8.355,193.900,44.700,12.570,3.955,347.100,74.050,21.840,7.938,easy
1508.000,287.600,66.340,16.310,875.500,168.200,38.110,8.333,196.300,44.620,12.510,3.944,347.100,73.930,21.730,7.954,easy
1507.000,292.600,66.670,16.550,865.800,168.100,38.030,8.413,196.300,44.270,12.550,3.964,347.200,73.910,21.800,8.024,easy
1512.000,294.900,65.810,16.370,874.500,167.800,38.060,8.281,194.700,44.560,12.560,3.974,347.600,74.130,21.820,7.976,easy
1513.000,293.300,66.450,16.620,876.400,167.700,38.430,8.372,198.100,44.660,12.530,3.993,348.000,74.460,22.050,8.086,easy
1517.000,296.200,65.860,16.800,871.300,168.800,38.460,8.440,198.100,44.680,12.550,3.998,351.200,75.120,22.260,8.133,easy
1524.000,301.200,66.900,16.790,880.700,169.700,38.420,8.558,193.800,44.570,12.610,4.023,352.100,75.770,22.380,8.226,easy
1533.000,297.000,67.640,16.840,877.900,170.700,38.810,8.578,196.000,45.460,12.660,4.043,353.700,76.280,22.550,8.310,easy
1541.000,299.700,67.890,16.930,882.900,168.600,38.080,8.460,198.500,45.320,12.730,4.040,352.300,75.270,22.300,8.086,easy
1512.000,292.600,66.270,16.430,871.300,168.800,38.310,8.382,195.000,44.490,12.480,3.966,347.700,74.080,21.870,8.012,easy
1508.000,293.400,66.030,16.530,874.600,167.400,38.110,8.323,195.800,44.040,12.480,3.967,346.800,73.640,21.780,7.960,easy
1510.000,295.500,66.830,16.670,870.400,167.500,38.250,8.374,195.500,44.260,12.560,3.972,348.100,74.140,21.810,8.036,easy
1512.000,299.000,66.140,16.760,876.000,169.600,38.550,8.391,194.900,44.520,12.540,3.985,346.800,73.980,21.930,8.035,easy
1517.000,299.500,66.740,16.670,873.600,167.700,38.060,8.436,194.800,44.560,12.530,3.988,347.800,74.680,22.120,8.096,easy
1522.000,299.600,67.310,16.830,875.500,170.100,38.150,8.474,195.200,44.640,12.550,4.013,349.600,74.960,22.140,8.156,easy
1527.000,300.200,67.250,16.920,879.300,169.400,38.550,8.435,194.600,44.930,12.640,4.024,352.400,75.770,22.400,8.228,easy
1534.000,299.800,66.850,16.970,885.000,169.400,38.720,8.553,197.200,44.730,12.700,4.023,353.500,76.210,22.590,8.293,easy
1538.000,299.500,67.160,16.760,878.200,169.400,38.180,8.306,195.800,44.870,12.640,3.997,349.800,74.140,21.870,7.976,easy
1508.000,293.500,66.240,16.480,866.100,167.200,38.110,8.415,195.000,44.050,12.530,3.963,346.000,73.300,21.780,7.956,easy
1507.000,294.600,65.270,16.470,871.300,167.300,38.220,8.373,194.800,44.280,12.490,3.966,345.300,73.360,21.650,7.947,easy
1511.000,293.400,66.290,16.420,874.600,168.500,37.990,8.305,193.800,44.080,12.520,3.967,345.300,73.390,21.740,7.982,easy
1511.000,294.500,66.610,16.610,871.900,167.800,38.290,8.368,192.600,44.130,12.540,3.965,345.100,73.370,21.730,8.009,easy
1514.000,293.300,66.110,16.550,875.400,167.800,38.420,8.508,193.700,43.980,12.570,3.967,346.400,74.080,22.030,8.067,easy
1519.000,299.200,66.900,16.720,875.100,170.700,38.490,8.426,194.300,44.370,12.550,3.993,349.100,74.330,22.080,8.123,easy
1526.000,297.700,67.650,16.780,878.200,171.600,38.660,8.563,193.200,44.550,12.660,4.005,350.700,75.180,22.280,8.234,easy
1532.000,299.100,67.030,17.010,878.400,170.000,38.460,8.478,195.700,45.030,12.660,4.014,351.600,75.460,22.270,8.105,easy
1512.000,296.000,66.280,16.490,873.700,168.200,38.230,8.397,193.900,44.550,12.520,3.937,343.600,72.980,21.690,7.889,easy
1502.000,294.100,65.590,16.530,865.000,168.600,37.810,8.406,195.600,44.480,12.350,3.937,343.100,72.840,21.490,7.836,easy
1501.000,293.000,65.550,16.340,873.000,168.400,38.140,8.430,192.300,43.830,12.410,3.945,341.700,72.530,21.540,7.896,easy
1508.000,296.400,66.740,16.440,876.900,167.900,38.620,8.429,193.000,43.830,12.470,3.958,342.900,72.680,21.480,7.901,easy
1506.000,294.500,66.460,16.480,871.400,168.300,38.480,8.381,195.400,44.030,12.430,3.971,343.600,73.270,21.760,7.965,easy
1512.000,295.000,65.980,16.490,881.900,170.900,38.940,8.459,195.100,44.580,12.540,3.978,345.500,73.640,21.850,8.022,easy
1519.000,299.400,67.090,16.810,885.200,171.100,38.400,8.410,194.300,44.480,12.550,3.996,347.800,74.290,22.120,8.116,easy
1526.000,300.200,67.280,16.910,873.500,169.700,38.520,8.545,197.400,44.390,12.530,4.014,349.500,74.900,22.190,8.179,easy
1533.000,299.700,68.070,16.980,887.600,169.600,38.630,8.458,196.700,44.420,12.610,3.985,346.700,73.640,21.680,7.943,easy
1503.000,291.500,65.030,16.440,870.400,168.200,38.070,8.370,195.100,44.180,12.390,3.947,341.000,72.580,21.380,7.816,easy
1501.000,293.700,66.450,16.260,862.100,167.900,38.090,8.375,193.300,43.980,12.400,3.951,340.000,72.470,21.370,7.816,easy
1499.000,290.000,65.600,16.410,873.100,168.000,38.320,8.379,194.900,44.170,12.380,3.943,341.300,72.870,21.420,7.888,easy
1504.000,293.600,65.850,16.510,875.600,168.100,38.440,8.409,193.000,43.730,12.430,3.956,342.300,72.960,21.450,7.887,easy
1506.000,295.000,66.470,16.520,878.300,169.800,38.390,8.447,194.300,44.490,12.450,3.975,343.500,73.300,21.630,7.952,easy
1513.000,296.600,66.650,16.630,878.600,169.800,38.650,8.462,193.300,44.340,12.500,3.982,346.300,74.140,21.880,8.058,easy
1520.000,297.400,67.650,16.900,878.800,169.300,38.740,8.551,195.100,44.190,12.580,4.017,348.700,74.490,22.080,8.141,easy
1526.000,300.500,67.280,16.980,882.700,170.100,38.770,8.494,195.400,44.690,12.640,4.033,350.600,75.020,22.380,8.170,easy
1528.000,298.300,67.270,16.650,885.100,167.600,38.040,8.331,195.200,44.880,12.530,4.008,345.300,73.180,21.610,7.894,easy
1499.000,291.900,65.650,16.370,871.000,169.000,38.280,8.338,194.200,44.090,12.450,3.952,342.300,72.410,21.360,7.849,easy
1498.000,291.500,66.340,16.370,872.800,167.700,38.230,8.340,193.700,44.110,12.460,3.941,340.400,72.210,21.370,7.851,easy
1499.000,293.400,65.720,16.540,867.600,168.400,38.210,8.421,192.300,44.130,12.440,3.964,342.100,72.780,21.460,7.874,easy
1503.000,294.300,66.420,16.440,868.300,168.100,38.770,8.370,192.400,44.060,12.430,3.959,342.900,72.980,21.570,7.897,easy
1505.000,296.400,66.590,16.560,868.100,169.800,38.190,8.445,192.600,44.240,12.420,3.975,344.700,73.460,21.560,7.988,easy
1513.000,297.600,66.410,16.650,876.500,169.800,38.600,8.470,193.700,44.260,12.550,3.992,347.400,73.960,21.970,8.073,easy
1520.000,296.900,67.480,16.880,871.300,170.000,38.580,8.477,194.600,44.520,12.600,4.025,348.600,74.760,22.160,8.160,easy
1527.000,302.100,68.030,16.890,880.400,171.800,38.640,8.467,195.000,44.800,12.620,4.030,350.600,75.340,22.280,8.248,easy
1527.000,297.900,66.660,16.520,873.700,168.000,38.080,8.356,197.200,44.900,12.610,3.994,345.500,73.320,21.580,7.938,easy
1499.000,294.000,66.320,16.500,872.600,168.300,38.320,8.391,194.100,43.790,12.400,3.966,342.600,72.440,21.470,7.899,easy
1500.000,294.300,66.180,16.450,873.900,168.600,38.200,8.460,193.400,43.880,12.420,3.944,342.200,72.850,21.420,7.913,easy
1503.000,296.500,66.670,16.410,874.100,168.000,38.500,8.468,196.000,44.300,12.420,3.974,343.100,73.200,21.600,7.908,easy
1505.000,292.900,66.570,16.440,880.100,167.400,38.460,8.501,193.700,44.060,12.390,3.974,342.600,73.090,21.630,7.978,easy
1511.000,295.300,66.370,16.640,869.100,168.700,38.560,8.540,194.000,44.520,12.520,3.985,345.700,73.690,21.840,8.038,easy
1516.000,297.900,67.380,16.670,886.700,169.000,38.400,8.483,194.100,44.630,12.580,3.999,348.500,74.180,22.070,8.145,easy
1523.000,299.000,67.050,16.840,878.700,169.800,39.150,8.486,194.700,44.680,12.590,4.001,350.100,74.940,22.150,8.167,easy
1528.000,299.400,68.380,16.960,879.200,170.400,38.940,8.455,197.500,44.960,12.690,4.028,351.000,75.840,22.400,8.223,easy
1527.000,299.700,66.820,16.580,879.900,167.900,38.310,8.343,195.200,44.940,12.620,3.995,346.000,73.550,21.710,7.941,easy
1499.000,295.700,65.650,16.340,872.000,167.900,37.780,8.365,193.500,44.440,12.460,3.934,343.100,72.910,21.500,7.879,easy
1500.000,292.400,65.870,16.330,873.900,169.100,38.160,8.368,193.000,43.920,12.450,3.944,342.400,72.930,21.380,7.890,easy
1503.000,294.500,66.090,16.480,879.000,168.200,38.500,8.525,194.200,44.080,12.440,3.963,342.700,73.350,21.570,7.940,easy
1506.000,294.700,66.290,16.440,872.500,168.500,38.420,8.510,197.600,44.300,12.500,3.960,343.800,73.410,21.640,7.931,easy
1508.000,294.100,66.580,16.490,877.900,170.700,38.680,8.488,195.200,44.450,12.500,3.970,344.600,73.360,21.780,8.030,easy
1516.000,297.300,67.530,16.550,886.700,170.100,38.750,8.509,194.700,44.360,12.560,3.990,347.400,74.490,22.010,8.059,easy
1521.000,297.800,67.510,16.850,885.200,170.100,38.890,8.578,198.100,44.760,12.640,4.008,349.300,74.890,22.180,8.173,easy
1531.000,300.900,68.700,16.980,879.800,171.500,38.850,8.429,195.600,44.890,12.670,4.017,351.900,75.360,22.150,8.105,easy
1512.000,294.400,65.910,16.380,875.500,169.100,38.180,8.364,195.700,44.320,12.480,3.947,343.300,73.170,21.430,7.869,easy
1499.000,293.500,66.630,16.490,871.200,169.300,38.190,8.433,193.600,44.220,12.410,3.937,342.000,72.650,21.410,7.795,easy
1498.000,292.800,66.390,16.340,872.000,168.700,38.610,8.390,193.800,43.880,12.400,3.931,341.200,72.630,21.340,7.868,easy
1502.000,293.800,65.790,16.410,882.300,168.400,38.690,8.481,193.400,43.900,12.420,3.941,342.700,72.790,21.430,7.853,easy
1503.000,294.100,66.210,16.460,865.800,169.300,38.860,8.498,192.600,43.920,12.440,3.947,343.700,73.040,21.520,7.903,easy
1507.000,297.000,66.220,16.510,879.600,170.100,38.440,8.479,195.400,44.140,12.510,3.974,345.100,73.890,21.760,8.004,easy
1513.000,296.900,66.890,16.820,875.800,170.000,39.010,8.517,196.300,44.880,12.530,3.989,347.300,74.090,21.980,8.064,easy
1523.000,299.400,67.990,16.820,879.200,170.500,39.110,8.546,196.800,44.680,12.620,4.004,350.300,74.830,22.130,8.141,easy
1529.000,297.000,67.590,16.900,889.200,170.900,38.280,8.447,194.700,44.760,12.670,3.995,348.300,74.340,21.720,7.932,easy
1500.000,290.700,65.920,16.330,870.500,168.900,38.200,8.451,193.900,44.010,12.450,3.935,340.900,72.490,21.410,7.815,easy
1497.000,292.400,65.450,16.210,871.700,167.500,38.800,8.553,193.000,43.940,12.440,3.925,341.000,72.410,21.200,7.755,easy
1495.000,290.900,66.060,16.520,867.700,169.800,38.470,8.450,195.800,43.860,12.450,3.929,341.300,72.540,21.400,7.827,easy
1501.000,293.600,66.160,16.480,865.500,170.000,38.360,8.458,193.300,44.000,12.440,3.957,341.500,72.730,21.370,7.869,easy
1503.000,295.000,65.670,16.460,878.100,169.200,38.470,8.479,195.100,44.130,12.470,3.956,343.400,73.430,21.600,7.919,easy
1510.000,295.000,66.500,16.600,876.000,170.000,38.570,8.464,193.900,44.420,12.500,3.978,345.000,73.590,21.700,8.007,easy
1518.000,298.500,67.280,16.710,883.100,170.500,38.670,8.505,197.200,44.590,12.520,3.997,348.500,74.430,21.910,8.074,easy
1526.000,300.400,67.810,16.830,886.200,170.500,38.740,8.583,193.800,44.580,12.570,4.002,349.500,75.000,22.280,8.161,easy
1532.000,298.600,68.020,16.860,880.100,169.100,38.400,8.440,196.200,45.110,12.610,4.000,347.300,73.960,21.610,7.899,easy
1500.000,294.300,65.740,16.250,874.800,168.100,38.690,8.412,194.900,43.930,12.380,3.937,341.500,72.590,21.320,7.829,easy
1497.000,293.500,65.050,16.370,873.100,168.600,38.270,8.431,194.100,44.200,12.490,3.938,340.700,72.730,21.280,7.818,easy
1497.000,293.500,65.920,16.560,876.500,169.500,38.240,8.516,193.500,44.400,12.390,3.939,342.300,72.850,21.390,7.799,easy
1504.000,293.500,65.310,16.450,872.300,169.600,38.590,8.408,195.100,44.080,12.500,3.971,343.900,72.780,21.550,7.889,easy
1509.000,294.400,66.170,16.320,877.900,169.300,38.670,8.492,194.600,44.360,12.490,3.975,343.800,73.410,21.630,7.951,easy
1514.000,297.300,67.290,16.720,876.800,170.600,38.920,8.496,196.600,44.640,12.580,3.990,346.400,74.060,21.860,8.038,easy
1519.000,295.800,67.440,16.750,876.200,170.900,39.050,8.518,195.100,44.800,12.600,3.998,347.600,74.500,22.090,8.105,easy
1527.000,299.600,67.660,16.960,885.500,170.500,38.880,8.584,197.600,44.710,12.700,4.016,350.600,75.310,22.200,8.124,easy
1521.000,297.300,66.800,16.630,878.500,168.400,38.600,8.410,197.500,44.730,12.570,3.971,344.500,72.900,21.630,7.857,easy
1500.000,294.100,66.070,16.460,877.200,166.900,38.380,8.396,194.200,44.320,12.460,3.942,342.500,72.620,21.340,7.787,easy
1499.000,293.400,66.000,16.350,867.800,167.800,38.540,8.412,193.800,44.140,12.440,3.948,342.500,72.540,21.520,7.830,easy
1504.000,295.200,66.580,16.450,875.900,170.300,38.640,8.445,192.300,44.000,12.530,3.947,343.300,72.750,21.480,7.825,easy
1505.000,294.600,67.110,16.560,874.500,168.400,38.710,8.547,193.100,44.300,12.510,3.966,344.000,73.350,21.520,7.900,easy
1512.000,295.000,67.150,16.660,881.400,169.700,38.890,8.466,193.500,44.450,12.550,3.969,345.500,73.440,21.740,7.937,easy
1517.000,295.900,67.090,16.750,870.500,170.700,38.550,8.572,194.400,44.970,12.590,4.013,348.600,74.370,21.870,8.014,easy
1525.000,301.200,67.810,16.890,888.500,171.300,38.780,8.546,195.800,44.650,12.630,4.034,349.500,74.880,22.070,8.132,easy
1530.000,299.100,68.610,17.000,884.600,169.800,39.060,8.451,196.900,44.950,12.710,4.029,349.600,74.410,21.920,7.964,easy
1507.000,294.400,65.990,16.360,877.300,169.200,37.970,8.420,192.100,44.120,12.480,3.956,342.500,72.820,21.390,7.800,easy
1501.000,294.000,65.280,16.380,876.100,169.100,38.450,8.433,194.000,44.080,12.500,3.946,340.600,72.530,21.250,7.746,easy
1500.000,296.700,65.710,16.390,876.100,170.400,38.610,8.490,193.600,44.180,12.510,3.959,341.400,72.550,21.390,7.838,easy
1505.000,294.300,66.540,16.400,876.900,170.100,38.790,8.471,193.200,44.370,12.560,3.968,341.100,72.630,21.460,7.809,easy
1508.000,293.900,66.410,16.630,878.900,170.900,38.630,8.515,193.700,44.520,12.480,3.968,343.400,73.130,21.530,7.861,easy
1512.000,299.700,66.730,16.730,875.100,171.200,38.980,8.537,192.800,44.280,12.540,3.995,345.300,73.840,21.710,7.954,easy
1520.000,295.200,67.550,16.780,880.400,170.500,38.700,8.570,194.700,44.380,12.620,4.018,347.500,74.640,21.990,8.060,easy
1528.000,301.800,67.720,16.770,883.300,171.400,38.960,8.610,195.400,44.680,12.660,4.045,349.900,74.730,22.170,8.101,easy
1536.000,300.100,68.090,16.770,886.300,168.800,39.080,8.499,196.700,44.860,12.710,4.057,348.400,74.240,21.780,7.903,easy
1505.000,291.400,66.480,16.260,872.600,170.000,38.400,8.406,194.900,44.330,12.520,3.967,341.700,72.560,21.330,7.764,easy
1502.000,292.300,65.720,16.140,885.800,169.300,38.400,8.470,194.500,44.090,12.460,3.960,341.100,72.240,21.280,7.778,easy
1501.000,291.200,66.120,16.490,868.000,169.000,38.710,8.545,196.400,44.320,12.520,3.982,340.500,72.620,21.350,7.821,easy
1505.000,296.500,66.110,16.400,875.100,170.400,38.760,8.478,193.200,43.900,12.500,3.997,341.400,72.930,21.410,7.859,easy
1503.000,292.700,65.300,16.140,876.500,167.800,38.770,8.488,192.600,44.380,12.520,3.958,341.800,72.650,21.380,7.785,bogus
1500.000,289.200,65.530,16.150,872.300,169.700,38.670,8.555,196.600,43.860,12.490,3.967,340.400,72.110,21.210,7.771,bogus
1502.000,294.400,66.470,16.330,879.000,170.800,38.520,8.558,195.200,44.490,12.530,3.962,342.900,72.630,21.320,7.834,bogus
1506.000,297.700,65.950,16.370,882.800,169.400,38.650,8.562,193.600,44.110,12.560,4.002,343.500,72.650,21.450,7.849,bogus
1507.000,294.100,66.020,16.230,877.400,170.400,38.650,8.487,193.800,44.110,12.580,4.001,344.100,73.430,21.590,7.905,bogus
1586.000,307.500,69.230,16.990,909.100,178.100,40.020,8.921,197.100,45.550,12.750,4.049,347.000,74.180,21.770,8.003,hard
1560.000,305.200,69.060,17.070,907.100,176.000,40.550,8.964,195.100,44.900,12.570,3.989,344.300,73.520,21.690,7.964,hard
1563.000,304.900,69.390,16.960,916.900,179.000,40.540,9.007,194.700,44.550,12.630,3.987,344.600,73.930,21.820,8.071,hard
1572.000,307.100,69.220,17.110,913.800,177.800,40.910,8.981,192.600,44.600,12.630,4.029,346.500,74.340,21.830,8.066,hard
1574.000,307.300,68.120,17.160,910.200,178.500,40.770,9.017,196.700,44.500,12.700,4.059,346.500,74.350,22.050,8.132,hard
1578.000,308.400,70.370,17.290,913.000,178.200,40.950,8.984,196.000,45.000,12.730,4.040,348.800,74.810,22.040,8.206,hard
1588.000,312.700,69.550,17.370,912.800,179.700,40.800,9.018,196.000,45.170,12.770,4.052,351.200,75.710,22.480,8.308,hard
1595.000,314.100,70.770,17.670,922.100,180.000,40.970,8.939,196.100,45.240,12.790,4.083,354.000,76.420,22.640,8.340,hard
1594.000,311.300,69.500,17.250,900.800,177.900,40.250,8.876,198.600,45.300,12.750,4.035,347.600,74.140,21.950,8.034,hard
1571.000,307.100,68.010,17.170,907.900,177.600,40.610,8.944,196.500,44.850,12.570,4.012,345.900,73.570,21.830,7.989,hard
1573.000,310.500,69.110,17.130,917.800,178.100,40.660,8.990,195.400,44.480,12.560,3.992,345.400,74.150,21.860,8.082,hard
1579.000,313.400,68.980,17.110,911.800,179.200,40.880,8.920,195.200,45.060,12.650,4.017,347.100,74.710,21.930,8.087,hard
1579.000,309.200,70.110,17.290,908.600,179.700,40.920,8.955,197.900,45.100,12.670,4.039,346.000,74.600,22.000,8.115,hard
1586.000,311.100,68.920,17.470,920.500,178.600,41.070,9.018,197.500,44.980,12.710,4.021,349.700,74.850,22.350,8.183,hard
1593.000,316.300,71.410,17.560,917.600,180.000,41.080,9.014,198.000,45.180,12.730,4.057,351.400,75.580,22.470,8.316,hard
1601.000,317.200,71.070,17.600,923.200,179.600,41.200,9.030,198.600,45.150,12.760,4.085,354.800,76.240,22.640,8.342,hard
1599.000,315.000,70.640,17.250,913.700,178.300,40.220,8.877,197.600,45.160,12.690,4.039,346.700,74.170,21.900,8.037,hard
1573.000,308.700,68.770,17.170,908.600,177.900,40.510,8.829,193.800,44.800,12.540,3.980,344.100,73.620,21.780,7.975,hard
1576.000,309.600,68.130,17.010,910.700,178.300,40.680,8.841,196.900,44.560,12.550,3.992,345.200,73.650,21.780,8.023,hard
1577.000,314.000,70.270,17.340,914.000,179.900,40.810,8.910,195.700,45.040,12.570,4.029,345.600,73.990,21.860,8.029,hard
1583.000,310.100,68.800,17.280,911.700,178.900,40.330,8.935,199.800,44.530,12.640,4.028,346.700,74.450,22.030,8.103,hard
1587.000,312.500,69.850,17.230,919.700,179.600,40.770,9.034,197.400,44.870,12.690,4.019,348.700,74.980,22.210,8.138,hard
1595.000,313.000,70.670,17.470,915.400,180.500,40.820,9.095,196.400,45.510,12.760,4.043,348.800,75.430,22.400,8.237,hard
1603.000,317.700,71.110,17.670,922.100,181.700,41.330,9.021,197.800,45.420,12.780,4.068,352.500,75.880,22.490,8.350,hard
1609.000,316.900,70.780,17.400,919.800,180.000,40.760,8.944,198.400,44.940,12.780,4.055,349.100,74.330,21.970,8.030,hard
1576.000,305.300,68.140,17.040,905.100,179.400,40.310,8.899,197.600,44.960,12.600,3.995,343.300,73.450,21.740,7.934,hard
1574.000,306.900,69.110,17.000,901.900,178.500,40.310,8.886,196.100,44.530,12.580,3.994,342.900,73.300,21.610,7.968,hard
1578.000,309.400,68.790,16.970,914.500,179.700,40.420,8.922,197.500,44.480,12.560,4.018,344.500,73.910,21.810,8.020,hard
1580.000,310.900,69.160,17.190,911.400,179.600,40.660,8.909,197.200,44.950,12.640,4.024,345.600,74.060,21.830,8.054,hard
1587.000,309.400,70.330,17.390,911.100,180.000,41.090,8.944,194.900,44.920,12.640,4.039,346.400,74.410,21.950,8.130,hard
1592.000,311.900,70.090,17.580,914.800,179.400,41.030,8.960,196.600,45.240,12.740,4.047,348.600,74.900,22.190,8.232,hard
1599.000,316.200,70.910,17.550,926.100,179.900,41.010,9.091,196.500,45.090,12.800,4.082,351.600,75.150,22.350,8.288,hard
1606.000,316.800,70.680,17.540,911.600,178.900,40.910,8.911,196.500,45.610,12.790,4.056,351.000,75.010,22.190,8.083,hard
1577.000,308.300,68.840,16.910,906.300,177.700,40.000,8.992,195.500,44.850,12.620,4.005,343.800,73.090,21.560,7.933,hard
1573.000,313.300,68.980,16.990,910.300,178.700,40.420,8.904,194.900,44.680,12.550,3.985,342.000,73.070,21.660,7.929,hard
1574.000,312.000,69.490,16.990,906.400,179.300,40.780,8.848,195.200,44.610,12.570,3.994,345.300,73.650,21.700,7.986,hard
1578.000,311.400,69.140,17.180,909.100,178.900,40.510,8.900,196.000,44.990,12.620,4.010,344.100,73.540,21.690,7.996,hard
1581.000,313.500,69.700,17.110,905.400,178.400,40.390,8.967,197.700,44.720,12.660,4.030,346.100,73.980,21.810,8.046,hard
1585.000,311.500,70.150,17.320,909.600,179.000,40.520,8.971,195.500,45.180,12.690,4.025,347.800,74.630,21.970,8.158,hard
1593.000,313.000,70.110,17.470,917.800,180.400,40.780,8.988,195.100,45.330,12.740,4.050,350.700,75.450,22.340,8.240,hard
1604.000,315.900,71.000,17.610,911.000,179.900,40.820,8.948,197.300,45.230,12.830,4.081,352.200,75.970,22.440,8.259,hard
1592.000,310.400,69.630,17.040,904.900,176.100,40.240,8.847,196.000,45.180,12.690,4.006,344.800,73.490,21.650,7.947,hard
1569.000,306.700,69.110,16.950,904.700,177.300,40.210,8.884,195.900,44.970,12.540,3.993,343.100,73.270,21.580,7.902,hard
1570.000,307.800,68.580,16.980,912.200,178.000,40.330,8.846,190.700,44.680,12.560,3.988,342.500,73.300,21.620,7.956,hard
1576.000,309.700,68.830,17.130,917.200,176.500,40.730,8.870,196.900,44.660,12.620,3.999,344.100,73.320,21.730,7.973,hard
1578.000,309.400,69.150,17.170,904.200,178.000,40.580,8.920,193.800,44.420,12.590,4.010,344.100,73.550,21.760,8.036,hard
1580.000,309.400,70.150,17.290,906.700,179.000,40.860,8.949,194.400,44.770,12.650,4.029,346.000,74.420,21.930,8.117,hard
1589.000,314.400,71.080,17.380,910.400,180.100,40.840,8.973,196.600,45.240,12.700,4.046,348.200,75.140,22.220,8.201,hard
1597.000,313.700,70.850,17.520,911.400,181.000,41.170,9.017,196.500,45.530,12.770,4.069,349.800,75.930,22.500,8.288,hard
1603.000,319.600,71.040,17.390,910.600,179.200,40.390,8.830,198.200,44.920,12.730,4.037,349.400,74.460,21.860,7.962,hard
1570.000,307.200,68.960,16.850,904.900,178.100,40.090,8.856,194.300,44.620,12.570,3.987,343.700,73.090,21.490,7.918,hard
1572.000,309.300,69.420,17.040,900.800,177.600,40.510,8.829,196.500,44.430,12.610,3.976,342.600,73.260,21.600,7.943,hard
1575.000,313.000,69.810,17.120,904.700,178.300,40.110,8.893,196.700,44.670,12.590,3.994,345.200,73.640,21.650,7.967,hard
1575.000,315.900,69.770,17.050,904.200,178.000,40.330,8.920,195.100,45.130,12.630,3.997,344.500,73.670,21.630,7.986,hard
1578.000,310.900,69.440,17.360,908.400,178.600,40.640,8.913,195.700,44.760,12.600,4.018,346.100,74.400,21.940,8.072,hard
1588.000,313.500,70.080,17.390,911.400,178.200,40.660,8.926,196.900,45.000,12.700,4.031,349.600,75.050,22.080,8.142,hard
1594.000,316.200,70.780,17.630,913.700,179.500,41.040,8.993,195.700,45.160,12.730,4.054,350.500,75.520,22.270,8.209,hard
1596.000,319.500,71.010,17.460,904.000,179.100,40.300,8.896,197.100,45.210,12.750,4.019,347.200,73.980,21.700,7.935,hard
1565.000,308.800,69.400,17.020,900.900,177.200,40.360,8.839,194.700,44.540,12.590,3.985,342.400,72.970,21.470,7.894,hard
1563.000,311.500,69.150,16.890,896.400,177.600,40.600,8.814,194.600,44.430,12.570,3.981,341.800,73.080,21.470,7.875,hard
1566.000,310.800,69.360,17.130,893.200,179.300,40.180,8.820,196.500,44.610,12.570,3.990,343.200,73.090,21.540,7.934,hard
1570.000,310.600,69.370,17.050,901.100,178.100,40.330,8.842,195.300,44.420,12.580,3.991,343.400,73.370,21.660,7.903,hard
1572.000,308.800,69.810,17.160,896.500,177.900,40.510,9.016,195.300,44.710,12.680,4.008,344.900,73.860,21.790,7.982,hard
1578.000,314.600,70.130,17.270,896.000,179.400,40.660,9.021,196.000,45.070,12.680,4.040,347.200,74.150,21.990,8.096,hard
1587.000,315.100,70.680,17.430,909.900,179.800,40.530,9.019,196.400,44.890,12.740,4.060,348.600,74.860,22.150,8.123,hard
1580.000,314.400,68.870,17.010,900.800,176.400,39.810,8.850,196.800,45.000,12.670,3.991,343.000,72.880,21.410,7.798,hard
1554.000,310.200,68.000,16.850,900.700,176.300,40.340,8.769,191.400,44.560,12.580,3.960,340.700,72.400,21.360,7.797,hard
1552.000,308.600,69.330,16.930,901.100,177.600,39.780,8.748,193.800,44.540,12.480,3.979,339.200,72.030,21.290,7.820,hard
1554.000,308.100,68.420,17.000,901.500,177.200,40.660,8.809,197.200,44.660,12.550,3.983,340.600,72.470,21.370,7.826,hard
1557.000,310.800,68.650,17.020,908.200,177.800,40.650,8.869,195.500,44.720,12.600,3.995,342.800,73.110,21.440,7.879,hard
1560.000,309.500,69.700,17.120,900.900,177.700,40.630,8.909,193.800,45.010,12.650,4.012,343.200,73.260,21.550,7.925,hard
1566.000,313.800,69.880,17.100,908.900,178.900,40.600,8.871,195.600,44.760,12.690,4.037,345.100,74.030,21.750,8.037,hard
1574.000,315.500,70.640,17.470,908.000,179.700,40.670,8.847,197.400,44.980,12.710,4.060,347.400,74.390,21.920,7.983,hard
1564.000,308.700,68.990,16.720,890.800,176.600,40.270,8.752,198.700,44.720,12.610,3.995,338.900,72.150,21.200,7.750,hard
1544.000,305.800,68.330,16.640,892.100,178.200,40.040,8.791,195.400,44.590,12.460,3.977,337.400,71.760,21.040,7.698,hard
1544.000,307.300,67.690,16.800,899.100,175.400,40.480,8.762,193.000,44.520,12.540,3.977,338.500,71.880,21.170,7.781,hard
1546.000,310.500,69.530,16.820,894.900,176.500,40.400,8.831,193.100,44.420,12.580,4.002,338.500,72.350,21.220,7.776,hard
1548.000,310.400,68.510,16.870,899.700,177.500,39.960,8.885,196.500,44.350,12.610,4.013,339.800,72.460,21.310,7.789,hard
1554.000,307.400,68.870,17.000,906.800,176.200,39.940,8.789,196.500,44.600,12.660,4.015,342.400,73.360,21.460,7.877,hard
1559.000,313.400,69.570,17.120,899.700,177.500,40.520,8.891,194.500,44.900,12.690,4.054,343.500,73.800,21.700,7.978,hard
1565.000,314.100,69.880,17.370,906.400,177.900,40.600,8.929,195.400,45.070,12.760,4.068,346.300,74.200,21.880,7.999,hard
1557.000,312.400,68.850,16.670,895.600,175.400,39.880,8.798,196.500,45.030,12.620,4.005,339.300,72.210,21.260,7.716,hard
1535.000,308.400,67.780,16.620,884.600,174.600,39.960,8.780,194.300,44.320,12.570,3.987,337.100,71.860,21.070,7.674,hard
1536.000,304.400,68.210,16.790,890.700,176.400,39.790,8.822,195.700,44.310,12.590,3.996,337.900,71.810,21.180,7.700,hard
1539.000,307.100,69.320,16.770,891.000,176.600,39.620,8.770,195.800,44.550,12.590,4.013,339.200,72.060,21.140,7.743,hard
1543.000,311.800,69.280,16.960,894.900,177.100,39.930,8.866,194.400,44.430,12.580,4.002,340.300,72.440,21.360,7.793,hard
1550.000,309.800,69.410,17.090,893.500,177.300,40.220,8.886,196.300,44.490,12.650,4.017,341.700,72.940,21.450,7.855,hard
1556.000,312.000,69.510,17.080,895.900,176.600,40.560,8.904,195.000,45.010,12.710,4.050,344.400,73.920,21.680,7.950,hard
1565.000,314.200,69.420,17.370,901.100,177.800,40.940,8.973,198.300,45.120,12.750,4.064,345.900,74.730,21.990,8.031,hard
1565.000,313.900,69.590,17.060,891.800,174.800,39.690,8.773,197.700,45.220,12.710,4.032,341.700,72.630,21.290,7.746,hard
1535.000,310.300,68.320,16.790,892.300,175.100,40.160,8.708,193.900,44.670,12.540,4.001,338.000,71.810,21.170,7.691,hard
1538.000,305.200,68.750,16.900,892.500,176.300,40.050,8.821,195.700,44.310,12.520,4.018,338.200,71.960,21.110,7.736,hard
1540.000,310.900,70.050,16.920,893.300,175.400,40.370,8.771,195.500,44.370,12.610,4.019,339.700,72.240,21.240,7.757,hard
1543.000,307.000,69.410,16.820,889.000,175.800,39.950,8.928,195.300,44.740,12.630,4.024,340.500,72.580,21.340,7.799,hard
1546.000,309.900,69.140,17.080,888.100,176.900,40.330,8.861,196.200,44.400,12.680,4.036,343.300,72.910,21.540,7.900,hard
1553.000,312.400,69.630,17.130,891.100,176.200,40.340,8.876,194.600,44.850,12.780,4.050,344.100,73.770,21.770,7.979,hard
1564.000,312.000,69.680,17.280,898.700,177.400,40.650,8.934,196.000,45.010,12.760,4.075,346.200,74.120,21.980,8.061,hard
1568.000,315.500,69.830,17.180,894.300,175.400,40.210,8.715,195.300,45.110,12.810,4.056,342.800,72.880,21.440,7.801,hard
1536.000,305.400,68.230,16.900,887.400,176.900,39.950,8.758,195.200,44.240,12.610,4.009,339.000,72.220,21.230,7.747,hard
1536.000,307.400,68.440,16.930,900.300,176.400,39.990,8.774,194.700,44.580,12.600,3.997,338.100,72.170,21.220,7.754,hard
1538.000,305.800,68.680,16.940,901.000,176.900,39.900,8.765,197.000,44.510,12.580,4.022,340.300,72.620,21.310,7.810,hard
1542.000,311.200,70.240,16.950,893.200,175.800,40.170,8.817,195.800,44.350,12.660,4.017,340.700,72.710,21.420,7.829,hard
1546.000,309.600,69.900,17.180,898.200,177.300,40.180,8.877,194.300,44.740,12.640,4.030,341.000,73.040,21.610,7.900,hard
1553.000,310.000,69.820,17.220,903.600,178.300,40.330,8.852,196.100,44.560,12.670,4.034,344.100,73.780,21.730,7.953,hard
1562.000,311.700,70.090,17.360,900.700,177.900,40.520,8.986,195.100,45.070,12.750,4.059,346.000,74.220,21.960,8.052,hard
1566.000,312.700,71.570,17.330,902.100,178.400,40.890,8.870,194.500,45.330,12.720,4.059,347.400,74.580,21.960,7.977,hard
1547.000,307.200,69.410,16.830,896.100,175.400,40.030,8.841,195.500,44.300,12.590,3.990,339.900,72.210,21.260,7.773,hard
1534.000,307.500,69.000,16.910,890.000,176.700,39.710,8.713,194.400,44.510,12.580,3.970,339.300,72.080,21.130,7.710,hard
1531.000,307.600,68.210,16.800,898.500,175.300,40.310,8.758,194.900,44.210,12.560,3.980,337.800,72.140,21.170,7.757,hard
1536.000,306.900,69.000,16.920,900.300,176.600,40.280,8.684,192.900,44.450,12.580,3.984,340.300,72.450,21.340,7.812,hard
1536.000,308.400,68.960,16.950,897.800,176.300,40.440,8.806,193.400,44.490,12.550,3.992,339.800,72.630,21.340,7.861,hard
1546.000,313.000,69.500,17.170,901.300,178.300,40.270,8.882,195.100,44.960,12.670,4.020,342.800,73.250,21.570,7.903,hard
1552.000,309.600,69.670,17.210,902.900,178.400,40.650,9.006,197.800,44.570,12.660,4.028,344.600,73.700,21.760,8.025,hard
1561.000,314.400,69.960,17.350,904.000,178.400,40.690,9.034,196.200,45.140,12.740,4.055,347.400,74.720,21.910,8.073,hard
1559.000,310.400,69.360,16.940,905.900,177.000,40.200,8.724,196.900,45.010,12.610,4.004,341.400,72.360,21.260,7.774,hard
1531.000,307.600,68.910,16.810,897.800,176.900,39.950,8.743,194.400,44.580,12.510,3.982,338.000,72.020,21.130,7.739,hard
1531.000,305.700,68.240,16.740,888.300,178.200,39.940,8.753,193.900,44.350,12.510,3.975,338.000,71.920,21.070,7.764,hard
1534.000,307.200,68.340,16.780,890.200,177.200,40.220,8.865,194.100,44.480,12.570,3.991,339.300,72.610,21.250,7.765,hard
1538.000,308.200,68.650,16.870,899.300,179.000,40.410,8.825,195.700,44.260,12.510,3.984,339.100,72.760,21.380,7.851,hard
1543.000,311.900,68.720,16.950,903.500,177.300,40.080,8.868,193.500,44.630,12.620,3.998,341.100,73.130,21.580,7.932,hard
1549.000,310.100,69.650,17.140,897.200,178.300,40.590,8.881,195.300,44.650,12.700,4.035,343.900,73.750,21.920,7.998,hard
1558.000,311.600,70.540,17.250,897.700,177.700,40.700,8.920,198.400,44.960,12.670,4.056,346.500,74.500,21.970,8.050,hard
1563.000,312.700,71.210,17.320,907.200,177.000,40.550,8.823,196.900,44.930,12.770,4.058,347.300,74.240,21.760,7.943,hard
1542.000,309.800,68.730,16.910,898.900,177.700,39.910,8.782,197.100,44.210,12.550,3.980,338.800,72.250,21.290,7.759,hard
1530.000,304.700,68.260,16.750,896.700,175.300,39.750,8.847,195.400,44.200,12.550,3.986,339.000,72.300,21.120,7.766,hard
1532.000,303.800,68.440,16.850,898.400,176.300,40.450,8.840,194.100,44.140,12.500,3.982,338.800,72.580,21.230,7.814,hard
1537.000,303.800,69.010,16.780,895.600,177.100,40.210,8.841,194.100,44.450,12.530,3.991,338.700,72.590,21.300,7.842,hard
1541.000,304.000,68.180,16.920,898.200,175.700,40.440,8.807,193.700,44.570,12.570,4.016,340.100,73.020,21.460,7.883,hard
1548.000,309.200,69.760,17.150,903.700,177.500,40.560,8.838,195.900,44.460,12.650,4.019,343.100,73.370,21.700,7.980,hard
1554.000,311.000,69.110,17.240,902.600,178.300,40.290,8.919,197.400,44.490,12.670,4.057,344.600,73.980,21.870,8.080,hard
1561.000,311.600,70.460,17.200,906.700,179.000,40.970,8.957,194.800,44.900,12.700,4.072,347.000,74.660,22.070,8.191,hard
1571.000,316.700,71.130,17.510,904.700,179.000,40.680,8.922,195.800,45.480,12.810,4.081,348.500,74.950,22.040,8.056,hard
1547.000,308.000,68.790,16.730,895.100,175.200,40.300,8.818,196.800,44.280,12.550,3.995,340.800,72.840,21.330,7.827,hard
1537.000,303.300,68.390,16.770,899.200,176.000,39.950,8.770,195.000,44.570,12.510,4.004,339.200,72.300,21.390,7.829,hard
1537.000,307.500,68.040,16.730,901.200,175.400,40.540,8.919,193.800,44.230,12.570,4.005,339.800,72.830,21.390,7.864,hard
1544.000,306.100,69.020,17.000,896.700,176.300,40.450,8.837,192.200,44.430,12.570,4.009,340.000,72.870,21.430,7.876,hard
1544.000,308.700,68.450,16.990,911.000,178.000,40.370,8.895,196.700,44.650,12.620,4.019,340.400,73.250,21.660,7.926,hard
1552.000,307.600,69.800,17.140,906.000,178.500,40.300,8.858,195.400,44.420,12.660,4.039,342.900,73.960,21.780,8.061,hard
1559.000,311.800,69.680,17.160,904.500,177.300,40.300,8.846,196.400,44.930,12.740,4.066,346.100,74.250,21.970,8.141,hard
1568.000,311.900,70.350,17.480,898.800,177.000,40.950,8.997,197.700,44.950,12.870,4.087,347.100,75.110,22.230,8.211,hard
1576.000,312.600,70.790,17.470,905.100,180.300,40.640,8.844,196.200,45.120,12.820,4.098,348.300,74.990,22.000,8.042,hard
1549.000,305.200,68.170,17.030,902.400,177.100,40.180,8.804,197.300,44.500,12.530,4.013,340.100,72.740,21.490,7.923,hard
1543.000,306.400,68.550,16.870,897.500,176.200,40.370,8.866,195.700,44.780,12.590,4.011,340.700,72.690,21.540,7.885,hard
1547.000,305.400,69.370,17.010,901.000,177.600,40.390,8.941,196.600,45.050,12.620,4.011,342.000,72.970,21.530,7.967,hard
1552.000,310.000,69.040,17.050,907.400,177.400,40.790,8.924,195.000,44.460,12.660,4.029,341.100,73.350,21.550,7.984,hard
1554.000,310.200,69.170,17.080,897.500,176.100,40.550,8.914,194.700,44.760,12.680,4.044,342.000,73.510,21.720,8.053,hard
1559.000,312.100,69.920,17.210,904.600,177.800,40.660,8.922,195.100,44.740,12.680,4.060,344.500,74.020,21.900,8.101,hard
1567.000,310.700,69.810,17.260,912.900,179.600,40.690,8.953,194.000,44.940,12.760,4.067,346.900,74.650,22.170,8.202,hard
1574.000,313.300,70.770,17.570,917.300,179.700,40.850,8.959,197.900,45.000,12.860,4.083,348.700,75.150,22.260,8.199,hard
1562.000,309.600,68.490,17.060,914.300,177.400,40.290,8.813,197.700,44.710,12.700,4.023,341.600,72.950,21.500,7.909,hard
1543.000,308.100,68.060,16.910,912.200,177.900,39.980,8.808,192.500,44.340,12.600,4.012,339.000,72.560,21.450,7.862,hard
1544.000,304.300,67.680,16.890,897.900,178.200,40.160,8.846,192.900,44.540,12.560,4.013,338.600,72.410,21.480,7.914,hard
1549.000,306.200,68.760,17.160,897.400,177.900,40.410,8.871,194.000,44.110,12.610,4.025,340.400,72.890,21.550,7.956,hard
1553.000,308.900,68.060,17.030,911.000,178.900,40.500,8.869,196.500,44.300,12.600,4.034,340.400,73.000,21.670,7.968,hard
1560.000,309.500,69.420,17.160,908.100,178.900,40.560,8.934,193.900,44.900,12.690,4.051,343.300,73.340,21.780,8.022,hard
1566.000,310.500,68.970,17.350,913.700,179.400,41.060,8.917,196.200,44.610,12.660,4.060,345.300,73.910,21.930,8.136,hard
1574.000,312.300,69.840,17.470,916.000,179.100,40.830,8.934,193.900,45.060,12.730,4.086,348.300,74.580,22.160,8.197,hard
1574.000,313.800,70.310,17.090,907.400,178.500,40.180,8.896,195.900,44.840,12.720,4.019,340.500,72.500,21.480,7.887,hard
1544.000,301.100,68.990,16.840,908.900,176.200,40.070,8.884,194.000,44.430,12.500,4.004,338.500,72.150,21.170,7.809,hard
1544.000,305.900,68.320,16.730,897.200,177.000,40.810,8.930,193.200,44.480,12.590,4.005,338.200,72.150,21.230,7.832,hard
1547.000,305.200,68.380,17.010,902.500,178.300,40.440,8.902,192.900,44.170,12.560,4.003,339.500,72.360,21.280,7.859,hard
1550.000,309.000,68.660,16.930,910.200,178.200,40.780,8.883,193.600,44.580,12.560,4.019,339.400,72.290,21.420,7.897,hard
1554.000,309.100,69.630,17.000,904.200,179.000,40.310,8.878,192.000,44.550,12.660,4.052,341.300,73.130,21.460,7.971,hard
1563.000,309.100,69.600,17.320,912.500,178.400,40.320,8.905,196.800,44.680,12.660,4.055,343.000,73.680,21.770,8.046,hard
1570.000,314.700,69.510,17.220,907.500,179.000,41.110,8.971,196.400,44.740,12.760,4.082,345.200,74.320,22.000,8.123,hard
1574.000,313.000,69.890,17.060,899.600,177.500,40.350,8.852,195.900,44.810,12.740,4.054,341.800,72.650,21.390,7.859,hard
1541.000,303.000,68.650,16.710,897.000,176.900,40.140,8.773,194.000,44.370,12.540,4.002,336.300,71.430,21.010,7.737,hard
1542.000,303.600,67.920,16.620,899.200,178.100,40.290,8.734,191.100,44.060,12.520,3.999,336.600,71.670,21.120,7.781,hard
1544.000,305.900,68.200,16.930,899.100,177.000,40.300,8.800,194.100,44.260,12.650,4.004,337.700,71.980,21.180,7.796,hard
1547.000,305.400,68.430,16.900,901.900,178.700,40.590,8.826,194.400,44.550,12.540,4.020,337.700,72.100,21.290,7.801,hard
1550.000,309.000,69.870,17.070,902.200,176.800,40.500,8.810,194.600,44.580,12.640,4.029,339.200,72.290,21.310,7.915,hard
1560.000,309.400,68.580,16.950,908.500,179.200,40.750,8.935,193.500,44.970,12.710,4.057,341.800,73.150,21.520,7.997,hard
1565.000,309.700,69.620,17.080,909.200,178.600,40.830,9.031,195.200,45.010,12.680,4.084,343.900,73.960,21.850,8.090,hard
1574.000,312.200,70.450,17.350,919.500,178.900,40.250,8.794,198.200,45.310,12.750,4.094,344.100,73.530,21.580,7.895,hard
1546.000,300.700,68.450,16.830,894.500,177.100,39.870,8.717,193.300,44.140,12.500,4.019,336.200,71.500,21.030,7.707,hard
1542.000,303.900,67.720,16.740,904.800,176.100,40.300,8.753,192.000,44.380,12.520,3.989,335.800,71.220,20.880,7.704,hard
1541.000,304.600,68.450,16.760,891.300,177.400,40.280,8.741,194.500,44.120,12.550,4.016,336.100,71.470,21.070,7.772,hard
1546.000,307.000,68.060,16.910,904.500,177.000,40.100,8.841,194.600,44.360,12.540,4.015,337.000,71.770,21.140,7.788,hard
1550.000,308.100,68.370,16.810,904.500,177.700,40.310,8.912,195.000,44.720,12.550,4.020,338.000,72.330,21.190,7.835,hard
1557.000,305.900,68.460,17.090,909.700,178.000,40.720,8.885,194.900,44.800,12.680,4.019,340.500,72.680,21.390,7.938,hard
1566.000,313.300,69.110,17.060,909.200,178.600,40.420,8.947,195.900,45.350,12.650,4.048,342.600,73.440,21.610,8.008,hard
1572.000,313.200,70.110,17.320,912.500,178.400,40.560,8.860,193.900,45.040,12.710,4.059,344.200,73.610,21.560,7.906,hard
1549.000,305.700,68.600,16.700,904.600,176.600,40.010,8.761,195.400,44.600,12.540,4.016,336.800,71.250,20.940,7.727,hard
1543.000,302.500,68.510,16.810,892.200,176.500,40.030,8.811,196.400,44.240,12.590,3.998,335.200,71.780,20.930,7.685,hard
1544.000,305.700,67.700,16.960,904.100,177.400,40.370,8.848,194.500,44.160,12.590,4.000,335.600,71.630,21.070,7.743,hard
1551.000,306.800,67.900,16.780,894.100,178.400,40.470,8.792,193.900,44.260,12.600,4.019,335.800,71.700,20.980,7.715,hard
1553.000,307.000,68.630,16.890,904.600,178.300,40.280,8.769,195.500,44.470,12.620,4.019,338.000,72.000,21.220,7.779,hard
1558.000,307.200,68.810,17.030,906.500,178.200,40.620,8.853,194.300,44.470,12.670,4.045,340.300,72.410,21.400,7.886,hard
1566.000,308.700,69.340,17.150,911.100,178.400,40.970,8.883,197.400,44.790,12.730,4.052,341.700,73.060,21.540,7.905,hard
1571.000,313.800,69.140,17.290,909.100,180.800,40.590,8.818,196.600,44.830,12.780,4.074,343.300,73.490,21.360,7.875,hard
1553.000,304.000,67.860,16.740,910.700,177.500,40.570,8.793,195.500,44.710,12.580,3.998,334.000,71.060,20.860,7.641,hard
1542.000,303.200,67.870,16.750,898.900,177.000,40.180,8.814,193.400,44.180,12.560,3.995,333.500,70.790,20.630,7.582,hard
1544.000,300.300,67.450,16.610,902.100,176.900,40.280,8.793,192.400,44.250,12.610,4.004,335.200,71.000,20.830,7.628,hard
1550.000,302.300,68.460,16.710,907.100,178.200,40.230,8.836,194.200,44.200,12.580,4.009,334.700,71.100,20.840,7.660,hard
1551.000,304.400,68.280,16.670,908.000,178.000,40.390,8.826,194.400,44.210,12.610,4.027,336.000,71.610,20.950,7.679,hard
1557.000,303.600,68.640,17.040,904.400,179.800,40.640,8.906,193.700,44.500,12.690,4.052,337.800,72.350,21.140,7.778,hard
1565.000,307.700,69.060,17.070,905.400,179.300,40.590,8.914,196.100,44.590,12.670,4.056,339.300,72.550,21.330,7.882,hard
1572.000,311.400,69.490,17.190,910.500,180.000,40.620,8.854,196.200,45.010,12.690,4.074,342.600,72.640,21.240,7.734,hard
1551.000,305.000,67.120,16.650,899.700,177.600,40.160,8.818,197.100,44.240,12.580,4.002,334.000,70.850,20.620,7.580,hard
1541.000,302.500,67.440,16.670,902.500,176.400,40.200,8.735,192.100,44.430,12.500,4.005,332.900,70.590,20.540,7.534,hard
1542.000,303.400,67.880,16.670,906.400,177.300,40.340,8.817,193.500,44.600,12.480,3.997,332.900,70.730,20.690,7.533,hard
1548.000,302.900,67.900,16.870,910.400,177.400,40.500,8.798,193.300,44.380,12.540,4.019,334.700,70.610,20.700,7.590,hard
1550.000,305.700,68.610,16.850,905.100,178.500,40.440,8.890,193.600,44.430,12.630,4.005,335.100,71.010,20.860,7.629,hard
1558.000,308.300,68.970,17.060,910.100,178.600,40.840,8.900,195.500,44.970,12.620,4.038,336.900,71.760,20.920,7.729,hard
1565.000,309.700,68.640,17.170,913.200,178.900,40.750,8.919,195.400,44.970,12.760,4.076,339.700,72.070,21.150,7.787,hard
1572.000,311.000,69.530,17.210,916.200,179.200,40.660,9.014,192.900,44.650,12.780,4.094,341.200,72.990,21.240,7.805,hard
1562.000,302.400,68.630,16.660,903.700,176.300,40.230,8.867,195.500,44.810,12.660,4.022,334.100,70.730,20.600,7.557,hard
1545.000,305.200,67.000,16.620,905.100,176.100,40.580,8.857,192.800,43.810,12.570,4.018,332.100,70.300,20.500,7.489,hard
1544.000,299.100,67.740,16.770,901.100,176.800,40.150,8.819,191.800,44.250,12.560,4.010,333.200,70.640,20.520,7.536,hard
1550.000,304.300,68.090,16.710,903.700,179.000,40.420,8.849,195.000,44.540,12.600,4.049,333.800,70.590,20.710,7.552,hard
1553.000,305.100,67.830,16.950,901.700,177.900,40.290,8.814,197.000,44.300,12.600,4.028,335.100,70.980,20.680,7.591,hard
1557.000,306.600,68.240,16.800,906.100,178.000,40.650,8.871,192.900,44.600,12.730,4.044,336.700,71.590,20.970,7.681,hard
1565.000,306.700,69.300,17.070,921.200,179.500,40.810,8.924,194.400,44.920,12.730,4.079,339.300,72.130,21.090,7.736,hard
1572.000,310.500,69.970,17.290,909.000,178.300,40.610,8.994,198.500,45.050,12.820,4.103,341.800,73.110,21.270,7.797,hard
1571.000,307.000,69.160,16.740,916.000,177.100,40.150,8.759,197.100,45.230,12.780,4.045,334.300,70.780,20.650,7.526,hard
1547.000,302.400,67.360,16.700,898.300,178.000,40.340,8.850,191.300,44.620,12.670,4.027,333.400,70.730,20.610,7.504,hard
1546.000,303.100,67.080,16.740,903.200,175.800,40.160,8.858,193.200,44.530,12.620,4.011,334.000,70.640,20.570,7.524,hard
1551.000,303.500,68.660,16.830,891.700,177.200,40.250,8.837,195.600,44.520,12.650,4.041,334.700,71.060,20.670,7.570,hard
1556.000,305.300,68.310,16.760,909.800,177.700,40.180,8.879,194.000,44.780,12.680,4.050,335.400,71.320,20.820,7.632,hard
1560.000,308.100,68.390,16.800,902.000,177.600,40.570,8.910,194.000,44.850,12.740,4.075,338.400,71.910,21.120,7.685,hard
1567.000,307.200,69.310,17.160,907.800,178.500,40.650,8.872,196.600,44.970,12.750,4.087,340.200,72.580,21.190,7.790,hard
1573.000,311.800,69.480,17.170,918.500,177.900,40.870,9.021,196.300,45.040,12.850,4.108,343.100,73.300,21.400,7.888,hard
1581.000,310.100,70.330,17.250,908.200,179.500,40.240,8.829,197.300,45.010,12.880,4.125,344.000,72.820,21.290,7.667,hard
1554.000,303.000,68.080,16.830,902.600,176.800,40.850,8.823,191.500,44.780,12.670,4.040,336.600,71.420,20.770,7.591,hard
1554.000,307.700,67.510,16.820,906.000,177.400,40.590,8.882,194.800,44.640,12.650,4.044,336.100,71.250,20.680,7.602,hard
1555.000,304.900,68.730,16.910,906.300,177.700,40.360,8.801,192.600,44.830,12.700,4.053,339.000,71.640,20.840,7.647,hard
1559.000,305.500,68.110,16.790,905.600,180.100,40.360,8.901,193.800,45.180,12.760,4.078,337.800,71.880,20.920,7.688,hard
1563.000,308.600,68.130,17.020,910.300,178.400,40.280,8.936,196.200,44.840,12.790,4.066,339.500,72.410,21.070,7.737,hard
1569.000,307.700,69.200,17.230,911.600,177.800,40.450,9.000,192.400,45.180,12.740,4.086,339.800,73.030,21.400,7.796,hard
1577.000,309.900,69.410,17.300,904.100,179.600,40.640,8.964,198.400,44.850,12.870,4.103,343.900,73.290,21.540,7.906,hard
1582.000,312.600,69.980,17.420,917.500,178.200,40.590,8.906,197.400,45.720,12.860,4.119,345.300,73.740,21.510,7.828,hard
1563.000,307.100,68.920,16.920,907.300,177.600,40.300,8.802,196.200,44.850,12.770,4.048,338.400,71.770,20.910,7.655,hard
1558.000,304.500,67.610,16.810,907.300,178.000,40.170,8.864,193.800,44.690,12.660,4.055,337.100,71.610,20.850,7.629,hard
1558.000,304.100,68.000,16.860,912.600,178.900,40.640,8.821,192.900,44.520,12.690,4.050,338.600,71.730,20.990,7.666,hard
1564.000,308.800,67.860,16.940,908.000,178.000,40.460,8.898,197.400,44.780,12.700,4.073,338.600,72.320,21.140,7.693,hard
1566.000,307.200,68.920,17.040,910.900,180.000,40.560,8.903,195.900,44.930,12.740,4.049,340.600,72.560,21.260,7.795,hard
1569.000,309.700,69.080,17.080,916.900,178.500,40.750,8.903,198.600,44.760,12.760,4.078,342.000,72.850,21.310,7.811,hard
1576.000,308.400,69.890,17.160,908.100,179.100,40.660,9.004,197.900,45.220,12.880,4.094,343.400,73.700,21.650,7.914,hard
1583.000,313.700,70.090,17.380,912.500,180.200,40.830,8.927,198.400,45.170,12.880,4.117,345.700,73.890,21.570,7.876,hard
1564.000,304.000,68.660,16.900,909.600,177.900,40.320,8.948,195.200,44.680,12.750,4.039,339.200,71.980,20.900,7.648,hard
1557.000,301.200,68.170,16.890,901.900,176.200,40.200,8.835,193.900,44.970,12.670,4.026,336.900,71.490,20.870,7.643,hard
1553.000,308.200,67.590,16.870,901.600,177.500,41.120,8.836,195.300,44.390,12.660,4.045,338.900,71.640,21.060,7.665,hard
1561.000,305.100,68.220,16.890,901.500,180.500,40.510,8.860,195.100,44.600,12.740,4.056,338.300,71.800,21.010,7.720,hard
1560.000,305.800,68.500,16.830,908.700,178.400,40.500,8.843,197.100,44.820,12.680,4.064,339.400,72.210,21.290,7.739,hard
1567.000,308.000,68.360,16.990,902.000,177.800,41.080,8.963,197.100,45.180,12.740,4.078,341.300,72.880,21.320,7.812,hard
1571.000,308.900,68.940,17.050,908.100,179.100,40.970,9.022,196.400,45.270,12.810,4.095,344.400,73.650,21.590,7.887,hard
1581.000,313.400,69.840,17.280,914.400,180.800,40.810,9.025,195.800,45.580,12.880,4.102,346.300,74.260,21.750,7.957,hard
1581.000,305.200,68.720,16.890,906.800,178.400,40.400,8.913,197.900,44.720,12.790,4.070,340.100,72.410,21.090,7.702,hard
1553.000,305.700,68.320,16.690,908.600,175.400,40.660,8.914,196.400,45.000,12.650,4.035,337.800,71.640,21.050,7.632,hard
1552.000,301.600,68.150,16.700,900.200,176.000,40.400,8.825,195.300,44.420,12.690,4.022,336.200,71.800,21.030,7.638,hard
1554.000,301.800,67.670,16.830,913.500,178.700,40.520,8.895,194.500,44.740,12.750,4.059,338.500,71.920,21.030,7.721,hard
1558.000,306.000,68.090,16.880,904.400,177.400,40.500,8.882,195.800,45.230,12.670,4.031,340.400,72.100,21.110,7.714,hard
1561.000,304.500,67.970,16.950,910.300,179.400,40.960,8.874,195.600,44.960,12.740,4.073,341.700,72.740,21.400,7.791,hard
1567.000,307.500,69.410,17.140,903.900,179.300,40.420,8.952,195.000,45.260,12.800,4.086,342.800,73.470,21.590,7.896,hard
1574.000,310.900,68.760,17.180,915.500,179.500,41.280,8.967,197.300,45.060,12.770,4.097,345.900,73.840,21.700,8.003,hard
1580.000,314.400,69.220,17.070,909.000,177.900,40.460,8.824,197.300,45.600,12.830,4.087,344.900,73.130,21.320,7.750,hard
1549.000,304.000,67.590,16.740,898.500,177.900,40.110,8.889,195.200,44.790,12.610,4.031,338.700,71.670,20.990,7.676,hard
1548.000,304.100,67.890,16.540,907.000,176.700,40.190,8.711,199.900,44.630,12.640,4.025,338.300,71.840,20.910,7.638,hard
1548.000,305.600,67.770,16.740,896.600,178.000,40.320,8.849,192.900,44.560,12.700,4.067,339.000,71.950,21.060,7.715,hard
1551.000,305.200,67.010,16.780,900.700,177.500,40.230,8.832,198.300,44.660,12.730,4.057,339.400,72.160,21.130,7.760,hard
1555.000,303.200,67.770,16.810,907.600,176.800,40.470,8.782,193.800,45.050,12.720,4.067,341.400,72.360,21.330,7.818,hard
1561.000,307.300,70.090,16.880,905.000,178.800,40.380,8.885,195.800,45.050,12.750,4.068,342.500,73.000,21.540,7.888,hard
1567.000,309.800,69.730,16.950,908.000,177.800,40.590,8.976,196.100,45.280,12.820,4.106,345.100,74.110,21.650,8.021,hard
1574.000,311.800,69.790,17.200,909.100,178.900,40.550,9.041,196.600,45.290,12.910,4.121,347.000,74.440,21.860,7.989,hard
1566.000,306.800,67.760,16.700,901.600,176.700,39.800,8.895,196.700,44.890,12.740,4.050,339.900,71.850,21.100,7.733,hard
1543.000,302.000,67.110,16.560,905.000,176.200,40.210,8.830,196.400,44.440,12.620,4.038,338.200,71.790,20.960,7.681,hard
1544.000,303.500,66.830,16.680,901.900,176.300,40.030,8.787,195.700,44.470,12.580,4.037,338.100,71.920,21.100,7.734,hard
1548.000,303.900,68.300,16.580,898.100,177.800,40.360,8.810,192.700,44.690,12.670,4.065,339.100,72.120,21.150,7.772,hard
1554.000,305.600,68.370,16.720,901.700,178.100,40.100,8.877,195.200,44.620,12.730,4.064,340.200,72.420,21.180,7.821,hard
1555.000,304.200,68.450,16.790,900.100,178.100,40.470,8.814,196.000,44.830,12.760,4.077,342.200,72.420,21.550,7.909,hard
1561.000,307.100,68.200,16.920,907.500,177.900,40.490,8.893,197.000,44.930,12.780,4.084,342.800,73.480,21.710,7.970,hard
1567.000,308.200,69.280,17.060,907.200,178.500,40.310,8.875,198.200,45.230,12.890,4.120,346.100,74.100,21.870,8.028,hard
1572.000,307.300,68.560,16.820,901.700,177.100,40.040,8.780,198.100,45.250,12.850,4.062,339.300,72.180,21.180,7.814,hard
1545.000,300.800,67.660,16.750,897.000,177.100,40.190,8.800,195.300,44.370,12.630,4.034,337.600,71.950,21.040,7.703,hard
1545.000,304.100,67.780,16.540,896.000,177.800,40.250,8.786,195.700,44.540,12.630,4.041,336.200,71.730,21.180,7.758,hard
1549.000,303.700,67.720,16.690,909.500,177.300,39.990,8.816,197.300,44.600,12.710,4.052,338.600,72.230,21.190,7.797,hard
1550.000,305.400,67.830,16.540,901.300,176.700,40.380,8.896,194.400,44.590,12.660,4.061,338.800,72.300,21.250,7.824,hard
1556.000,306.700,67.950,17.020,902.600,178.200,40.690,8.882,195.600,44.570,12.700,4.073,339.800,72.560,21.460,7.880,hard
1559.000,306.600,68.650,16.850,905.500,177.200,40.800,8.952,196.700,45.230,12.730,4.091,341.400,73.490,21.620,7.983,hard
1567.000,309.000,69.820,17.140,914.000,178.900,40.960,8.998,198.400,45.320,12.820,4.104,345.200,73.530,21.910,8.030,hard
1571.000,307.500,68.910,16.720,908.700,177.400,40.330,8.800,195.900,45.030,12.770,4.076,339.500,71.910,21.110,7.725,hard
1541.000,300.500,67.430,16.610,899.000,176.500,40.060,8.863,195.700,44.470,12.610,4.024,336.200,71.570,20.890,7.661,hard
1542.000,303.300,67.280,16.530,902.200,177.700,40.540,8.838,192.700,44.480,12.640,4.006,335.100,71.040,20.870,7.670,hard
1543.000,302.100,67.860,16.560,899.200,178.800,39.870,8.929,195.400,44.480,12.650,4.020,335.900,71.280,20.940,7.721,hard
1546.000,304.400,67.680,16.640,901.700,179.600,40.500,8.928,194.800,44.350,12.610,4.050,336.900,71.340,21.080,7.749,hard
