A-DC1,A-DC2,A-DC3,A-DC4,A-DC5,A-DC6,A-DC7,A-DC8,B-DC1,B-DC2,B-DC3,B-DC4,B-DC5,B-DC6,B-DC7,B-DC8,condition
1630.000,345.600,68.240,14.690,1924.000,358.900,75.120,14.590,309.700,68.420,16.600,4.550,458.400,103.100,28.950,7.845,baseline
1642.000,349.100,69.410,14.860,1924.000,361.100,75.270,14.650,308.300,68.190,16.580,4.553,459.700,103.500,29.090,7.879,baseline
1658.000,351.200,69.820,15.090,1934.000,360.000,75.050,14.470,307.700,68.180,16.650,4.574,460.500,103.800,28.920,7.776,baseline
1630.000,344.400,67.500,14.470,1899.000,356.200,73.610,14.320,307.000,67.570,16.410,4.483,451.900,101.500,28.160,7.594,baseline
1600.000,338.100,67.070,14.330,1894.000,354.000,73.750,14.310,305.700,67.070,16.370,4.451,449.300,100.800,28.190,7.560,baseline
1605.000,340.100,67.420,14.380,1905.000,355.200,74.200,14.380,303.000,66.990,16.370,4.470,451.100,101.300,28.290,7.606,baseline
1617.000,341.500,67.610,14.390,1909.000,355.400,74.110,14.370,305.800,67.100,16.300,4.461,450.400,101.400,28.380,7.607,baseline
1621.000,343.200,68.040,14.500,1909.000,356.500,74.390,14.430,306.600,67.330,16.340,4.470,452.200,101.700,28.440,7.674,baseline
1633.000,346.100,68.670,14.740,1921.000,358.200,74.700,14.530,306.300,67.520,16.390,4.481,453.900,102.000,28.580,7.696,baseline
1648.000,350.600,69.120,14.920,1932.000,359.800,74.890,14.480,304.700,67.580,16.430,4.497,454.800,102.500,28.660,7.713,baseline
1634.000,343.900,67.730,14.340,1904.000,353.600,73.280,14.200,305.800,67.490,16.290,4.436,448.600,100.600,27.970,7.506,baseline
1596.000,336.700,66.190,14.210,1897.000,353.200,73.200,14.210,301.300,66.950,16.160,4.410,446.400,99.810,27.790,7.466,baseline
1597.000,337.200,66.530,14.220,1891.000,353.200,73.410,14.200,302.900,66.610,16.160,4.416,446.200,100.100,27.880,7.483,baseline
1603.000,337.700,66.860,14.150,1889.000,353.500,73.240,14.210,304.700,66.620,16.090,4.391,445.500,99.790,27.810,7.487,baseline
1599.000,337.900,66.620,14.210,1887.000,351.600,73.300,14.190,298.600,66.560,16.180,4.392,446.100,99.890,27.860,7.515,baseline
1605.000,339.800,67.050,14.440,1894.000,352.500,73.680,14.310,302.400,66.780,16.230,4.417,447.600,100.500,28.110,7.550,baseline
1619.000,341.800,68.050,14.550,1901.000,353.600,73.760,14.130,303.300,66.740,16.250,4.432,448.800,100.500,27.980,7.494,baseline
1595.000,336.600,65.970,14.050,1871.000,347.700,72.480,13.970,302.400,66.590,16.070,4.377,441.900,98.740,27.390,7.351,baseline
1567.000,332.100,64.780,13.840,1866.000,346.800,72.460,13.960,298.200,65.690,15.990,4.364,440.100,98.450,27.350,7.324,baseline
1566.000,331.900,65.170,13.870,1871.000,346.800,72.340,13.970,299.700,65.850,15.990,4.364,440.600,98.350,27.430,7.347,baseline
1573.000,332.300,65.250,13.930,1868.000,346.300,72.210,13.960,300.100,66.220,16.040,4.360,440.100,97.880,27.310,7.332,baseline
1574.000,332.400,65.120,13.880,1868.000,348.000,72.020,14.020,300.900,65.600,15.960,4.364,440.200,98.210,27.360,7.334,baseline
1582.000,334.600,65.920,14.000,1871.000,347.100,72.330,14.070,298.700,65.310,15.970,4.373,441.500,98.610,27.520,7.387,baseline
1594.000,337.100,66.220,14.100,1870.000,346.700,71.960,13.840,300.500,65.720,15.990,4.384,441.600,98.330,27.300,7.300,baseline
1559.000,327.900,64.080,13.630,1844.000,341.900,70.990,13.700,297.400,65.200,15.830,4.311,434.100,96.500,26.710,7.140,baseline
1539.000,326.100,63.400,13.510,1834.000,339.500,70.830,13.650,293.200,64.960,15.750,4.284,432.500,95.890,26.610,7.127,baseline
1536.000,324.200,63.280,13.540,1837.000,341.500,70.690,13.740,291.800,64.920,15.760,4.294,433.100,96.100,26.710,7.160,baseline
1544.000,325.400,63.380,13.490,1844.000,340.900,71.070,13.720,296.600,64.930,15.780,4.306,434.200,96.140,26.720,7.137,baseline
1548.000,325.000,64.140,13.560,1848.000,341.900,71.090,13.740,296.400,64.670,15.750,4.310,434.000,96.600,26.780,7.186,baseline
1560.000,329.000,64.480,13.730,1861.000,343.200,71.490,13.840,297.000,65.230,15.820,4.306,435.300,96.760,26.850,7.210,baseline
1575.000,331.600,64.470,13.770,1855.000,341.300,70.560,13.650,297.500,65.220,15.820,4.326,434.800,96.310,26.580,7.068,baseline
1538.000,322.500,62.790,13.290,1838.000,338.300,69.890,13.540,294.800,64.710,15.650,4.250,427.600,94.500,26.120,6.975,baseline
1521.000,318.400,62.130,13.120,1827.000,335.700,69.760,13.530,293.600,64.180,15.580,4.241,426.200,94.170,26.000,6.921,baseline
1516.000,316.100,62.220,13.140,1823.000,335.900,69.480,13.430,291.000,63.800,15.590,4.246,426.000,94.080,26.000,6.939,baseline
1515.000,316.300,61.770,13.140,1815.000,334.700,69.070,13.430,291.300,63.800,15.550,4.239,425.400,93.820,25.970,6.956,baseline
1513.000,316.900,61.900,13.160,1813.000,333.700,69.310,13.440,294.500,63.950,15.550,4.248,426.800,94.060,25.970,6.960,baseline
1521.000,317.800,62.690,13.300,1817.000,333.900,69.490,13.520,292.600,64.150,15.560,4.241,427.600,94.030,26.190,7.007,baseline
1529.000,319.000,62.640,13.440,1822.000,334.400,69.120,13.390,292.000,63.950,15.540,4.253,427.600,94.170,26.090,6.952,baseline
1512.000,315.500,61.320,13.010,1793.000,328.900,68.090,13.180,292.200,63.250,15.370,4.191,418.800,91.960,25.330,6.745,baseline
1483.000,311.500,60.360,12.850,1781.000,326.500,67.820,13.120,286.400,62.840,15.180,4.166,414.600,91.030,25.120,6.697,baseline
1477.000,308.000,59.680,12.840,1778.000,326.100,67.520,13.130,283.400,62.160,15.220,4.157,414.300,90.640,25.240,6.723,baseline
1476.000,308.200,60.140,12.790,1773.000,324.500,67.340,13.080,287.200,62.230,15.170,4.154,413.000,90.400,25.130,6.709,baseline
1473.000,307.500,60.030,12.740,1765.000,324.700,67.480,13.120,286.800,62.250,15.200,4.153,414.000,90.690,25.190,6.733,baseline
1481.000,309.400,60.280,12.920,1777.000,326.000,67.400,13.150,283.600,62.490,15.190,4.167,415.100,90.940,25.290,6.767,baseline
1489.000,310.900,60.760,13.020,1780.000,326.800,67.730,13.230,287.700,62.400,15.230,4.178,415.700,91.110,25.420,6.787,baseline
1499.000,311.600,60.940,12.920,1774.000,324.800,66.950,12.970,285.900,62.550,15.220,4.180,414.200,90.360,25.030,6.671,baseline
1463.000,303.500,59.360,12.600,1756.000,321.600,66.400,12.940,284.700,62.190,15.060,4.134,409.200,89.280,24.700,6.563,baseline
1453.000,303.800,58.810,12.530,1756.000,319.700,66.340,12.900,282.400,61.600,14.970,4.125,408.900,88.900,24.680,6.581,baseline
1454.000,302.600,59.400,12.630,1750.000,320.100,66.090,12.870,281.900,61.740,15.090,4.134,408.600,89.480,24.720,6.598,baseline
1453.000,302.700,58.950,12.550,1745.000,319.300,66.100,12.920,285.000,61.770,15.070,4.146,410.400,89.150,24.800,6.632,baseline
1453.000,302.500,59.130,12.640,1750.000,319.800,66.050,12.890,285.500,61.450,15.160,4.158,412.300,89.930,24.960,6.704,baseline
1462.000,303.900,59.340,12.760,1758.000,320.500,66.360,12.920,284.500,62.370,15.210,4.195,414.600,90.570,25.160,6.752,baseline
1473.000,307.100,59.880,12.860,1757.000,320.400,66.190,12.830,286.500,62.560,15.270,4.216,416.300,90.810,25.160,6.683,baseline
1450.000,301.500,58.030,12.420,1737.000,316.700,65.740,12.780,287.400,62.180,15.120,4.157,410.000,89.280,24.600,6.562,baseline
1434.000,297.700,58.080,12.340,1731.000,315.800,65.370,12.710,284.800,62.090,15.070,4.141,409.600,88.880,24.530,6.556,baseline
1431.000,299.200,58.010,12.340,1727.000,315.000,65.120,12.710,285.200,61.920,15.060,4.153,409.800,89.060,24.550,6.596,baseline
1432.000,298.200,57.990,12.340,1729.000,315.300,65.160,12.660,285.100,61.830,15.070,4.166,409.500,89.170,24.630,6.569,baseline
1432.000,297.600,58.120,12.420,1729.000,316.200,65.280,12.710,286.200,62.170,15.140,4.153,410.400,89.390,24.680,6.620,baseline
1440.000,300.000,58.400,12.510,1731.000,317.100,65.440,12.820,284.400,62.510,15.190,4.190,412.800,89.930,24.960,6.663,baseline
1452.000,302.400,59.070,12.700,1740.000,317.500,65.750,12.920,284.900,62.350,15.230,4.209,414.500,90.220,25.060,6.722,baseline
1458.000,302.000,58.750,12.490,1731.000,315.800,65.120,12.640,287.500,62.390,15.170,4.198,410.400,89.120,24.520,6.523,baseline
1424.000,295.300,57.400,12.280,1723.000,313.100,64.520,12.620,282.600,61.500,15.030,4.133,406.300,88.130,24.320,6.472,baseline
1418.000,294.500,57.390,12.160,1714.000,312.000,64.630,12.570,280.600,61.560,14.960,4.125,404.400,87.960,24.240,6.450,baseline
1418.000,293.900,57.140,12.290,1712.000,310.600,64.560,12.590,283.200,61.190,14.970,4.140,405.000,87.810,24.230,6.472,baseline
1417.000,294.300,57.100,12.220,1713.000,311.500,64.520,12.630,281.600,61.550,15.000,4.135,404.400,87.870,24.320,6.494,baseline
1422.000,294.900,57.920,12.390,1719.000,313.300,64.990,12.680,279.200,61.570,15.030,4.148,405.800,88.300,24.320,6.518,baseline
1432.000,297.300,58.190,12.490,1732.000,313.600,65.230,12.760,281.600,61.770,15.060,4.165,407.400,88.620,24.590,6.593,baseline
1444.000,300.300,58.890,12.630,1740.000,315.900,65.650,12.870,282.700,61.890,15.130,4.192,410.300,89.210,24.740,6.665,baseline
1456.000,303.400,59.200,12.640,1731.000,315.100,65.180,12.710,285.400,61.950,15.160,4.199,409.700,88.610,24.450,6.525,baseline
1422.000,294.700,57.660,12.240,1714.000,312.800,64.670,12.640,280.900,61.430,14.990,4.142,403.900,87.410,24.070,6.415,baseline
1414.000,293.200,57.080,12.240,1714.000,311.200,64.630,12.590,281.700,61.240,14.950,4.138,401.900,87.300,24.020,6.438,baseline
1413.000,294.600,57.350,12.270,1709.000,311.800,64.720,12.660,280.700,61.170,14.980,4.136,402.900,87.590,24.140,6.464,baseline
1417.000,293.700,57.410,12.300,1710.000,312.000,64.420,12.670,281.300,61.050,15.000,4.157,404.100,87.780,24.200,6.470,baseline
1421.000,296.100,57.530,12.400,1715.000,312.700,64.880,12.690,284.300,61.600,15.070,4.174,406.500,88.460,24.400,6.553,baseline
1431.000,297.900,58.200,12.590,1723.000,314.200,65.210,12.780,283.300,62.230,15.140,4.190,409.700,88.990,24.710,6.596,baseline
1445.000,301.400,58.880,12.680,1734.000,317.200,65.800,12.850,284.000,62.270,15.270,4.232,411.500,89.800,24.860,6.700,baseline
1458.000,304.100,59.670,12.800,1751.000,318.700,66.300,12.980,286.200,62.400,15.350,4.257,414.600,90.680,25.150,6.768,baseline
1467.000,305.200,58.880,12.660,1732.000,315.700,65.280,12.730,284.100,62.630,15.390,4.241,411.500,89.600,24.720,6.582,baseline
1429.000,296.400,57.790,12.420,1727.000,314.100,65.190,12.740,282.400,62.000,15.210,4.190,408.000,88.540,24.440,6.513,baseline
1426.000,297.500,57.670,12.360,1729.000,314.100,65.320,12.730,283.600,61.980,15.160,4.206,407.900,89.000,24.440,6.575,baseline
1431.000,297.200,58.330,12.390,1734.000,315.000,65.420,12.770,284.900,62.230,15.230,4.212,409.000,89.100,24.610,6.565,baseline
1435.000,297.300,58.560,12.420,1733.000,316.100,65.430,12.770,284.800,62.210,15.250,4.230,411.300,89.190,24.690,6.612,baseline
1441.000,299.000,58.670,12.560,1739.000,317.700,66.020,12.890,284.000,62.670,15.290,4.238,411.800,89.860,24.800,6.666,baseline
1454.000,303.900,59.100,12.740,1747.000,319.200,66.360,12.950,284.200,62.390,15.340,4.273,414.000,90.440,25.050,6.771,baseline
1467.000,307.100,60.240,12.860,1757.000,321.000,66.830,13.040,287.900,63.030,15.460,4.291,416.600,90.900,25.250,6.797,baseline
1482.000,309.300,60.560,12.980,1757.000,320.400,66.420,12.970,288.400,63.200,15.530,4.303,416.800,91.010,25.080,6.710,baseline
1455.000,303.400,58.700,12.540,1741.000,317.200,65.980,12.850,286.700,62.980,15.330,4.248,412.700,89.580,24.680,6.623,baseline
1443.000,299.400,58.180,12.480,1740.000,317.700,65.980,12.860,286.200,62.800,15.290,4.245,412.900,89.670,24.840,6.619,baseline
1446.000,301.200,58.690,12.570,1744.000,318.800,66.190,12.930,288.200,62.870,15.410,4.264,415.300,90.680,24.950,6.672,baseline
1452.000,302.200,59.190,12.550,1750.000,318.300,66.170,12.950,284.600,63.070,15.470,4.278,415.700,90.420,24.960,6.681,baseline
1456.000,302.800,59.270,12.640,1755.000,320.600,66.480,12.980,285.300,63.060,15.520,4.288,416.700,90.950,25.110,6.718,baseline
1469.000,306.200,60.170,12.880,1764.000,322.100,66.780,13.070,288.200,63.440,15.530,4.292,419.900,91.710,25.380,6.807,baseline
1482.000,308.900,60.580,12.990,1772.000,323.300,67.130,13.190,290.400,63.580,15.620,4.316,422.300,92.570,25.650,6.905,baseline
1494.000,310.800,61.160,13.140,1764.000,322.900,67.060,13.070,291.500,63.810,15.710,4.351,423.700,92.660,25.540,6.814,baseline
1465.000,304.000,59.480,12.670,1750.000,319.000,66.020,12.900,287.100,63.660,15.600,4.298,418.000,91.460,25.070,6.703,baseline
1450.000,301.000,58.840,12.650,1748.000,319.900,66.270,12.920,289.700,63.400,15.550,4.284,416.800,91.300,25.080,6.693,baseline
1455.000,303.100,59.180,12.610,1760.000,320.300,66.960,13.050,287.100,63.670,15.600,4.303,417.400,91.660,25.200,6.717,baseline
1474.000,306.200,59.510,12.790,1776.000,324.700,67.360,13.090,288.800,63.800,15.650,4.315,418.800,92.010,25.320,6.738,baseline
1485.000,306.800,60.100,12.800,1785.000,325.300,67.550,13.170,291.000,64.160,15.630,4.329,420.000,92.110,25.400,6.778,baseline
1497.000,312.500,60.670,13.000,1791.000,327.000,68.040,13.380,291.100,64.080,15.690,4.356,422.100,92.820,25.620,6.860,baseline
1510.000,314.700,61.260,13.200,1802.000,329.100,68.270,13.360,289.100,64.390,15.760,4.369,424.300,93.190,25.870,6.933,baseline
1523.000,316.700,62.180,13.320,1804.000,328.700,68.100,13.280,291.700,64.680,15.840,4.384,425.700,93.290,25.710,6.857,baseline
1496.000,309.000,60.270,12.850,1780.000,324.800,67.320,13.110,291.400,64.060,15.650,4.308,418.700,91.820,25.100,6.689,baseline
1475.000,305.500,59.830,12.700,1771.000,323.900,66.990,13.060,288.600,63.690,15.550,4.304,417.700,91.550,25.050,6.692,baseline
1472.000,306.300,59.880,12.810,1778.000,324.400,67.250,13.160,288.200,63.680,15.630,4.302,418.200,92.000,25.200,6.735,baseline
1480.000,307.800,60.110,12.820,1776.000,324.500,67.460,13.100,289.200,63.700,15.610,4.327,419.500,91.820,25.280,6.733,baseline
1480.000,308.900,60.230,12.860,1781.000,324.900,67.540,13.220,291.200,64.120,15.670,4.326,420.900,92.200,25.450,6.789,baseline
1493.000,311.000,60.720,13.060,1785.000,326.800,68.130,13.270,290.900,63.760,15.750,4.351,422.300,92.740,25.600,6.864,baseline
1508.000,315.600,61.440,13.220,1794.000,328.600,68.440,13.420,293.500,64.610,15.790,4.368,425.500,93.560,25.890,6.939,baseline
1524.000,318.500,62.030,13.460,1809.000,329.900,68.810,13.430,295.500,64.820,15.960,4.415,428.700,94.120,26.010,6.956,baseline
1517.000,314.000,60.950,13.030,1786.000,325.600,67.620,13.190,295.300,64.850,15.800,4.361,423.400,92.710,25.510,6.781,baseline
1480.000,307.600,60.020,12.820,1781.000,325.400,67.540,13.120,293.300,63.960,15.720,4.342,420.800,92.330,25.400,6.764,baseline
1481.000,308.200,60.270,12.810,1778.000,324.700,67.490,13.210,291.300,64.220,15.830,4.350,421.800,92.710,25.470,6.789,baseline
1487.000,308.100,60.520,12.870,1780.000,324.600,67.630,13.230,292.500,64.570,15.880,4.362,423.000,93.080,25.570,6.839,baseline
1490.000,309.600,60.560,12.920,1789.000,326.100,68.010,13.270,294.800,64.880,15.890,4.363,424.400,93.560,25.700,6.865,baseline
1504.000,311.100,61.490,13.150,1799.000,329.500,68.540,13.370,294.500,64.930,15.930,4.383,427.000,94.040,25.940,6.923,baseline
1523.000,316.400,62.400,13.370,1816.000,332.400,69.240,13.480,294.900,65.240,16.030,4.421,430.200,94.930,26.240,7.012,baseline
1542.000,320.200,62.930,13.640,1829.000,334.000,69.440,13.550,294.400,65.460,16.100,4.440,431.900,95.550,26.480,7.041,baseline
1544.000,319.400,62.260,13.190,1804.000,329.400,68.270,13.310,296.700,65.410,16.080,4.409,427.900,94.100,25.740,6.830,baseline
1500.000,311.100,60.560,12.890,1798.000,327.700,68.130,13.280,294.200,65.100,15.870,4.366,424.500,93.410,25.620,6.806,baseline
1499.000,312.100,61.080,12.950,1799.000,328.500,68.250,13.290,293.800,64.910,15.830,4.358,423.700,93.420,25.660,6.839,baseline
1508.000,312.000,61.310,13.040,1804.000,328.500,68.370,13.340,291.800,65.090,15.910,4.372,424.500,93.570,25.790,6.863,baseline
1507.000,313.600,61.400,13.100,1802.000,329.200,68.470,13.370,295.200,65.390,15.940,4.383,426.600,93.670,25.900,6.899,baseline
1515.000,316.200,61.740,13.280,1813.000,331.400,69.010,13.440,294.100,65.250,15.990,4.398,427.300,94.250,26.070,6.959,baseline
1531.000,319.500,62.560,13.440,1817.000,333.600,69.280,13.540,295.900,65.210,16.030,4.412,429.500,95.080,26.350,7.054,baseline
1546.000,321.400,63.140,13.580,1815.000,331.400,68.570,13.370,292.800,65.610,16.120,4.430,429.900,94.870,26.080,6.932,baseline
1508.000,313.400,61.070,12.980,1798.000,329.200,68.400,13.310,295.700,65.210,15.920,4.370,422.900,93.330,25.610,6.812,baseline
1495.000,311.300,60.650,12.970,1796.000,327.300,68.400,13.300,293.000,64.760,15.840,4.360,422.500,93.050,25.590,6.800,baseline
1500.000,312.400,61.230,13.080,1797.000,328.900,68.710,13.350,294.300,65.100,15.960,4.360,423.500,93.350,25.680,6.869,baseline
1507.000,312.600,61.400,13.090,1798.000,329.500,68.280,13.320,293.500,64.980,15.930,4.373,423.400,93.630,25.650,6.872,baseline
1509.000,316.100,61.610,13.180,1806.000,330.700,68.820,13.440,293.100,65.080,15.890,4.391,425.500,93.960,25.940,6.925,baseline
1526.000,318.500,62.600,13.410,1818.000,332.500,69.370,13.470,294.000,64.800,15.970,4.397,427.100,94.400,26.180,6.972,baseline
1545.000,321.100,63.200,13.610,1827.000,334.900,70.080,13.550,294.800,65.200,16.030,4.407,430.100,94.950,26.310,7.016,baseline
1548.000,319.800,62.280,13.250,1814.000,330.300,68.690,13.320,295.000,65.180,15.970,4.373,424.900,93.030,25.660,6.804,baseline
1504.000,313.200,61.020,12.970,1803.000,329.000,68.480,13.310,293.900,64.420,15.790,4.332,420.600,92.420,25.380,6.749,baseline
1499.000,312.800,60.670,13.010,1795.000,328.300,68.410,13.360,291.900,64.490,15.810,4.331,420.300,92.210,25.420,6.803,baseline
1505.000,311.800,61.090,13.040,1797.000,329.100,68.510,13.350,293.400,64.370,15.750,4.350,421.100,92.100,25.500,6.795,baseline
1505.000,314.400,61.140,13.080,1802.000,328.700,68.520,13.390,294.100,64.520,15.830,4.356,421.100,92.420,25.510,6.824,baseline
1513.000,315.700,61.790,13.200,1796.000,329.900,68.970,13.420,291.200,64.570,15.820,4.353,422.100,92.880,25.640,6.877,baseline
1524.000,317.600,62.590,13.420,1809.000,331.100,69.210,13.470,293.000,64.520,15.860,4.367,424.600,93.460,25.940,6.955,baseline
1536.000,321.900,62.990,13.420,1802.000,330.700,68.870,13.320,294.700,64.370,15.910,4.368,423.600,93.000,25.730,6.823,baseline
1498.000,310.700,60.490,12.930,1783.000,327.300,67.830,13.220,291.000,64.400,15.740,4.308,417.800,91.480,25.180,6.710,baseline
1483.000,309.700,60.070,12.830,1775.000,324.700,67.820,13.210,291.400,63.830,15.640,4.300,415.900,91.080,25.110,6.707,baseline
1481.000,308.500,60.400,12.930,1783.000,325.600,68.010,13.250,292.800,63.940,15.690,4.316,418.000,91.520,25.230,6.717,baseline
1488.000,309.600,60.380,12.980,1780.000,324.300,67.850,13.240,290.200,64.460,15.720,4.329,418.000,91.580,25.340,6.732,baseline
1489.000,311.400,60.680,12.980,1788.000,326.800,68.180,13.260,289.600,64.210,15.750,4.330,418.600,91.900,25.380,6.773,baseline
1501.000,313.400,61.240,13.180,1794.000,328.000,68.390,13.390,291.300,63.920,15.820,4.358,421.500,92.700,25.610,6.864,baseline
1513.000,317.300,61.970,13.340,1798.000,330.200,68.770,13.410,292.000,64.280,15.850,4.383,423.600,93.290,25.830,6.914,baseline
1516.000,315.200,61.830,13.060,1784.000,325.500,67.740,13.170,292.500,64.370,15.830,4.354,419.300,91.920,25.210,6.700,baseline
1476.000,307.200,60.180,12.770,1776.000,324.500,67.300,13.180,289.800,64.090,15.640,4.301,415.900,90.960,25.030,6.666,baseline
1473.000,306.800,59.840,12.820,1764.000,324.400,67.460,13.150,288.500,63.770,15.700,4.314,415.900,91.060,25.030,6.674,baseline
1478.000,308.300,60.020,12.850,1772.000,324.400,67.530,13.150,288.900,63.860,15.660,4.322,417.100,91.100,25.250,6.727,baseline
1479.000,307.500,60.320,12.850,1773.000,324.100,67.820,13.160,290.500,64.180,15.710,4.322,418.300,91.640,25.210,6.749,baseline
1487.000,310.800,60.940,13.100,1781.000,326.800,68.160,13.270,291.400,64.200,15.750,4.349,420.300,92.120,25.510,6.812,baseline
1502.000,315.100,61.320,13.180,1793.000,329.900,68.490,13.340,294.300,64.400,15.890,4.362,424.800,93.290,25.820,6.895,baseline
1520.000,318.400,62.340,13.330,1799.000,328.900,68.230,13.280,296.900,65.340,16.010,4.412,427.600,94.100,25.860,6.831,baseline
1496.000,310.100,60.350,12.820,1784.000,325.600,67.660,13.190,298.400,64.920,15.900,4.366,422.100,92.630,25.480,6.743,baseline
1481.000,308.700,59.850,12.810,1785.000,325.400,67.700,13.230,295.600,64.610,15.900,4.369,420.800,92.900,25.610,6.793,baseline
1485.000,308.600,60.300,12.910,1783.000,327.300,68.120,13.230,297.500,65.400,15.960,4.393,425.000,93.650,25.850,6.872,baseline
1495.000,310.900,60.720,12.890,1798.000,327.200,68.340,13.320,294.200,65.440,16.060,4.411,426.400,93.820,25.910,6.900,baseline
1505.000,313.300,61.220,13.110,1805.000,330.800,69.130,13.420,296.200,65.730,16.100,4.425,427.800,94.500,26.020,6.931,baseline
1525.000,316.600,62.150,13.300,1821.000,333.100,69.390,13.480,297.600,66.110,16.190,4.461,430.600,94.920,26.250,7.036,baseline
1543.000,320.000,62.810,13.520,1828.000,334.700,69.910,13.520,299.500,66.020,16.250,4.479,432.800,95.810,26.490,7.075,baseline
1541.000,318.500,61.490,13.070,1815.000,329.000,68.570,13.290,299.700,66.090,16.190,4.433,428.600,94.310,25.920,6.862,baseline
1500.000,310.600,60.030,12.890,1802.000,328.800,68.130,13.280,297.600,65.590,16.080,4.405,426.800,94.130,25.850,6.835,baseline
1498.000,310.700,60.350,12.910,1803.000,328.600,68.650,13.270,299.300,66.020,16.100,4.406,426.700,94.490,25.930,6.881,baseline
1505.000,311.900,60.580,12.930,1806.000,329.200,68.330,13.250,299.900,65.900,16.140,4.436,429.000,94.530,26.000,6.882,baseline
1510.000,312.400,60.640,12.960,1814.000,329.900,68.790,13.350,297.100,65.910,16.190,4.441,429.100,94.800,26.070,6.955,baseline
1519.000,314.900,61.390,13.110,1818.000,331.300,68.980,13.410,298.900,66.250,16.180,4.456,431.700,95.130,26.190,7.003,baseline
1531.000,317.200,62.320,13.260,1827.000,333.700,69.780,13.500,300.700,66.120,16.250,4.466,433.200,95.770,26.480,7.086,baseline
1544.000,319.400,62.310,13.170,1821.000,330.600,68.750,13.290,298.300,66.350,16.280,4.461,432.400,95.000,26.040,6.899,baseline
1503.000,310.900,60.590,12.750,1810.000,328.300,68.230,13.240,297.800,65.910,16.120,4.400,426.300,93.830,25.590,6.825,baseline
1497.000,308.700,60.090,12.810,1803.000,327.600,68.240,13.240,295.700,65.660,16.060,4.405,426.700,93.870,25.710,6.853,baseline
1497.000,307.900,60.450,12.810,1804.000,328.600,68.320,13.220,297.900,65.590,16.100,4.411,427.700,93.970,25.750,6.872,baseline
1501.000,310.600,60.360,12.840,1804.000,329.100,68.530,13.240,296.700,65.680,16.070,4.407,428.100,94.210,25.850,6.871,baseline
1511.000,312.700,60.960,12.990,1817.000,329.900,68.740,13.370,297.300,65.840,16.110,4.418,429.500,94.640,26.000,6.946,baseline
1526.000,315.700,61.440,13.170,1829.000,332.300,69.300,13.430,299.500,66.300,16.140,4.434,432.600,95.240,26.210,7.010,baseline
1543.000,318.500,62.720,13.360,1837.000,333.600,69.610,13.400,296.700,66.170,16.230,4.474,435.000,95.830,26.450,7.008,baseline
1533.000,315.600,61.050,12.960,1813.000,328.200,68.410,13.220,297.300,65.980,16.100,4.411,428.100,94.140,25.710,6.818,baseline
1500.000,309.800,59.770,12.720,1805.000,327.500,68.110,13.170,295.100,65.770,16.010,4.391,426.100,93.710,25.580,6.787,baseline
1494.000,309.000,59.870,12.660,1803.000,328.000,68.150,13.170,296.600,65.470,16.000,4.401,426.100,93.790,25.700,6.814,baseline
1502.000,308.300,60.590,12.800,1805.000,327.700,68.240,13.240,297.300,65.600,16.040,4.409,427.500,94.130,25.760,6.851,baseline
1503.000,308.900,60.540,12.830,1805.000,327.500,68.390,13.230,294.800,65.510,16.020,4.396,427.500,94.340,25.810,6.883,baseline
1512.000,312.800,61.160,13.000,1815.000,331.100,68.700,13.370,295.600,65.860,16.050,4.425,430.400,95.030,26.090,6.997,baseline
1529.000,315.600,61.750,13.150,1825.000,331.600,69.190,13.420,301.200,65.590,16.160,4.460,432.600,95.460,26.310,7.028,baseline
1542.000,319.000,62.740,13.360,1831.000,333.600,69.370,13.530,300.800,66.250,16.220,4.477,435.700,96.470,26.560,7.128,baseline
1548.000,317.100,61.480,13.130,1814.000,329.100,68.730,13.200,298.300,66.100,16.210,4.453,431.200,94.940,25.960,6.879,baseline
1503.000,309.400,60.100,12.800,1800.000,328.200,68.140,13.180,297.000,65.890,16.050,4.396,426.700,94.030,25.720,6.810,baseline
1498.000,308.500,59.960,12.780,1798.000,327.600,68.030,13.150,295.500,65.760,15.990,4.392,426.800,94.230,25.790,6.842,baseline
1501.000,309.800,60.510,12.810,1801.000,328.000,68.120,13.200,296.000,65.540,16.050,4.398,427.200,94.390,25.770,6.874,baseline
1506.000,311.100,60.580,12.880,1807.000,327.900,68.240,13.230,299.100,65.620,16.000,4.408,428.000,94.490,25.870,6.893,baseline
1514.000,312.500,61.110,13.050,1807.000,330.200,68.840,13.380,296.100,65.570,16.060,4.416,429.400,94.910,26.090,6.953,baseline
1526.000,315.600,62.050,13.240,1821.000,331.400,69.100,13.410,296.800,65.650,16.090,4.447,431.300,95.490,26.360,7.042,baseline
1542.000,319.300,62.600,13.450,1821.000,333.400,69.540,13.490,298.800,65.520,16.240,4.454,433.300,95.810,26.600,7.113,baseline
1558.000,323.100,63.450,13.640,1838.000,335.600,69.980,13.610,298.000,66.080,16.230,4.474,436.300,96.520,26.870,7.196,baseline
1567.000,324.100,62.960,13.390,1825.000,332.100,68.960,13.320,301.700,66.180,16.190,4.453,432.200,95.560,26.230,6.963,baseline
1514.000,313.800,60.890,12.960,1806.000,329.400,68.510,13.220,294.800,65.460,16.040,4.392,426.600,94.230,25.860,6.887,baseline
1510.000,312.500,61.180,12.930,1806.000,329.200,68.530,13.270,295.200,65.210,15.980,4.395,427.400,94.260,25.880,6.922,baseline
1515.000,314.400,61.250,13.100,1806.000,329.200,68.670,13.280,294.800,65.140,16.050,4.409,428.400,94.320,26.100,6.937,baseline
1516.000,314.200,61.170,13.130,1807.000,329.800,68.520,13.320,296.100,65.220,16.040,4.397,428.800,94.750,26.210,6.954,baseline
1524.000,316.900,61.700,13.210,1817.000,331.100,69.170,13.400,296.500,65.390,16.080,4.417,431.200,95.350,26.330,7.059,baseline
1537.000,318.900,62.410,13.390,1819.000,332.900,69.570,13.530,296.100,65.550,16.160,4.449,433.400,96.030,26.700,7.138,baseline
1553.000,323.800,63.370,13.610,1836.000,334.500,70.020,13.630,296.900,65.950,16.230,4.473,436.600,96.760,26.990,7.227,baseline
1571.000,325.300,64.090,13.740,1840.000,336.100,69.850,13.570,297.100,66.080,16.300,4.509,439.200,97.660,27.210,7.257,baseline
1565.000,322.700,62.830,13.360,1825.000,332.400,68.980,13.350,301.200,66.140,16.270,4.462,434.400,96.210,26.410,7.020,baseline
1525.000,315.200,61.740,13.050,1814.000,330.000,68.860,13.350,298.200,65.530,16.100,4.419,431.800,95.480,26.260,7.005,baseline
1524.000,315.300,61.900,13.130,1816.000,331.000,68.950,13.410,296.400,65.500,16.180,4.427,432.200,95.770,26.440,7.059,baseline
1532.000,317.700,62.110,13.240,1817.000,332.000,69.320,13.360,297.800,65.910,16.180,4.436,433.300,96.170,26.610,7.064,baseline
1535.000,318.900,62.300,13.280,1821.000,332.200,69.260,13.430,298.300,65.990,16.200,4.436,435.100,96.440,26.670,7.124,baseline
1545.000,320.300,62.920,13.410,1833.000,334.700,69.690,13.530,297.800,66.500,16.250,4.463,436.000,97.200,26.900,7.192,baseline
1560.000,323.900,63.510,13.690,1842.000,336.600,70.420,13.630,300.800,66.080,16.310,4.494,439.700,98.110,27.240,7.325,baseline
1581.000,328.000,64.650,13.860,1852.000,339.000,70.820,13.670,301.700,66.600,16.370,4.531,443.700,99.000,27.720,7.442,baseline
1596.000,332.200,64.650,14.050,1860.000,339.300,70.380,13.630,303.400,67.640,16.640,4.577,447.400,99.750,27.560,7.381,baseline
1569.000,323.700,63.240,13.380,1830.000,332.300,69.510,13.390,304.400,66.510,16.360,4.466,439.100,97.390,26.810,7.138,baseline
1534.000,318.500,61.840,13.210,1820.000,332.100,69.100,13.370,301.900,66.220,16.210,4.436,435.900,96.830,26.650,7.124,baseline
1533.000,317.700,62.060,13.230,1820.000,332.400,69.040,13.330,297.400,65.980,16.240,4.433,436.300,96.850,26.790,7.169,baseline
1533.000,318.100,62.240,13.280,1809.000,331.800,68.770,13.400,301.100,66.010,16.310,4.436,437.800,96.990,26.890,7.172,baseline
1530.000,316.900,62.170,13.370,1817.000,331.400,69.080,13.350,300.100,66.120,16.250,4.456,437.900,97.480,26.980,7.228,baseline
1539.000,317.700,63.040,13.520,1820.000,332.800,69.380,13.440,300.300,66.220,16.300,4.479,439.500,98.050,27.300,7.288,baseline
1553.000,321.600,63.220,13.730,1829.000,334.500,69.770,13.540,301.600,66.410,16.390,4.488,441.700,98.950,27.530,7.379,baseline
1569.000,327.600,64.230,13.870,1837.000,336.900,70.390,13.670,301.100,66.690,16.430,4.525,444.200,99.490,27.890,7.486,baseline
1587.000,331.500,65.200,14.000,1842.000,336.000,69.830,13.480,302.100,66.960,16.590,4.543,446.700,99.340,27.630,7.380,baseline
1550.000,321.400,62.460,13.320,1808.000,331.700,68.970,13.280,300.000,66.490,16.260,4.450,439.100,97.400,26.830,7.157,baseline
1524.000,317.300,61.810,13.260,1809.000,329.400,68.650,13.290,300.200,66.030,16.130,4.412,435.900,97.120,26.760,7.139,baseline
1525.000,317.600,61.960,13.320,1815.000,330.900,69.000,13.350,296.800,66.210,16.190,4.416,437.300,97.180,26.880,7.179,baseline
1536.000,320.700,62.650,13.370,1818.000,331.200,68.790,13.370,298.800,65.910,16.190,4.424,438.100,97.520,26.910,7.163,baseline
1539.000,321.600,62.920,13.380,1823.000,335.300,70.300,13.640,298.700,65.850,16.180,4.415,439.400,97.650,27.060,7.229,baseline
1596.000,335.500,66.330,14.110,1896.000,349.600,72.990,14.060,300.300,66.360,16.190,4.419,442.200,98.320,27.330,7.308,baseline
1639.000,341.200,67.570,14.310,1901.000,349.500,73.140,14.110,296.600,66.400,16.250,4.455,445.500,99.050,27.590,7.404,baseline
1645.000,342.600,68.110,14.490,1900.000,348.700,72.950,14.080,301.700,66.290,16.360,4.496,447.900,99.970,27.990,7.527,baseline
1654.000,345.400,67.790,14.440,1892.000,345.400,71.920,13.820,301.800,66.560,16.380,4.476,447.300,99.390,27.450,7.314,baseline
1596.000,332.100,64.680,13.710,1860.000,340.400,70.930,13.610,302.100,65.840,16.140,4.398,439.500,97.370,26.900,7.178,baseline
1575.000,327.400,63.800,13.680,1859.000,340.100,71.230,13.670,298.600,65.830,16.030,4.387,438.600,97.370,26.890,7.174,baseline
1582.000,329.000,64.550,13.780,1861.000,342.300,70.960,13.680,297.800,65.790,16.060,4.377,439.300,97.550,26.980,7.253,baseline
1590.000,332.400,65.070,13.800,1870.000,342.400,71.400,13.710,297.800,65.640,16.130,4.404,439.000,97.770,27.060,7.233,baseline
1596.000,333.000,65.560,13.970,1870.000,343.200,71.800,13.790,300.100,65.680,16.070,4.400,440.500,98.000,27.180,7.327,baseline
1611.000,336.900,65.950,14.110,1882.000,344.900,71.960,13.870,300.000,65.450,16.170,4.424,442.500,98.490,27.510,7.386,baseline
1625.000,339.100,66.730,14.430,1891.000,345.900,72.550,14.000,301.400,66.190,16.220,4.448,445.000,99.310,27.860,7.510,baseline
1643.000,344.100,67.780,14.440,1886.000,346.600,72.060,13.840,299.400,66.340,16.300,4.449,446.100,99.020,27.520,7.325,baseline
1607.000,334.000,65.460,13.790,1865.000,341.400,71.170,13.660,299.500,65.670,16.040,4.361,437.800,97.180,26.920,7.206,baseline
1584.000,328.500,64.810,13.720,1862.000,342.400,71.050,13.680,298.600,65.370,16.020,4.355,435.800,97.010,26.870,7.193,baseline
1590.000,331.100,65.290,13.870,1866.000,342.100,71.560,13.700,298.800,65.110,15.950,4.378,438.200,97.100,27.010,7.240,baseline
1599.000,333.500,65.420,13.890,1866.000,342.900,71.610,13.730,297.000,65.210,16.000,4.353,437.600,97.110,27.070,7.249,baseline
1602.000,332.300,65.500,14.020,1871.000,344.100,71.520,13.790,295.500,65.410,16.040,4.364,438.700,97.800,27.250,7.281,baseline
1616.000,337.100,66.400,14.190,1881.000,344.700,72.180,13.910,295.700,65.440,16.030,4.389,439.900,98.140,27.400,7.369,baseline
1632.000,341.300,67.220,14.410,1891.000,347.700,72.660,14.020,296.000,65.760,16.120,4.410,442.700,98.910,27.730,7.441,baseline
1643.000,341.200,66.690,14.220,1877.000,343.900,71.580,13.700,297.100,65.980,16.060,4.388,439.100,97.600,27.030,7.235,baseline
1588.000,330.800,64.710,13.660,1859.000,340.300,71.030,13.600,294.700,65.150,15.880,4.336,432.500,96.230,26.670,7.126,baseline
1582.000,330.000,64.460,13.690,1861.000,340.200,71.360,13.620,292.100,64.470,15.830,4.310,433.200,96.130,26.710,7.126,baseline
1590.000,330.900,64.850,13.770,1867.000,341.200,71.030,13.610,296.800,64.830,15.880,4.318,433.000,96.120,26.840,7.169,baseline
1589.000,331.400,64.790,13.840,1860.000,341.700,71.130,13.690,292.500,64.880,15.860,4.318,433.500,96.180,26.780,7.167,baseline
1594.000,333.100,65.570,13.960,1870.000,342.800,71.530,13.770,294.200,64.810,15.820,4.328,434.900,96.750,26.960,7.250,baseline
1609.000,335.300,66.040,14.100,1871.000,343.100,71.800,13.810,293.300,64.570,15.900,4.343,436.200,97.060,27.140,7.330,baseline
1624.000,339.300,66.860,14.270,1881.000,345.500,72.070,13.830,298.000,65.100,15.950,4.379,438.200,97.760,27.300,7.308,baseline
1608.000,332.600,65.060,13.830,1859.000,339.200,70.600,13.500,295.500,64.950,15.840,4.319,432.200,95.440,26.590,7.050,baseline
1569.000,325.900,63.380,13.620,1849.000,338.000,70.440,13.510,293.300,64.150,15.680,4.271,428.800,94.800,26.180,7.007,baseline
1566.000,326.800,63.840,13.530,1844.000,338.500,70.420,13.510,291.800,64.210,15.650,4.269,428.200,94.880,26.330,7.038,baseline
1572.000,328.200,63.910,13.650,1849.000,337.800,70.530,13.480,290.900,64.130,15.630,4.269,428.600,94.590,26.290,7.049,baseline
1572.000,327.200,63.900,13.720,1850.000,337.900,70.540,13.570,291.400,64.430,15.680,4.275,428.400,94.870,26.320,7.083,baseline
1581.000,328.700,64.870,13.800,1856.000,340.000,70.800,13.640,291.100,63.920,15.720,4.286,430.600,95.640,26.640,7.113,baseline
1594.000,332.700,65.570,13.990,1862.000,340.800,71.260,13.680,294.100,64.270,15.740,4.305,432.100,95.850,26.820,7.212,baseline
1610.000,336.200,66.070,14.110,1861.000,340.700,70.720,13.510,292.700,64.170,15.780,4.323,432.800,95.780,26.580,7.071,baseline
1574.000,327.600,63.950,13.360,1842.000,335.900,69.790,13.390,292.300,63.920,15.560,4.241,425.600,94.010,25.960,6.923,baseline
1552.000,323.900,62.830,13.320,1829.000,335.400,69.500,13.370,288.800,63.570,15.500,4.234,424.100,93.610,25.900,6.922,baseline
1550.000,321.900,62.960,13.360,1823.000,335.000,69.770,13.310,290.800,63.200,15.560,4.239,425.500,93.670,26.050,6.954,baseline
1552.000,324.300,63.060,13.460,1833.000,333.500,69.450,13.340,288.500,63.430,15.590,4.240,425.300,93.880,26.070,6.968,baseline
1552.000,324.000,62.970,13.480,1826.000,335.300,69.760,13.460,291.500,63.690,15.630,4.255,426.400,94.190,26.190,7.022,baseline
1564.000,327.300,63.970,13.680,1837.000,335.300,70.120,13.500,290.600,63.750,15.650,4.269,428.900,94.930,26.410,7.088,baseline
1575.000,329.600,64.570,13.780,1846.000,338.000,70.390,13.530,290.500,64.400,15.680,4.284,430.800,95.380,26.610,7.186,baseline
1591.000,332.500,64.500,13.770,1838.000,335.100,69.520,13.290,293.300,64.430,15.750,4.294,430.400,94.950,26.300,7.009,baseline
1546.000,321.700,62.150,13.230,1817.000,331.300,69.010,13.190,290.800,63.610,15.550,4.229,424.600,93.650,25.780,6.866,baseline
1530.000,317.500,61.960,13.140,1815.000,330.800,68.430,13.150,287.900,63.330,15.530,4.218,423.000,93.340,25.700,6.879,baseline
1527.000,316.800,62.060,13.230,1805.000,329.100,68.580,13.140,290.100,63.160,15.540,4.244,423.000,93.460,25.860,6.896,baseline
1528.000,317.600,62.080,13.180,1804.000,328.900,68.130,13.180,289.500,63.540,15.460,4.216,423.200,93.630,25.790,6.918,baseline
1528.000,318.100,62.400,13.270,1809.000,329.800,68.480,13.210,289.900,63.380,15.490,4.236,424.600,93.720,26.080,6.930,baseline
1539.000,320.100,62.940,13.440,1813.000,331.400,68.930,13.290,292.500,63.510,15.560,4.254,425.900,94.120,26.170,7.047,baseline
1553.000,322.800,63.260,13.660,1820.000,332.800,69.220,13.350,291.000,63.810,15.610,4.262,428.600,94.960,26.380,7.046,baseline
1564.000,324.900,63.520,13.490,1809.000,329.500,68.400,13.110,290.700,63.650,15.630,4.252,426.300,93.820,25.930,6.867,baseline
1519.000,316.800,61.460,13.050,1791.000,326.700,67.860,13.030,290.100,63.030,15.430,4.201,420.800,92.530,25.510,6.800,baseline
1512.000,316.800,61.310,13.070,1791.000,326.100,67.700,13.050,287.700,63.310,15.380,4.209,421.500,92.210,25.530,6.824,baseline
1515.000,313.200,61.490,13.060,1788.000,326.400,67.940,13.030,287.700,63.050,15.400,4.198,420.800,92.560,25.640,6.827,baseline
1514.000,315.400,61.700,13.110,1787.000,324.900,67.710,12.990,288.300,63.010,15.390,4.202,421.100,92.430,25.680,6.842,baseline
1513.000,316.400,61.580,13.130,1785.000,326.500,67.570,13.090,287.300,62.870,15.420,4.224,421.700,92.980,25.800,6.905,baseline
1521.000,316.800,61.960,13.310,1794.000,326.100,68.070,13.130,287.800,63.120,15.440,4.230,424.000,93.710,25.960,6.978,baseline
1532.000,319.700,62.690,13.460,1798.000,328.100,68.170,13.140,288.600,63.400,15.540,4.253,427.600,94.280,26.220,7.019,baseline
1532.000,317.000,61.730,13.160,1782.000,323.700,67.340,12.920,290.800,63.250,15.510,4.218,422.900,92.570,25.660,6.814,baseline
1499.000,311.800,60.830,12.880,1773.000,322.900,67.010,12.890,289.500,62.770,15.350,4.192,419.700,92.160,25.490,6.790,baseline
1496.000,309.600,60.600,12.910,1770.000,323.100,66.820,12.910,286.600,62.710,15.310,4.186,419.800,91.920,25.530,6.792,baseline
1499.000,313.300,60.590,12.960,1779.000,322.400,67.000,12.920,287.200,62.830,15.390,4.208,420.100,92.150,25.470,6.791,baseline
1498.000,312.300,60.920,12.970,1775.000,322.600,66.860,12.890,287.300,63.010,15.380,4.201,420.000,92.450,25.610,6.823,baseline
1506.000,311.700,61.280,13.140,1778.000,324.300,67.330,13.020,287.100,62.730,15.370,4.218,422.500,92.750,25.830,6.907,baseline
1520.000,317.000,62.050,13.300,1782.000,325.300,67.730,13.090,288.700,62.920,15.500,4.242,425.000,93.260,25.990,6.963,baseline
1532.000,319.700,62.710,13.450,1794.000,326.400,68.010,13.090,288.600,63.270,15.540,4.248,426.600,93.890,26.120,7.003,baseline
1530.000,318.100,61.720,13.070,1774.000,322.400,66.770,12.870,290.700,63.300,15.420,4.216,421.600,92.170,25.390,6.744,baseline
1487.000,309.200,60.220,12.800,1761.000,320.600,66.350,12.750,288.600,62.530,15.310,4.188,417.700,91.350,25.160,6.704,baseline
1479.000,308.300,59.610,12.770,1759.000,319.800,66.250,12.760,285.400,62.280,15.230,4.169,417.400,90.980,25.220,6.733,baseline
1480.000,308.800,60.100,12.830,1757.000,318.300,66.180,12.770,283.400,62.270,15.260,4.178,417.700,90.980,25.290,6.710,baseline
1478.000,307.800,60.350,12.790,1754.000,318.400,66.050,12.810,287.400,62.280,15.280,4.190,418.300,91.320,25.310,6.759,baseline
1481.000,309.500,60.530,12.920,1757.000,318.700,66.300,12.820,287.100,62.300,15.310,4.192,419.300,91.720,25.510,6.815,baseline
1491.000,311.100,61.100,13.100,1760.000,320.900,66.340,12.900,286.400,62.720,15.430,4.223,422.500,92.160,25.740,6.892,baseline
1503.000,314.000,61.400,13.240,1766.000,321.900,67.110,12.980,288.500,62.920,15.470,4.235,424.100,93.200,25.850,6.979,baseline
1515.000,316.300,62.040,13.270,1762.000,319.800,66.400,12.770,288.100,63.060,15.490,4.241,423.700,92.730,25.620,6.826,baseline
1475.000,306.400,59.500,12.740,1745.000,316.700,65.860,12.620,286.800,62.540,15.330,4.182,417.800,91.190,25.170,6.700,baseline
1461.000,302.700,58.800,12.630,1734.000,315.500,65.170,12.560,288.900,62.520,15.250,4.181,417.500,90.850,25.200,6.698,baseline
1457.000,304.300,58.990,12.630,1733.000,314.200,65.270,12.610,285.300,62.520,15.260,4.197,418.400,91.490,25.320,6.732,baseline
1458.000,303.800,59.210,12.610,1733.000,313.400,65.330,12.610,286.000,62.470,15.350,4.191,418.900,91.440,25.390,6.760,baseline
1459.000,303.200,59.630,12.660,1734.000,315.400,65.610,12.680,287.400,62.210,15.370,4.205,420.000,91.710,25.480,6.808,baseline
1470.000,307.300,60.070,12.830,1741.000,317.100,65.920,12.750,287.900,62.740,15.410,4.237,422.500,92.680,25.750,6.893,baseline
1485.000,310.200,61.100,13.080,1750.000,319.700,66.130,12.830,288.500,63.100,15.460,4.249,425.000,93.140,26.010,6.972,baseline
1504.000,313.700,61.540,13.190,1755.000,318.400,66.230,12.730,287.100,63.180,15.540,4.282,426.000,93.340,25.870,6.874,baseline
1478.000,306.200,59.610,12.640,1741.000,315.000,65.130,12.560,287.200,63.050,15.400,4.209,419.800,91.560,25.190,6.728,baseline
1459.000,303.800,58.880,12.600,1732.000,314.400,65.220,12.600,284.900,62.650,15.330,4.200,418.900,91.460,25.290,6.724,baseline
1458.000,303.000,59.140,12.660,1741.000,315.200,65.440,12.600,286.500,62.560,15.360,4.217,421.300,91.970,25.430,6.771,baseline
1464.000,305.900,59.610,12.680,1735.000,315.300,65.370,12.580,287.800,62.710,15.390,4.221,421.200,92.210,25.490,6.784,baseline
1466.000,304.400,59.670,12.720,1741.000,316.000,65.530,12.680,286.300,62.670,15.380,4.228,422.100,92.480,25.610,6.819,baseline
1475.000,308.700,59.890,12.910,1747.000,317.300,65.960,12.760,287.200,62.610,15.450,4.239,423.800,92.850,25.770,6.896,baseline
1492.000,312.100,61.240,13.100,1759.000,320.100,66.420,12.900,288.900,63.330,15.420,4.254,425.800,93.600,26.020,6.961,baseline
1512.000,314.400,61.640,13.130,1767.000,319.900,66.260,12.750,288.600,63.530,15.510,4.268,427.400,93.080,25.820,6.833,baseline
1481.000,306.800,59.500,12.700,1749.000,317.600,65.570,12.710,289.200,62.720,15.410,4.215,421.400,92.110,25.350,6.716,baseline
1472.000,306.300,59.640,12.700,1753.000,317.800,65.590,12.650,288.800,62.850,15.370,4.209,421.800,92.210,25.390,6.745,baseline
1479.000,307.000,60.020,12.780,1756.000,317.900,65.980,12.750,285.400,63.150,15.400,4.216,421.700,92.690,25.520,6.776,baseline
1483.000,309.400,59.990,12.870,1755.000,318.800,66.100,12.750,286.700,63.050,15.420,4.234,422.300,92.700,25.570,6.799,baseline
1489.000,309.500,60.580,12.960,1766.000,321.100,66.590,12.900,286.100,63.400,15.450,4.236,424.100,93.130,25.770,6.863,baseline
1503.000,312.500,61.260,13.090,1773.000,322.800,66.850,12.890,288.900,63.050,15.540,4.275,425.800,93.700,26.000,6.948,baseline
1521.000,318.100,62.240,13.350,1784.000,323.900,67.400,12.950,290.300,63.480,15.660,4.278,428.400,94.480,26.140,6.961,baseline
1514.000,313.400,60.460,12.840,1762.000,320.800,66.250,12.700,289.700,63.180,15.500,4.243,423.200,92.500,25.450,6.725,baseline
1481.000,308.700,59.730,12.680,1762.000,318.700,66.040,12.710,286.700,62.800,15.420,4.212,421.300,92.350,25.350,6.721,baseline
1481.000,307.900,60.030,12.740,1763.000,318.800,66.000,12.760,285.800,62.900,15.390,4.221,422.500,92.500,25.510,6.775,baseline
1490.000,309.200,60.090,12.860,1765.000,320.900,66.480,12.750,287.300,63.110,15.490,4.234,423.400,92.860,25.570,6.809,baseline
1493.000,309.600,60.180,12.840,1772.000,321.100,66.400,12.790,289.700,62.850,15.550,4.259,424.700,93.440,25.800,6.860,baseline
1504.000,312.900,60.880,12.990,1776.000,322.800,66.940,12.980,290.700,63.790,15.610,4.264,426.700,94.260,26.010,6.932,baseline
1523.000,315.200,61.880,13.190,1789.000,325.200,67.380,13.020,291.400,63.870,15.710,4.313,430.400,94.830,26.320,7.045,baseline
1538.000,318.000,62.500,13.100,1788.000,324.100,66.860,12.830,292.800,64.220,15.730,4.319,429.400,94.520,25.900,6.827,baseline
1496.000,310.400,60.340,12.740,1762.000,319.300,66.170,12.740,290.900,63.360,15.560,4.245,422.200,93.060,25.470,6.752,baseline
1486.000,307.300,59.670,12.630,1761.000,319.300,66.100,12.750,288.900,63.380,15.530,4.250,421.800,92.970,25.460,6.759,baseline
1486.000,307.800,60.120,12.760,1767.000,320.300,66.600,12.790,289.400,63.770,15.510,4.247,423.300,93.180,25.610,6.792,baseline
1492.000,308.700,59.880,12.800,1762.000,320.000,66.520,12.790,291.000,63.480,15.520,4.249,424.700,93.270,25.680,6.802,baseline
1496.000,310.200,60.600,12.910,1770.000,321.700,66.620,12.880,286.200,63.690,15.610,4.260,424.800,93.940,25.820,6.861,baseline
1510.000,315.800,61.030,13.060,1781.000,323.500,67.300,12.970,288.200,63.630,15.650,4.293,427.300,94.030,26.070,6.942,baseline
1525.000,317.300,62.260,13.290,1791.000,325.000,67.610,13.000,290.800,63.840,15.720,4.313,430.300,94.920,26.270,6.994,baseline
1525.000,314.900,61.190,12.920,1772.000,321.200,66.400,12.720,289.500,63.630,15.640,4.282,425.000,93.480,25.550,6.750,baseline
1485.000,307.500,60.000,12.690,1763.000,320.000,66.240,12.720,287.400,63.410,15.530,4.245,421.900,92.460,25.380,6.718,baseline
1483.000,307.800,59.960,12.680,1764.000,320.800,66.200,12.760,287.400,63.240,15.460,4.236,422.000,92.820,25.450,6.749,baseline
1491.000,310.400,60.310,12.790,1763.000,320.300,66.440,12.800,289.200,63.180,15.540,4.253,422.600,92.810,25.530,6.775,baseline
1492.000,310.100,60.400,12.800,1766.000,321.200,66.640,12.860,287.900,63.250,15.510,4.261,423.100,93.000,25.640,6.807,baseline
1503.000,312.400,61.060,13.010,1776.000,322.400,66.790,12.880,288.000,63.310,15.570,4.274,424.700,93.490,25.800,6.863,baseline
1517.000,315.300,61.440,13.230,1780.000,325.200,67.590,12.980,288.900,63.610,15.630,4.286,426.400,94.140,26.040,6.956,baseline
1535.000,318.400,62.780,13.330,1791.000,323.700,66.940,12.900,290.700,63.670,15.640,4.316,427.900,94.130,25.920,6.863,baseline
1506.000,312.100,60.320,12.850,1767.000,319.900,66.230,12.770,288.500,63.570,15.550,4.251,422.200,92.710,25.380,6.707,baseline
1487.000,309.700,59.650,12.770,1761.000,319.700,66.400,12.800,285.900,63.070,15.410,4.222,421.000,92.380,25.320,6.694,baseline
1490.000,309.000,60.420,12.790,1766.000,321.000,66.580,12.820,285.800,63.210,15.440,4.245,421.800,92.560,25.460,6.740,baseline
1497.000,310.700,60.300,12.880,1765.000,320.500,66.520,12.820,288.400,63.100,15.430,4.244,421.400,92.550,25.480,6.756,baseline
1499.000,311.800,60.450,12.940,1781.000,322.100,66.860,12.930,285.500,63.080,15.430,4.262,422.000,92.940,25.570,6.789,baseline
1513.000,314.700,61.830,13.130,1783.000,323.500,67.420,13.020,285.100,62.940,15.510,4.255,423.900,93.480,25.830,6.864,baseline
1527.000,318.900,62.460,13.260,1792.000,325.000,67.800,13.040,288.200,63.380,15.640,4.286,425.600,94.160,26.040,6.945,baseline
1499.000,312.100,60.360,12.900,1769.000,321.200,66.600,12.810,284.100,63.010,15.440,4.236,419.500,92.350,25.360,6.729,easy
1499.000,312.000,60.880,12.940,1774.000,322.200,66.810,12.890,287.500,63.190,15.510,4.239,421.500,92.530,25.440,6.754,easy
1506.000,314.800,61.100,13.080,1776.000,322.700,66.990,12.930,288.300,62.760,15.530,4.269,422.600,93.150,25.730,6.802,easy
1520.000,315.100,61.850,13.250,1785.000,324.600,67.550,13.080,286.500,63.400,15.570,4.284,426.000,93.970,25.890,6.925,easy
1537.000,321.500,63.060,13.450,1791.000,326.000,67.610,13.040,287.900,63.240,15.660,4.308,428.000,94.260,25.960,6.919,easy
1519.000,315.200,60.900,12.950,1772.000,321.400,66.390,12.820,290.300,63.630,15.530,4.249,421.700,92.560,25.320,6.677,easy
1488.000,306.900,60.030,12.810,1755.000,319.000,66.380,12.750,287.700,63.120,15.430,4.234,418.900,91.970,25.210,6.667,easy
1481.000,307.700,60.200,12.750,1749.000,319.000,66.010,12.720,287.000,62.850,15.410,4.235,420.000,92.120,25.250,6.715,easy
1480.000,307.600,60.270,12.780,1746.000,318.000,66.280,12.730,284.200,63.310,15.520,4.258,420.800,92.360,25.390,6.738,easy
1479.000,307.100,60.020,12.820,1737.000,317.600,65.700,12.720,289.400,63.150,15.480,4.245,421.800,92.560,25.460,6.763,easy
1479.000,308.600,60.980,12.990,1742.000,317.800,65.950,12.790,288.200,63.120,15.540,4.252,422.500,93.100,25.680,6.828,easy
1489.000,310.300,61.040,13.040,1740.000,318.400,66.140,12.800,285.100,63.160,15.570,4.280,426.400,93.800,26.010,6.904,easy
1500.000,313.500,61.470,13.170,1739.000,316.300,65.740,12.680,289.000,63.420,15.650,4.289,425.400,93.520,25.760,6.786,easy
1465.000,305.500,59.260,12.710,1719.000,313.600,64.910,12.490,289.800,63.260,15.420,4.238,418.600,92.020,25.090,6.633,easy
1449.000,301.600,59.060,12.570,1720.000,312.900,64.950,12.540,286.800,62.940,15.430,4.232,418.400,91.650,25.100,6.661,easy
1451.000,303.500,59.250,12.600,1720.000,312.400,65.300,12.570,286.500,63.000,15.430,4.240,419.400,92.160,25.270,6.694,easy
1455.000,304.100,59.300,12.610,1718.000,312.700,65.030,12.570,287.000,62.880,15.440,4.236,420.000,92.280,25.240,6.699,easy
1456.000,304.200,59.650,12.720,1722.000,313.600,65.260,12.650,285.900,62.920,15.460,4.260,420.400,92.600,25.490,6.753,easy
1465.000,307.700,60.190,12.890,1721.000,315.600,65.170,12.700,286.700,62.890,15.560,4.257,423.000,93.220,25.720,6.841,easy
1479.000,310.900,61.260,13.080,1735.000,316.400,65.990,12.760,288.500,63.520,15.660,4.295,425.200,93.560,25.860,6.924,easy
1494.000,312.000,61.460,13.020,1727.000,316.100,65.020,12.600,287.400,63.700,15.680,4.294,423.700,93.140,25.560,6.767,easy
1454.000,304.500,59.120,12.570,1710.000,312.700,64.680,12.560,288.600,63.050,15.490,4.239,417.800,91.540,25.110,6.648,easy
1445.000,301.700,59.220,12.560,1710.000,312.000,64.860,12.530,286.200,62.990,15.390,4.238,418.000,91.680,25.100,6.685,easy
1450.000,303.500,59.350,12.680,1715.000,313.100,65.280,12.540,289.000,62.830,15.460,4.246,419.100,91.820,25.230,6.705,easy
1452.000,303.300,59.270,12.670,1716.000,313.100,65.120,12.560,285.800,63.090,15.550,4.252,419.500,91.990,25.350,6.731,easy
1458.000,305.000,59.930,12.790,1723.000,314.100,65.400,12.680,288.500,63.390,15.540,4.261,421.400,92.680,25.510,6.786,easy
1472.000,308.900,60.360,12.980,1728.000,315.500,65.820,12.770,287.100,63.460,15.570,4.291,424.000,93.230,25.800,6.850,easy
1488.000,314.500,61.240,13.180,1743.000,316.900,66.090,12.760,289.400,63.520,15.700,4.316,425.700,93.930,25.890,6.891,easy
1480.000,309.500,60.410,12.780,1719.000,313.200,65.200,12.530,289.900,63.510,15.590,4.264,419.900,91.960,25.250,6.664,easy
1449.000,303.000,59.530,12.620,1714.000,311.200,64.880,12.540,287.100,62.960,15.440,4.244,418.200,91.550,25.130,6.667,easy
1449.000,302.800,59.550,12.690,1715.000,312.700,64.980,12.570,287.800,62.900,15.480,4.258,419.400,92.150,25.250,6.728,easy
1457.000,304.500,59.460,12.770,1718.000,313.000,65.130,12.610,288.800,63.180,15.550,4.252,418.900,92.210,25.280,6.733,easy
1456.000,303.600,59.550,12.790,1719.000,313.700,65.000,12.650,289.000,63.010,15.540,4.273,419.700,92.170,25.480,6.741,easy
1465.000,307.000,60.110,12.950,1726.000,314.800,65.630,12.730,288.600,63.240,15.550,4.286,422.300,92.750,25.670,6.819,easy
1478.000,309.000,60.810,13.070,1735.000,316.500,65.790,12.810,287.700,63.000,15.630,4.285,424.500,93.300,25.910,6.872,easy
1483.000,309.200,60.370,12.850,1715.000,312.900,64.980,12.590,288.100,63.360,15.600,4.280,420.800,91.850,25.230,6.668,easy
1446.000,303.400,58.960,12.560,1713.000,310.800,64.670,12.500,288.100,63.000,15.460,4.234,416.800,91.100,24.900,6.638,easy
1442.000,301.600,58.860,12.600,1708.000,311.200,64.730,12.550,285.000,62.900,15.400,4.233,416.300,91.340,25.070,6.669,easy
1448.000,302.400,59.190,12.610,1713.000,311.200,64.760,12.530,287.600,62.680,15.460,4.253,417.400,91.320,25.160,6.669,easy
1447.000,303.100,59.010,12.620,1710.000,311.700,64.930,12.580,285.300,63.080,15.470,4.248,418.200,91.480,25.210,6.705,easy
1450.000,303.300,59.780,12.810,1711.000,311.800,64.920,12.650,286.900,63.010,15.460,4.271,420.400,91.930,25.400,6.759,easy
1463.000,307.900,60.280,12.990,1714.000,313.700,65.510,12.720,289.500,63.140,15.570,4.288,423.200,92.770,25.700,6.841,easy
1473.000,307.900,59.970,12.800,1706.000,310.500,64.690,12.500,289.800,63.340,15.550,4.280,419.900,91.790,25.160,6.653,easy
1437.000,298.900,58.760,12.470,1700.000,309.400,64.340,12.450,287.200,62.790,15.430,4.232,415.600,90.760,24.800,6.596,easy
1432.000,299.600,58.230,12.460,1696.000,309.200,64.160,12.450,286.700,62.340,15.470,4.226,414.600,90.550,24.980,6.604,easy
1434.000,300.200,58.520,12.460,1706.000,309.400,64.380,12.470,287.800,62.650,15.490,4.236,416.600,90.850,24.980,6.634,easy
1435.000,300.000,58.680,12.520,1702.000,309.600,64.360,12.490,287.700,62.830,15.420,4.245,417.000,91.050,25.040,6.661,easy
1442.000,301.500,58.850,12.690,1713.000,311.200,64.680,12.550,286.000,63.060,15.520,4.265,418.100,91.720,25.210,6.675,easy
1454.000,304.800,59.650,12.840,1717.000,313.200,65.260,12.670,287.600,63.010,15.540,4.282,420.600,92.190,25.450,6.778,easy
1467.000,305.100,59.820,12.740,1715.000,310.800,64.720,12.440,287.200,63.410,15.570,4.283,420.500,91.510,25.070,6.630,easy
1432.000,299.800,57.660,12.330,1696.000,308.700,64.070,12.410,286.400,62.990,15.410,4.227,413.200,90.360,24.650,6.538,easy
1422.000,296.900,58.020,12.290,1692.000,308.800,63.860,12.370,285.000,62.500,15.340,4.224,412.800,90.000,24.680,6.533,easy
1422.000,296.900,57.890,12.320,1696.000,308.000,63.940,12.350,283.900,62.590,15.360,4.221,413.300,90.280,24.810,6.549,easy
1424.000,295.900,58.180,12.380,1689.000,307.700,63.890,12.370,287.500,62.240,15.390,4.230,413.700,90.270,24.860,6.599,easy
1427.000,297.200,58.110,12.480,1696.000,307.900,64.260,12.430,284.900,62.540,15.360,4.237,414.400,90.520,24.880,6.650,easy
1436.000,300.000,58.920,12.590,1700.000,309.600,64.530,12.540,286.000,62.860,15.440,4.246,416.600,91.000,25.120,6.687,easy
1449.000,303.400,59.280,12.700,1696.000,309.100,64.140,12.420,286.600,62.680,15.470,4.269,416.500,90.900,24.880,6.568,easy
1420.000,295.300,57.640,12.250,1679.000,304.200,63.760,12.250,285.000,62.290,15.290,4.215,410.300,89.160,24.460,6.489,easy
1407.000,294.600,56.700,12.180,1671.000,304.800,63.420,12.270,284.600,62.010,15.210,4.198,409.800,89.090,24.490,6.481,easy
1408.000,294.600,57.270,12.250,1676.000,304.800,63.640,12.300,285.000,61.970,15.270,4.199,411.100,89.250,24.560,6.519,easy
1411.000,294.000,57.340,12.200,1679.000,304.900,63.490,12.290,284.300,62.360,15.330,4.204,411.700,89.430,24.610,6.512,easy
1414.000,296.700,57.880,12.310,1684.000,306.800,63.820,12.400,285.200,62.180,15.320,4.228,412.500,89.870,24.690,6.575,easy
1426.000,298.300,58.340,12.440,1688.000,307.500,64.180,12.450,285.400,62.310,15.330,4.231,415.200,90.410,24.960,6.647,easy
1436.000,300.500,58.900,12.630,1699.000,309.700,64.460,12.480,285.100,62.420,15.440,4.259,417.400,91.150,25.150,6.704,easy
1440.000,300.000,58.420,12.420,1683.000,306.100,63.630,12.300,288.800,62.850,15.410,4.242,413.600,89.550,24.590,6.512,easy
1407.000,293.400,57.460,12.110,1675.000,304.300,63.410,12.270,285.900,62.210,15.220,4.196,409.900,89.070,24.370,6.482,easy
1404.000,292.600,56.960,12.120,1673.000,305.300,63.330,12.340,285.000,62.100,15.230,4.211,410.200,89.270,24.450,6.501,easy
1406.000,293.200,57.620,12.260,1674.000,303.500,63.450,12.340,287.300,62.000,15.300,4.219,411.900,89.370,24.470,6.504,easy
1405.000,294.200,57.430,12.230,1670.000,305.000,63.280,12.330,285.300,62.280,15.270,4.226,411.700,89.560,24.620,6.575,easy
1410.000,295.900,57.700,12.420,1679.000,305.800,63.730,12.380,286.600,62.330,15.360,4.238,412.900,90.120,24.750,6.624,easy
1423.000,298.200,58.300,12.580,1686.000,306.300,64.030,12.420,284.200,62.510,15.360,4.264,416.000,90.910,25.050,6.685,easy
1437.000,301.100,59.110,12.680,1693.000,307.800,63.900,12.440,287.300,62.900,15.480,4.276,417.700,90.990,25.030,6.654,easy
1422.000,295.900,57.450,12.210,1675.000,303.800,63.480,12.260,287.000,62.450,15.350,4.232,411.900,89.660,24.550,6.484,easy
1403.000,292.100,56.840,12.150,1676.000,303.700,63.260,12.260,284.100,62.140,15.300,4.210,410.400,89.300,24.470,6.486,easy
1399.000,291.800,56.700,12.170,1667.000,303.600,63.160,12.240,282.500,62.040,15.240,4.212,410.900,89.530,24.520,6.526,easy
1403.000,293.100,57.030,12.210,1673.000,303.500,63.220,12.290,284.500,62.230,15.320,4.224,412.000,89.660,24.580,6.536,easy
1403.000,294.100,57.150,12.270,1672.000,304.300,63.340,12.330,285.700,62.160,15.350,4.236,413.300,89.930,24.730,6.582,easy
1411.000,295.700,57.930,12.370,1677.000,305.600,63.660,12.450,284.700,62.310,15.380,4.247,415.300,90.450,24.950,6.622,easy
1424.000,297.300,58.170,12.530,1681.000,307.100,63.980,12.500,287.000,62.680,15.450,4.268,416.600,91.040,25.260,6.700,easy
1437.000,298.900,58.630,12.570,1678.000,305.700,63.670,12.340,286.700,62.740,15.500,4.279,417.600,91.040,24.960,6.623,easy
1407.000,292.900,56.820,12.140,1670.000,302.600,62.990,12.220,286.500,62.480,15.320,4.223,411.500,89.510,24.460,6.487,easy
1396.000,290.300,56.570,12.130,1659.000,303.000,63.100,12.240,285.500,62.130,15.240,4.215,410.900,89.520,24.430,6.514,easy
1397.000,292.300,57.080,12.270,1664.000,303.500,63.050,12.330,283.300,62.200,15.280,4.228,412.200,89.910,24.660,6.528,easy
1403.000,291.600,57.190,12.240,1671.000,303.200,63.220,12.370,285.900,62.240,15.270,4.222,413.000,89.950,24.690,6.572,easy
1410.000,294.500,57.510,12.300,1679.000,306.200,63.700,12.360,284.200,62.090,15.300,4.225,414.300,90.360,24.760,6.606,easy
1422.000,298.800,58.160,12.450,1682.000,306.900,64.100,12.480,285.900,62.650,15.360,4.253,416.500,90.790,25.010,6.672,easy
1434.000,301.000,59.110,12.670,1693.000,309.500,64.570,12.590,287.100,62.580,15.440,4.277,418.600,91.690,25.330,6.760,easy
1451.000,303.500,59.680,12.730,1697.000,309.400,64.380,12.490,288.600,63.020,15.530,4.293,420.500,91.660,25.100,6.666,easy
1421.000,296.000,57.540,12.290,1680.000,305.500,63.610,12.370,286.100,62.580,15.350,4.234,413.200,90.120,24.710,6.538,easy
1408.000,293.200,57.430,12.270,1680.000,304.700,63.550,12.320,285.300,62.090,15.330,4.227,412.900,89.930,24.690,6.538,easy
1410.000,293.600,57.180,12.340,1675.000,305.400,63.720,12.380,283.600,62.320,15.320,4.250,414.400,90.660,24.780,6.601,easy
1413.000,295.300,57.670,12.350,1676.000,305.400,63.810,12.400,284.900,62.300,15.370,4.259,415.800,90.530,24.800,6.616,easy
1415.000,296.500,57.680,12.480,1680.000,306.300,64.030,12.420,287.300,62.300,15.430,4.261,417.300,91.060,25.090,6.660,easy
1430.000,299.500,58.750,12.600,1691.000,307.600,64.510,12.590,285.700,62.950,15.480,4.278,420.100,91.900,25.380,6.758,easy
1445.000,302.400,59.140,12.770,1703.000,310.500,65.040,12.620,286.700,62.980,15.550,4.313,423.100,92.770,25.530,6.832,easy
1456.000,304.900,58.850,12.580,1696.000,307.500,64.150,12.480,288.000,63.210,15.570,4.288,419.300,91.730,25.140,6.626,easy
1421.000,295.600,57.870,12.320,1691.000,308.300,64.400,12.430,287.300,62.840,15.440,4.250,416.600,91.140,24.920,6.619,easy
1421.000,296.700,58.050,12.410,1695.000,308.100,64.220,12.520,287.500,62.850,15.470,4.259,417.300,91.090,25.030,6.638,easy
1430.000,297.900,58.850,12.510,1697.000,308.700,64.200,12.550,284.000,62.810,15.450,4.272,418.400,91.600,25.010,6.665,easy
1433.000,299.700,58.710,12.550,1695.000,309.700,64.870,12.610,286.700,63.090,15.500,4.288,418.900,91.880,25.190,6.713,easy
1442.000,300.400,58.820,12.690,1704.000,311.500,64.960,12.640,284.800,63.020,15.570,4.307,420.100,92.210,25.350,6.770,easy
1456.000,304.800,59.820,12.880,1716.000,313.300,65.720,12.800,289.000,63.110,15.630,4.324,423.200,93.150,25.660,6.869,easy
1472.000,308.200,60.400,13.030,1725.000,314.100,65.720,12.670,289.500,63.540,15.640,4.355,425.300,93.370,25.600,6.813,easy
1453.000,303.700,58.750,12.580,1703.000,311.300,64.850,12.560,288.700,63.640,15.500,4.291,419.400,91.740,25.190,6.634,easy
1436.000,300.900,58.370,12.430,1705.000,310.900,64.880,12.590,283.700,62.930,15.470,4.278,417.800,91.390,24.970,6.665,easy
1438.000,300.600,58.760,12.580,1707.000,311.600,65.090,12.620,287.600,62.800,15.490,4.269,418.900,91.830,25.200,6.705,easy
1446.000,301.800,58.980,12.600,1710.000,312.500,65.100,12.650,288.700,62.980,15.480,4.304,419.700,91.920,25.220,6.722,easy
1450.000,303.100,59.570,12.710,1716.000,313.000,65.400,12.750,287.500,63.110,15.550,4.296,421.700,92.460,25.420,6.760,easy
1462.000,306.800,60.040,12.890,1728.000,315.500,65.870,12.860,287.700,63.460,15.630,4.325,423.500,92.990,25.620,6.857,easy
1477.000,309.200,60.630,13.040,1734.000,317.800,66.370,12.960,289.200,63.340,15.670,4.343,426.200,93.870,25.960,6.947,easy
1491.000,311.300,60.890,12.980,1728.000,315.400,65.720,12.740,290.900,63.750,15.730,4.331,425.200,93.170,25.340,6.753,easy
1452.000,301.900,59.030,12.540,1714.000,313.300,65.270,12.670,288.400,63.440,15.560,4.288,419.100,91.830,25.120,6.694,easy
1445.000,301.700,58.740,12.540,1705.000,313.000,65.220,12.680,286.500,63.170,15.480,4.282,418.600,91.970,25.130,6.689,easy
1449.000,303.700,59.060,12.690,1718.000,314.600,65.400,12.750,287.500,63.050,15.540,4.293,420.200,92.140,25.280,6.716,easy
1454.000,303.600,59.110,12.690,1721.000,314.400,65.530,12.690,289.000,63.200,15.530,4.292,420.600,92.300,25.400,6.749,easy
1458.000,305.900,59.740,12.820,1715.000,315.800,66.080,12.810,288.200,63.080,15.630,4.301,422.200,92.590,25.550,6.785,easy
1470.000,307.700,60.070,12.970,1727.000,317.500,66.530,12.940,287.900,63.310,15.610,4.344,424.700,93.330,25.820,6.885,easy
1484.000,311.400,61.370,13.180,1737.000,319.700,66.180,12.900,288.900,63.850,15.770,4.360,427.100,93.800,25.890,6.872,easy
1469.000,306.500,59.650,12.650,1712.000,313.100,65.210,12.710,288.800,63.450,15.600,4.297,421.000,92.060,25.160,6.679,easy
1442.000,301.400,58.920,12.530,1711.000,313.000,65.270,12.700,287.000,63.110,15.490,4.292,418.700,91.580,25.090,6.676,easy
1444.000,301.900,59.260,12.580,1706.000,313.200,65.340,12.770,285.700,62.820,15.530,4.291,419.500,91.910,25.180,6.729,easy
1451.000,303.600,59.300,12.690,1713.000,313.600,65.560,12.800,288.500,62.860,15.490,4.296,420.400,92.030,25.190,6.735,easy
1453.000,304.200,59.520,12.760,1718.000,315.100,65.530,12.780,287.500,63.320,15.590,4.312,421.700,92.380,25.440,6.783,easy
1463.000,304.700,59.980,12.910,1727.000,317.000,65.920,12.890,287.200,63.150,15.610,4.321,423.800,92.910,25.620,6.875,easy
1477.000,309.100,60.810,13.090,1729.000,318.000,66.490,12.980,290.800,63.460,15.740,4.356,425.000,93.590,25.950,6.930,easy
1488.000,311.200,60.440,13.040,1722.000,317.000,65.880,12.800,290.500,63.660,15.700,4.355,424.600,93.020,25.420,6.750,easy
1449.000,304.500,59.180,12.630,1713.000,313.500,65.510,12.720,285.300,63.140,15.510,4.302,417.700,91.560,25.150,6.678,easy
1444.000,301.300,58.920,12.630,1712.000,313.700,65.400,12.770,288.900,62.890,15.470,4.281,418.600,91.710,25.190,6.714,easy
1448.000,303.300,59.650,12.770,1719.000,314.400,65.670,12.780,287.900,63.200,15.530,4.304,420.000,92.070,25.360,6.740,easy
1452.000,305.700,59.520,12.750,1715.000,314.700,65.730,12.780,286.800,62.710,15.550,4.318,420.500,92.190,25.360,6.770,easy
1457.000,305.800,60.030,12.830,1723.000,316.200,66.100,12.880,287.700,63.070,15.570,4.329,422.200,92.550,25.510,6.844,easy
1470.000,308.700,60.870,12.980,1731.000,318.100,66.560,12.940,289.300,63.600,15.680,4.355,425.000,93.180,25.790,6.920,easy
1486.000,312.600,61.410,13.220,1734.000,318.700,66.320,12.920,290.800,63.850,15.700,4.359,425.900,93.740,25.780,6.847,easy
1464.000,305.700,59.850,12.720,1719.000,315.500,65.330,12.800,288.300,63.480,15.640,4.315,420.500,92.080,25.180,6.665,easy
1449.000,303.300,59.050,12.670,1715.000,315.600,65.640,12.730,287.300,63.110,15.540,4.299,419.600,92.010,25.160,6.705,easy
1449.000,305.300,59.440,12.730,1720.000,314.800,66.160,12.760,287.300,62.770,15.580,4.300,420.300,92.070,25.360,6.742,easy
1457.000,304.600,59.760,12.770,1724.000,316.000,66.190,12.870,288.400,63.410,15.590,4.302,421.100,92.190,25.370,6.749,easy
1461.000,305.000,60.020,12.880,1728.000,317.200,66.360,12.940,287.000,63.230,15.610,4.340,421.500,92.500,25.580,6.789,easy
1471.000,309.400,60.720,13.040,1734.000,318.400,66.500,12.940,289.200,63.550,15.740,4.353,423.900,93.140,25.750,6.881,easy
1484.000,313.200,61.270,13.130,1743.000,320.400,67.100,13.020,290.800,63.740,15.710,4.360,427.000,94.050,25.980,6.900,easy
1486.000,311.800,60.230,12.850,1731.000,316.900,65.820,12.770,291.700,63.810,15.700,4.325,421.400,92.410,25.330,6.715,easy
1447.000,303.600,58.990,12.530,1713.000,314.000,65.430,12.780,290.500,63.500,15.520,4.301,417.800,91.400,24.990,6.643,easy
1442.000,303.800,59.050,12.590,1711.000,315.100,65.710,12.770,285.800,63.110,15.550,4.297,416.500,91.410,25.040,6.664,easy
1445.000,301.800,58.950,12.640,1715.000,314.200,65.640,12.760,287.500,63.110,15.520,4.299,418.200,91.710,25.150,6.674,easy
1445.000,302.000,59.400,12.690,1717.000,314.800,65.720,12.790,286.700,63.150,15.580,4.302,418.800,91.820,25.180,6.697,easy
1451.000,304.100,59.690,12.780,1715.000,314.900,66.090,12.880,288.400,62.860,15.590,4.320,419.400,92.260,25.310,6.771,easy
1460.000,306.500,60.130,12.940,1720.000,316.500,66.230,12.900,287.800,63.300,15.650,4.350,422.000,92.810,25.600,6.843,easy
1472.000,308.200,60.600,13.100,1725.000,315.200,65.890,12.820,289.700,63.530,15.700,4.353,423.700,92.670,25.480,6.767,easy
1445.000,301.600,58.660,12.580,1702.000,311.400,65.150,12.660,288.500,63.140,15.500,4.293,416.400,90.910,24.910,6.602,easy
1427.000,298.300,57.980,12.480,1697.000,312.000,64.790,12.630,287.800,62.810,15.420,4.281,415.300,90.670,24.830,6.599,easy
1426.000,300.300,58.360,12.560,1702.000,312.800,65.010,12.650,286.400,62.860,15.490,4.291,415.700,91.150,24.930,6.626,easy
1431.000,300.500,58.540,12.590,1700.000,312.200,65.070,12.670,289.500,62.780,15.480,4.300,415.800,90.910,24.980,6.662,easy
1432.000,301.200,59.070,12.660,1701.000,312.500,65.450,12.740,289.700,62.700,15.470,4.296,417.400,91.230,25.120,6.692,easy
1443.000,304.200,59.400,12.800,1709.000,313.400,65.670,12.850,287.100,63.290,15.570,4.325,420.300,91.870,25.300,6.802,easy
1456.000,306.000,60.300,12.950,1715.000,316.200,66.110,12.910,290.900,63.290,15.660,4.358,423.200,92.660,25.610,6.859,easy
1473.000,308.700,61.190,13.010,1714.000,315.100,65.770,12.780,288.000,63.930,15.720,4.376,423.300,92.380,25.360,6.723,easy
1440.000,301.100,58.840,12.530,1700.000,312.500,65.160,12.630,288.300,63.180,15.550,4.298,416.100,91.070,24.860,6.593,easy
1429.000,298.400,58.180,12.480,1703.000,312.400,65.290,12.690,287.200,62.560,15.520,4.304,416.200,90.850,24.850,6.618,easy
1432.000,300.100,58.830,12.590,1702.000,312.800,65.360,12.710,285.900,62.990,15.570,4.308,416.500,91.240,25.070,6.650,easy
1437.000,300.900,59.060,12.600,1705.000,312.000,65.250,12.690,289.600,62.880,15.510,4.314,417.900,91.240,25.090,6.665,easy
1438.000,301.900,59.000,12.750,1709.000,314.300,65.430,12.770,288.900,63.200,15.620,4.322,418.500,91.690,25.230,6.738,easy
1450.000,304.500,59.620,12.830,1715.000,315.000,65.790,12.860,289.600,63.510,15.610,4.345,421.400,92.410,25.420,6.777,easy
1462.000,307.300,60.260,12.980,1718.000,316.100,66.280,12.850,289.500,63.530,15.730,4.376,424.200,92.950,25.770,6.876,easy
1464.000,305.800,59.650,12.700,1708.000,312.200,64.920,12.730,291.200,63.560,15.700,4.344,420.500,91.680,25.120,6.645,easy
1426.000,300.100,58.180,12.500,1694.000,311.000,64.660,12.640,289.600,63.210,15.530,4.303,415.600,90.610,24.930,6.614,easy
1422.000,298.900,58.550,12.480,1692.000,310.600,64.980,12.670,288.200,63.180,15.520,4.314,416.600,90.870,25.010,6.642,easy
1426.000,299.200,58.740,12.560,1692.000,310.300,64.830,12.640,288.200,63.040,15.550,4.318,417.400,91.260,25.090,6.655,easy
1426.000,298.300,58.560,12.560,1693.000,311.200,64.840,12.710,288.400,63.080,15.580,4.327,417.500,91.120,25.100,6.709,easy
1431.000,301.100,58.990,12.700,1693.000,311.100,65.030,12.700,289.300,63.180,15.600,4.357,419.600,91.670,25.360,6.750,easy
1443.000,302.800,59.520,12.930,1699.000,312.600,65.410,12.870,290.600,63.460,15.660,4.353,422.300,92.320,25.520,6.834,easy
1457.000,305.900,60.050,12.940,1701.000,311.900,65.160,12.650,290.900,63.650,15.790,4.371,422.500,92.290,25.320,6.735,easy
1425.000,298.600,58.250,12.460,1683.000,308.800,64.370,12.570,290.400,63.450,15.580,4.311,415.900,90.640,24.910,6.583,easy
1414.000,298.500,57.950,12.480,1680.000,308.900,64.630,12.560,287.100,62.860,15.590,4.307,414.000,90.880,24.860,6.620,easy
1418.000,297.800,58.060,12.500,1686.000,309.800,64.660,12.610,286.900,63.080,15.590,4.320,416.300,90.970,24.990,6.643,easy
1424.000,299.500,58.550,12.540,1688.000,311.000,64.850,12.660,289.300,63.080,15.590,4.324,416.400,91.170,24.960,6.651,easy
1427.000,300.000,59.170,12.600,1699.000,311.400,65.110,12.780,290.100,63.150,15.660,4.342,418.200,91.480,25.130,6.694,easy
1439.000,303.000,59.580,12.740,1704.000,313.200,65.550,12.830,289.900,63.520,15.680,4.357,420.300,92.130,25.410,6.764,easy
1455.000,307.200,60.510,12.950,1716.000,315.300,66.030,12.900,288.500,63.450,15.770,4.375,423.300,92.770,25.620,6.840,easy
1463.000,305.300,59.970,12.780,1698.000,311.800,65.000,12.690,291.400,63.540,15.740,4.368,419.700,91.380,25.080,6.626,easy
1425.000,297.500,58.480,12.430,1693.000,310.000,64.750,12.600,288.300,63.050,15.530,4.301,414.600,90.310,24.720,6.548,easy
1419.000,297.100,58.170,12.430,1689.000,310.500,65.000,12.570,287.200,62.750,15.550,4.309,414.100,90.590,24.770,6.606,easy
1424.000,298.700,58.480,12.550,1690.000,310.900,64.890,12.600,289.300,63.110,15.560,4.318,415.300,90.470,24.860,6.601,easy
1424.000,299.600,58.470,12.560,1691.000,309.900,64.950,12.690,287.600,63.320,15.590,4.319,415.700,90.640,25.000,6.641,easy
1430.000,300.700,58.860,12.710,1698.000,311.200,65.180,12.780,287.200,63.220,15.600,4.348,417.400,91.400,25.150,6.700,easy
1442.000,304.900,59.180,12.810,1706.000,312.200,65.400,12.780,290.200,63.510,15.680,4.355,419.100,91.910,25.460,6.766,easy
1455.000,306.500,59.800,12.950,1711.000,313.000,65.590,12.770,291.600,63.460,15.760,4.381,421.900,92.390,25.440,6.767,easy
1442.000,301.800,58.550,12.540,1685.000,308.500,64.630,12.590,289.500,63.580,15.640,4.343,416.100,90.770,24.720,6.569,easy
1415.000,295.900,57.900,12.360,1681.000,308.200,64.340,12.550,287.600,62.900,15.510,4.299,413.700,90.270,24.700,6.536,easy
1411.000,296.600,58.090,12.410,1681.000,308.800,64.370,12.570,287.000,63.190,15.520,4.313,413.800,90.370,24.880,6.585,easy
1417.000,296.100,58.180,12.480,1674.000,308.000,64.310,12.570,288.300,63.240,15.570,4.322,415.300,90.740,24.780,6.601,easy
1418.000,297.400,58.210,12.500,1681.000,309.200,64.420,12.640,284.800,62.810,15.550,4.327,415.400,91.030,24.950,6.638,easy
1426.000,299.600,58.890,12.710,1687.000,311.300,65.000,12.730,288.700,62.890,15.650,4.357,418.300,91.270,25.140,6.726,easy
1440.000,302.700,59.370,12.840,1688.000,310.500,65.310,12.790,287.500,63.090,15.700,4.367,420.400,92.240,25.410,6.805,easy
1455.000,307.200,60.070,13.040,1701.000,313.000,65.170,12.730,290.100,63.850,15.770,4.393,423.100,92.520,25.490,6.778,easy
1437.000,301.100,58.410,12.580,1674.000,308.600,64.570,12.540,289.700,63.410,15.650,4.342,416.400,90.850,24.820,6.586,easy
1412.000,295.400,57.720,12.460,1677.000,307.400,64.250,12.550,287.800,62.950,15.490,4.325,415.500,90.660,24.730,6.598,easy
1415.000,297.900,58.240,12.490,1675.000,307.900,64.410,12.570,287.500,63.170,15.560,4.327,416.400,91.090,25.040,6.623,easy
1422.000,297.200,58.350,12.580,1682.000,308.300,64.450,12.640,287.700,63.510,15.590,4.346,418.000,91.230,25.040,6.665,easy
1425.000,300.400,58.630,12.620,1687.000,309.000,64.540,12.680,289.800,62.980,15.640,4.345,417.900,91.560,25.130,6.702,easy
1435.000,301.100,59.250,12.760,1695.000,310.700,65.070,12.740,286.500,63.450,15.740,4.375,421.000,92.020,25.280,6.777,easy
1448.000,305.100,60.060,12.950,1702.000,312.500,65.760,12.870,291.500,63.800,15.770,4.397,423.200,92.920,25.710,6.846,easy
1465.000,308.100,60.700,13.030,1695.000,311.800,64.980,12.720,292.300,63.800,15.840,4.401,422.800,92.660,25.410,6.721,easy
1430.000,298.800,58.780,12.460,1678.000,308.300,64.520,12.600,288.200,63.430,15.650,4.347,417.500,91.220,24.860,6.600,easy
1419.000,297.000,58.020,12.520,1682.000,308.800,64.570,12.640,289.300,63.050,15.560,4.342,416.700,91.110,24.930,6.634,easy
1425.000,298.200,58.390,12.640,1681.000,310.100,64.680,12.670,287.300,63.260,15.640,4.354,418.300,91.820,25.110,6.680,easy
1430.000,301.200,58.540,12.640,1682.000,308.900,64.730,12.630,288.400,62.990,15.650,4.360,419.500,91.810,25.110,6.689,easy
1434.000,300.500,59.020,12.740,1681.000,310.900,64.930,12.770,289.000,63.170,15.690,4.362,419.700,91.930,25.310,6.740,easy
1446.000,305.800,59.670,12.940,1694.000,312.700,65.450,12.790,289.500,63.610,15.760,4.393,422.200,92.900,25.590,6.804,easy
1459.000,307.600,60.710,13.100,1705.000,313.500,65.810,12.930,292.900,63.840,15.860,4.408,425.100,93.500,25.830,6.898,easy
1467.000,307.400,60.200,12.860,1689.000,310.100,64.710,12.700,293.400,63.850,15.840,4.395,422.300,92.520,25.270,6.683,easy
1426.000,299.000,58.510,12.530,1677.000,308.400,64.410,12.630,288.900,63.440,15.660,4.349,418.100,91.380,24.960,6.611,easy
1422.000,297.600,58.170,12.540,1678.000,308.500,64.670,12.680,287.300,63.140,15.600,4.350,417.900,91.420,25.030,6.629,easy
1428.000,299.900,58.780,12.600,1686.000,309.500,64.710,12.640,288.800,63.280,15.660,4.366,419.700,91.830,25.060,6.640,easy
1431.000,299.000,58.870,12.650,1682.000,309.700,64.840,12.720,288.800,63.250,15.670,4.368,419.800,91.770,25.160,6.685,easy
1438.000,301.800,59.590,12.710,1690.000,312.200,65.180,12.740,289.900,63.250,15.730,4.365,422.200,92.010,25.400,6.743,easy
1455.000,305.800,60.640,12.930,1701.000,314.800,65.820,12.860,290.400,63.720,15.720,4.397,423.300,92.920,25.550,6.806,easy
1473.000,310.000,61.000,13.170,1720.000,317.900,66.450,12.940,291.100,64.290,15.810,4.412,426.000,93.590,25.870,6.916,easy
1482.000,310.900,60.780,12.950,1705.000,313.900,65.900,12.770,293.400,63.910,15.830,4.397,421.200,92.070,25.240,6.641,easy
1442.000,302.100,58.950,12.640,1696.000,312.500,65.250,12.710,289.100,63.320,15.650,4.334,417.000,91.120,24.950,6.607,easy
1441.000,301.500,58.990,12.660,1698.000,313.600,65.600,12.730,289.600,63.440,15.640,4.334,417.300,91.270,25.010,6.621,easy
1447.000,303.400,59.460,12.760,1705.000,313.400,65.450,12.800,289.000,63.040,15.680,4.364,418.900,91.640,25.110,6.669,easy
1450.000,304.100,59.550,12.740,1704.000,313.800,65.600,12.800,290.300,63.170,15.710,4.355,419.100,91.900,25.180,6.693,easy
1458.000,305.800,60.020,12.910,1714.000,315.400,65.870,12.920,289.200,63.460,15.670,4.369,420.400,92.370,25.360,6.764,easy
1471.000,310.100,60.780,13.070,1721.000,316.200,66.390,13.010,289.400,63.390,15.800,4.388,422.700,92.880,25.710,6.830,easy
1486.000,311.100,61.590,13.340,1726.000,317.600,66.650,13.000,291.700,64.110,15.850,4.421,425.700,93.420,25.770,6.856,easy
1481.000,308.400,60.370,12.890,1708.000,314.000,65.480,12.770,292.300,63.670,15.780,4.373,419.200,92.070,25.140,6.644,easy
1446.000,302.400,59.320,12.700,1702.000,312.500,65.380,12.730,290.100,63.200,15.600,4.326,417.000,91.250,25.020,6.601,easy
1445.000,302.700,59.340,12.730,1697.000,313.000,65.370,12.790,287.000,63.340,15.670,4.352,417.800,91.770,25.140,6.642,easy
1453.000,304.400,59.510,12.810,1699.000,312.300,65.260,12.710,288.500,63.260,15.630,4.363,418.800,91.640,25.130,6.661,easy
1450.000,304.800,59.660,12.830,1698.000,312.600,65.470,12.760,291.000,63.250,15.680,4.364,419.200,91.740,25.210,6.691,easy
1458.000,307.500,60.070,12.990,1703.000,314.300,65.870,12.880,289.400,63.470,15.780,4.382,421.100,92.420,25.350,6.767,easy
1469.000,309.800,60.570,13.140,1708.000,316.100,66.000,12.950,287.100,63.730,15.780,4.410,423.500,92.780,25.580,6.860,easy
1482.000,312.700,61.200,13.060,1707.000,312.700,65.540,12.750,289.700,63.590,15.820,4.397,422.200,92.240,25.270,6.670,easy
1444.000,301.600,58.920,12.690,1685.000,310.900,64.870,12.670,288.600,63.230,15.610,4.348,416.700,90.970,24.840,6.582,easy
1435.000,302.100,59.000,12.670,1679.000,310.400,64.820,12.710,285.500,62.880,15.610,4.346,417.100,91.260,25.030,6.633,easy
1440.000,302.200,59.400,12.700,1687.000,310.600,65.060,12.710,287.900,63.200,15.680,4.370,418.900,91.530,25.090,6.662,easy
1439.000,302.500,59.690,12.760,1685.000,310.800,65.060,12.730,289.700,63.260,15.660,4.370,419.200,91.780,25.140,6.674,easy
1444.000,302.100,59.610,12.790,1682.000,311.500,65.280,12.750,290.600,63.760,15.700,4.385,420.900,92.120,25.310,6.734,easy
1455.000,306.100,60.070,13.020,1698.000,313.300,65.850,12.880,288.800,63.810,15.780,4.398,423.000,92.960,25.590,6.815,easy
1471.000,309.200,61.080,13.220,1704.000,314.500,65.840,12.840,292.900,63.700,15.880,4.431,426.900,93.250,25.700,6.822,easy
1461.000,306.100,59.680,12.790,1683.000,310.700,64.940,12.660,290.000,63.520,15.720,4.379,420.000,91.600,24.920,6.610,easy
1434.000,301.100,58.920,12.620,1684.000,310.700,65.070,12.660,290.900,63.020,15.610,4.352,417.600,91.070,24.890,6.589,easy
1433.000,301.100,59.020,12.650,1684.000,310.000,64.990,12.660,287.000,63.190,15.620,4.354,418.200,91.210,24.960,6.624,easy
1439.000,303.200,59.170,12.690,1690.000,311.200,65.110,12.670,288.300,63.000,15.610,4.363,417.800,91.420,24.970,6.615,easy
1440.000,303.100,59.670,12.760,1684.000,311.800,65.160,12.740,290.100,63.000,15.670,4.368,418.300,91.460,25.030,6.662,easy
1449.000,305.000,59.760,12.910,1695.000,312.300,65.620,12.800,290.100,63.540,15.750,4.370,420.200,92.110,25.210,6.721,easy
1463.000,308.700,60.800,12.960,1709.000,315.700,65.990,12.920,289.200,63.750,15.780,4.407,422.400,92.730,25.520,6.798,easy
1478.000,310.100,60.880,13.020,1707.000,313.700,65.340,12.760,292.200,63.600,15.850,4.402,421.600,92.160,25.090,6.625,easy
1442.000,301.900,58.620,12.580,1688.000,310.400,64.830,12.680,288.800,63.050,15.600,4.335,414.600,90.440,24.720,6.527,easy
1432.000,300.000,59.080,12.540,1683.000,310.400,64.870,12.670,287.000,62.800,15.600,4.331,414.400,90.560,24.660,6.523,easy
1434.000,301.300,58.520,12.580,1685.000,310.400,64.600,12.680,287.700,63.000,15.590,4.340,415.400,90.390,24.690,6.572,easy
1436.000,301.500,59.220,12.640,1688.000,309.900,64.890,12.630,289.800,62.920,15.520,4.339,415.000,90.570,24.820,6.577,easy
1439.000,301.500,58.930,12.680,1685.000,311.900,65.020,12.700,285.800,62.770,15.590,4.344,415.900,90.790,24.940,6.628,easy
1448.000,305.500,59.610,12.810,1693.000,312.400,65.270,12.780,288.100,63.040,15.630,4.366,417.100,91.430,25.150,6.668,easy
1460.000,307.300,59.890,13.050,1699.000,313.200,65.690,12.830,286.700,63.300,15.720,4.400,420.800,92.240,25.300,6.739,easy
1463.000,305.900,59.680,12.740,1686.000,309.300,64.890,12.640,289.500,63.240,15.670,4.365,416.500,90.760,24.720,6.508,easy
1427.000,298.300,58.280,12.460,1679.000,308.700,64.500,12.580,287.800,62.390,15.460,4.311,411.400,89.710,24.530,6.474,easy
1424.000,298.500,58.690,12.560,1672.000,308.900,64.430,12.610,284.900,62.510,15.460,4.325,412.500,89.650,24.490,6.500,easy
1428.000,299.600,58.410,12.560,1673.000,310.400,64.320,12.570,288.500,62.370,15.520,4.317,413.100,89.970,24.550,6.503,easy
1429.000,299.500,58.890,12.550,1675.000,308.900,64.600,12.630,284.200,62.330,15.510,4.338,412.400,89.930,24.600,6.518,easy
1436.000,301.900,59.010,12.680,1683.000,309.500,64.920,12.710,287.500,62.880,15.530,4.337,413.800,90.440,24.750,6.595,easy
1448.000,302.300,59.560,12.870,1688.000,310.900,65.240,12.750,286.400,62.700,15.530,4.352,416.100,90.690,25.010,6.657,easy
1458.000,306.200,60.400,12.990,1691.000,313.300,65.310,12.730,286.200,62.940,15.650,4.380,418.800,91.370,25.120,6.673,easy
1448.000,301.800,59.130,12.620,1671.000,307.800,64.390,12.570,286.300,62.920,15.510,4.337,412.000,89.670,24.370,6.458,easy
1421.000,298.700,58.370,12.520,1671.000,307.500,64.320,12.540,284.400,62.270,15.440,4.296,410.200,89.120,24.360,6.457,easy
1421.000,297.600,58.350,12.520,1673.000,307.500,64.140,12.590,284.900,62.270,15.400,4.309,410.600,89.230,24.440,6.470,easy
1428.000,300.100,58.450,12.620,1677.000,308.400,64.390,12.590,285.500,62.060,15.410,4.317,410.800,89.130,24.370,6.463,easy
1429.000,299.300,58.580,12.570,1680.000,308.900,64.660,12.630,281.800,62.440,15.410,4.318,410.900,89.480,24.600,6.517,easy
1438.000,302.400,59.490,12.730,1683.000,309.600,64.810,12.710,284.800,62.090,15.470,4.325,412.800,89.940,24.750,6.598,easy
1449.000,303.700,59.950,12.920,1696.000,311.500,65.310,12.780,285.700,62.220,15.560,4.359,415.400,90.760,24.910,6.696,easy
1460.000,306.700,59.900,12.810,1677.000,308.900,64.400,12.590,285.800,62.800,15.610,4.360,414.300,90.070,24.480,6.498,easy
1422.000,298.200,58.160,12.500,1668.000,306.300,64.010,12.510,282.800,62.230,15.350,4.300,409.600,89.100,24.300,6.420,easy
1418.000,296.800,58.530,12.500,1665.000,306.600,63.810,12.560,285.300,62.090,15.370,4.303,409.700,89.050,24.320,6.451,easy
1421.000,298.400,58.280,12.520,1662.000,306.700,64.160,12.580,283.100,62.120,15.430,4.312,409.000,89.210,24.370,6.478,easy
1421.000,297.500,58.290,12.610,1670.000,306.500,64.210,12.520,283.100,62.160,15.420,4.320,409.800,89.240,24.440,6.501,easy
1427.000,298.900,58.600,12.670,1670.000,308.100,64.270,12.630,284.900,62.060,15.460,4.328,410.500,89.790,24.570,6.569,easy
1437.000,302.100,59.330,12.840,1676.000,308.700,64.710,12.710,284.200,62.150,15.500,4.351,413.900,90.440,24.910,6.641,easy
1451.000,306.000,59.970,13.000,1681.000,309.000,64.680,12.610,286.900,62.570,15.600,4.368,415.200,90.330,24.840,6.579,easy
1428.000,298.700,58.280,12.450,1659.000,305.900,63.670,12.470,286.400,62.770,15.420,4.313,409.300,88.680,24.120,6.419,easy
1409.000,295.200,57.800,12.350,1656.000,304.400,63.640,12.460,285.100,62.040,15.300,4.292,406.800,88.370,24.130,6.413,easy
1408.000,296.200,57.780,12.380,1659.000,305.700,63.940,12.490,283.500,61.890,15.310,4.309,407.700,88.690,24.210,6.424,easy
1413.000,296.200,58.210,12.420,1655.000,305.400,63.670,12.470,284.500,61.960,15.360,4.301,407.500,88.840,24.270,6.452,easy
1414.000,297.700,58.040,12.480,1662.000,306.100,64.100,12.540,283.800,61.910,15.410,4.306,408.700,89.160,24.440,6.499,easy
1424.000,299.500,59.170,12.680,1667.000,307.300,64.470,12.590,284.800,62.240,15.430,4.327,410.100,89.690,24.640,6.573,easy
1438.000,302.500,59.580,12.890,1673.000,308.500,64.820,12.710,284.600,62.390,15.540,4.347,414.100,90.370,24.860,6.656,easy
1451.000,304.200,59.550,12.880,1671.000,306.900,64.180,12.540,286.400,62.390,15.540,4.381,413.900,89.740,24.520,6.481,easy
1415.000,295.400,57.840,12.390,1654.000,305.300,63.700,12.440,283.900,62.160,15.380,4.299,407.000,88.360,24.170,6.403,easy
1405.000,294.400,57.790,12.360,1653.000,303.000,63.770,12.440,282.600,61.870,15.320,4.292,405.900,88.210,24.050,6.415,easy
1407.000,295.000,57.720,12.440,1656.000,303.600,63.720,12.420,284.000,61.960,15.350,4.303,406.500,88.560,24.300,6.452,easy
1407.000,295.600,57.660,12.400,1651.000,302.900,63.800,12.430,283.200,62.140,15.340,4.309,408.100,88.720,24.250,6.440,easy
1409.000,295.600,57.970,12.530,1650.000,304.800,63.720,12.460,285.300,62.190,15.360,4.317,409.000,88.980,24.510,6.495,easy
1420.000,299.200,58.520,12.670,1659.000,306.200,63.900,12.570,282.500,62.370,15.450,4.349,411.900,89.620,24.710,6.585,easy
1432.000,301.200,59.720,12.820,1668.000,307.800,64.490,12.690,284.400,62.280,15.540,4.379,415.500,90.580,24.930,6.675,easy
1448.000,304.100,60.160,12.980,1673.000,307.400,63.930,12.510,287.600,62.570,15.670,4.381,415.600,90.240,24.770,6.558,easy
1417.000,296.400,58.110,12.440,1652.000,303.400,63.490,12.420,286.600,62.270,15.480,4.323,409.200,88.870,24.260,6.440,easy
1405.000,294.200,57.770,12.390,1653.000,303.900,63.390,12.430,282.500,62.240,15.390,4.319,408.100,88.660,24.280,6.486,easy
1409.000,295.600,57.790,12.500,1656.000,304.400,63.570,12.450,285.600,62.180,15.450,4.339,409.500,89.160,24.460,6.486,easy
1414.000,297.900,58.010,12.510,1653.000,304.600,63.930,12.500,285.000,62.540,15.490,4.352,410.100,89.230,24.520,6.505,easy
1418.000,298.100,58.000,12.610,1660.000,305.200,64.140,12.590,285.300,62.620,15.530,4.355,411.200,89.770,24.590,6.576,easy
1430.000,299.200,58.960,12.750,1669.000,307.200,64.530,12.680,285.600,62.540,15.600,4.376,413.200,90.330,24.950,6.650,easy
1444.000,303.900,59.740,12.980,1685.000,309.800,64.910,12.770,286.800,63.050,15.660,4.410,415.400,91.140,25.160,6.741,easy
1460.000,306.700,60.070,13.080,1681.000,308.800,64.580,12.640,288.900,63.040,15.680,4.407,417.200,90.980,24.940,6.611,easy
1431.000,299.100,58.300,12.530,1662.000,306.000,64.030,12.510,283.400,62.400,15.500,4.334,410.400,89.450,24.300,6.479,easy
1417.000,298.000,58.090,12.500,1664.000,305.000,63.760,12.490,284.300,62.060,15.470,4.334,410.000,89.290,24.420,6.521,easy
1422.000,297.000,58.320,12.570,1670.000,306.200,63.970,12.540,282.400,62.350,15.470,4.346,411.300,89.570,24.620,6.532,easy
1425.000,298.800,58.680,12.660,1662.000,306.100,63.690,12.540,286.000,62.290,15.530,4.350,411.400,89.830,24.650,6.565,easy
1425.000,297.900,58.860,12.740,1664.000,306.200,64.350,12.620,285.100,62.250,15.530,4.362,412.000,90.120,24.710,6.622,easy
1434.000,301.200,59.320,12.980,1671.000,307.100,64.420,12.710,284.700,62.890,15.590,4.386,415.500,90.710,25.120,6.687,easy
1449.000,306.600,60.230,13.140,1678.000,309.400,64.930,12.770,285.400,62.970,15.700,4.421,417.700,91.410,25.370,6.806,easy
1461.000,306.200,60.150,13.000,1670.000,307.200,64.250,12.550,288.400,63.190,15.740,4.424,418.000,90.740,24.920,6.617,easy
1420.000,298.800,58.390,12.610,1653.000,303.800,63.720,12.500,287.000,62.740,15.550,4.361,412.300,89.780,24.670,6.541,easy
1415.000,296.300,58.230,12.520,1656.000,304.500,63.840,12.520,288.200,62.220,15.570,4.361,413.000,89.910,24.630,6.578,easy
1421.000,299.600,58.670,12.720,1659.000,305.100,63.990,12.560,287.200,62.840,15.610,4.386,414.000,90.310,24.850,6.603,easy
1425.000,299.900,58.920,12.680,1663.000,304.600,64.010,12.600,289.600,62.730,15.690,4.368,414.400,90.660,24.920,6.637,easy
1429.000,301.900,59.200,12.840,1667.000,307.700,64.200,12.650,286.600,63.030,15.650,4.400,416.700,90.840,25.090,6.697,easy
1443.000,304.000,60.100,12.980,1675.000,309.600,64.770,12.780,286.200,63.130,15.700,4.413,419.900,91.940,25.400,6.788,easy
1456.000,305.600,60.750,13.140,1683.000,310.700,65.020,12.770,288.500,63.210,15.780,4.449,421.900,92.810,25.650,6.865,easy
1465.000,307.900,60.300,13.030,1670.000,308.400,64.200,12.540,289.300,63.340,15.800,4.434,419.800,91.460,25.080,6.663,easy
1424.000,298.300,58.740,12.640,1661.000,305.200,63.750,12.470,286.700,62.930,15.590,4.383,414.400,90.560,24.720,6.562,easy
1417.000,296.300,57.910,12.570,1658.000,305.600,63.820,12.480,287.400,62.870,15.580,4.366,413.200,90.430,24.710,6.591,easy
1420.000,299.500,58.580,12.710,1659.000,305.200,63.760,12.520,286.800,62.880,15.590,4.384,415.300,90.510,24.880,6.624,easy
1423.000,298.300,58.290,12.700,1659.000,305.300,63.790,12.500,288.500,63.130,15.620,4.379,415.600,90.740,24.950,6.654,easy
1426.000,300.000,59.050,12.730,1666.000,306.300,64.290,12.610,287.200,62.770,15.700,4.391,416.300,91.320,25.140,6.685,easy
1437.000,302.200,59.820,12.960,1672.000,308.100,64.270,12.690,289.900,63.230,15.710,4.426,418.300,91.780,25.270,6.777,easy
1449.000,305.300,60.200,13.100,1676.000,310.200,64.850,12.790,288.100,63.220,15.810,4.443,421.700,92.610,25.560,6.876,easy
1466.000,308.700,60.750,13.060,1681.000,309.600,64.420,12.540,289.200,63.730,15.840,4.429,420.800,91.980,25.230,6.712,easy
1430.000,300.400,58.930,12.630,1666.000,305.900,63.820,12.510,289.400,63.330,15.650,4.376,415.200,90.460,24.840,6.572,easy
1421.000,298.200,58.520,12.640,1664.000,306.700,63.780,12.520,287.000,62.960,15.590,4.369,413.800,90.390,24.760,6.579,easy
1424.000,299.600,58.620,12.710,1668.000,306.800,64.120,12.500,287.700,62.540,15.630,4.373,414.300,90.560,24.860,6.638,easy
1427.000,299.500,58.940,12.720,1660.000,307.000,64.010,12.510,286.700,63.160,15.610,4.374,414.500,90.820,24.900,6.634,easy
1430.000,300.200,59.010,12.860,1666.000,308.000,64.230,12.620,285.400,63.240,15.690,4.376,415.200,91.010,25.070,6.683,easy
1442.000,303.100,59.490,13.000,1676.000,309.000,64.710,12.710,288.900,63.160,15.730,4.405,418.300,91.960,25.290,6.769,easy
1457.000,305.300,60.110,13.150,1688.000,311.100,65.110,12.780,289.800,63.380,15.800,4.429,420.700,92.570,25.680,6.844,easy
1471.000,310.400,60.700,13.190,1687.000,310.300,64.940,12.590,290.200,63.860,15.880,4.459,421.700,92.440,25.250,6.740,easy
1466.000,306.800,60.060,12.860,1682.000,308.600,64.420,12.560,287.600,63.690,15.820,4.409,419.300,91.510,25.090,6.607,bogus
1433.000,300.500,58.560,12.660,1675.000,308.300,64.390,12.560,287.000,63.280,15.630,4.390,414.800,90.760,24.730,6.596,bogus
1432.000,299.600,58.490,12.640,1674.000,307.400,64.500,12.550,287.400,63.140,15.650,4.373,415.200,90.960,24.840,6.635,bogus
1438.000,302.400,59.050,12.750,1678.000,308.000,64.410,12.550,287.400,63.120,15.640,4.392,415.800,91.180,24.970,6.644,bogus
1439.000,301.800,59.160,12.720,1677.000,309.400,64.540,12.600,288.300,63.250,15.690,4.393,416.800,91.440,25.050,6.672,bogus
1462.000,305.400,59.970,12.790,1692.000,310.600,64.700,12.590,289.400,63.660,15.870,4.442,415.300,91.130,24.860,6.610,easy
1476.000,308.900,60.720,13.060,1705.000,311.600,64.980,12.660,288.000,63.920,15.930,4.472,417.300,91.560,25.160,6.679,easy
1486.000,311.700,61.250,13.180,1710.000,312.700,65.190,12.710,287.800,64.130,15.980,4.500,420.100,92.260,25.350,6.767,easy
1501.000,313.400,62.000,13.260,1707.000,311.300,64.890,12.530,291.400,64.170,16.030,4.496,421.400,92.170,25.220,6.646,easy
1468.000,305.900,59.570,12.710,1687.000,307.800,64.300,12.420,290.200,63.860,15.840,4.423,413.400,90.360,24.650,6.476,easy
1451.000,305.200,59.200,12.610,1686.000,307.400,63.890,12.420,289.400,63.260,15.790,4.412,411.400,90.370,24.470,6.487,easy
1450.000,303.600,59.010,12.650,1687.000,308.200,64.430,12.470,286.200,63.580,15.810,4.413,413.000,90.300,24.630,6.525,easy
1456.000,304.400,59.480,12.680,1685.000,308.600,64.250,12.480,285.300,63.580,15.850,4.432,413.700,90.360,24.580,6.532,easy
1458.000,305.900,59.870,12.690,1694.000,308.900,64.500,12.520,288.500,63.920,15.850,4.438,415.000,90.630,24.780,6.572,easy
1466.000,307.400,60.140,12.930,1700.000,310.800,64.600,12.640,290.800,63.470,15.900,4.453,415.500,91.240,25.000,6.675,easy
1479.000,309.800,60.860,13.070,1702.000,312.100,65.020,12.680,288.900,63.650,15.990,4.483,418.500,91.950,25.360,6.768,easy
1493.000,313.700,61.620,13.310,1711.000,314.100,65.350,12.760,289.800,63.830,16.030,4.500,421.700,92.570,25.560,6.833,easy
1506.000,316.200,61.800,13.220,1702.000,310.800,64.830,12.600,289.400,64.270,16.070,4.497,419.800,92.040,25.130,6.616,easy
1464.000,306.200,59.560,12.750,1689.000,308.300,64.320,12.440,287.900,63.650,15.900,4.438,415.300,90.500,24.750,6.534,easy
1453.000,303.300,59.220,12.680,1686.000,308.100,64.250,12.490,286.300,63.520,15.860,4.429,413.100,90.500,24.750,6.556,easy
1456.000,305.600,59.580,12.790,1690.000,308.100,64.290,12.530,288.800,63.340,15.830,4.451,415.100,90.770,24.840,6.558,easy
1458.000,305.600,59.750,12.770,1685.000,308.200,64.070,12.460,286.800,63.770,15.850,4.450,414.200,90.690,24.890,6.576,easy
1458.000,304.900,59.940,12.860,1684.000,308.400,64.420,12.550,287.200,63.720,15.880,4.450,415.900,91.190,25.070,6.623,easy
1466.000,308.200,60.500,13.010,1694.000,310.100,64.630,12.620,288.300,64.170,15.940,4.483,418.400,92.050,25.270,6.708,easy
1480.000,310.100,61.340,13.220,1699.000,311.300,64.910,12.700,291.200,64.280,16.020,4.496,420.200,92.490,25.550,6.794,easy
1493.000,313.400,62.120,13.340,1705.000,311.100,64.840,12.620,290.800,64.110,16.130,4.521,422.800,92.650,25.490,6.759,easy
1474.000,306.700,60.230,12.850,1681.000,309.500,63.990,12.470,291.900,64.150,15.990,4.449,416.200,91.260,24.800,6.548,easy
1451.000,301.700,59.430,12.760,1688.000,307.900,64.120,12.430,287.100,63.970,15.910,4.438,414.600,90.980,24.750,6.546,easy
1453.000,303.400,59.780,12.770,1686.000,308.800,64.530,12.500,288.200,63.910,15.940,4.443,415.500,91.040,24.830,6.574,easy
1459.000,306.100,60.010,12.860,1687.000,308.100,64.410,12.500,286.900,63.720,15.940,4.455,416.000,91.050,24.930,6.583,easy
1461.000,306.200,59.890,12.870,1690.000,309.700,64.580,12.550,290.600,63.860,15.940,4.470,416.100,91.320,25.050,6.638,easy
1469.000,308.100,60.340,13.040,1695.000,309.900,64.870,12.630,288.100,64.200,15.990,4.468,418.100,92.170,25.250,6.716,easy
1481.000,311.400,60.920,13.160,1705.000,312.600,65.270,12.690,291.500,64.280,16.060,4.515,420.600,92.650,25.500,6.788,easy
1495.000,314.200,62.230,13.300,1712.000,311.400,65.110,12.630,291.600,64.500,16.140,4.522,422.700,92.790,25.570,6.735,easy
1475.000,309.400,60.030,12.770,1691.000,309.300,64.250,12.450,289.100,64.080,16.000,4.446,416.100,91.220,24.800,6.556,easy
1453.000,303.700,59.740,12.700,1685.000,308.600,64.130,12.480,288.700,63.990,15.890,4.441,413.900,90.460,24.680,6.521,easy
1450.000,302.800,59.100,12.740,1684.000,307.900,64.100,12.480,289.600,63.700,15.890,4.445,414.600,90.810,24.860,6.554,easy
1455.000,303.900,59.910,12.780,1681.000,308.500,64.190,12.510,288.900,63.580,15.880,4.447,414.000,90.820,24.790,6.565,easy
1454.000,304.600,59.740,12.790,1682.000,308.800,64.290,12.540,286.800,63.650,15.900,4.446,415.200,91.060,24.860,6.608,easy
1462.000,305.300,59.940,12.900,1685.000,310.100,64.550,12.570,288.200,63.550,15.910,4.457,416.400,91.290,25.140,6.650,easy
1472.000,309.300,60.590,13.070,1697.000,310.100,64.810,12.640,289.900,63.780,16.030,4.479,419.100,91.990,25.360,6.735,easy
1485.000,311.600,61.010,13.250,1700.000,311.000,64.860,12.520,290.600,64.140,16.050,4.499,420.400,92.260,25.310,6.664,easy
1464.000,305.700,59.510,12.720,1682.000,307.300,63.890,12.440,291.600,63.390,15.880,4.441,413.400,90.590,24.680,6.500,easy
1444.000,302.100,59.140,12.610,1673.000,306.900,63.840,12.360,288.300,63.280,15.750,4.411,411.500,89.900,24.560,6.472,easy
1441.000,303.000,58.780,12.600,1680.000,306.600,63.770,12.350,285.200,63.390,15.790,4.414,412.100,89.980,24.570,6.506,easy
1445.000,301.900,58.870,12.650,1681.000,305.900,63.810,12.370,285.700,63.300,15.800,4.429,411.500,89.930,24.540,6.484,easy
1444.000,301.800,58.770,12.580,1683.000,306.900,63.790,12.450,287.400,63.540,15.800,4.427,412.500,90.270,24.720,6.517,easy
1452.000,303.700,59.350,12.800,1687.000,308.800,64.110,12.500,287.300,63.560,15.790,4.433,413.200,90.350,24.800,6.594,easy
1462.000,306.600,60.060,12.870,1687.000,309.200,64.640,12.550,288.100,63.750,15.900,4.453,415.300,91.130,25.010,6.644,easy
1474.000,308.500,60.670,13.030,1694.000,309.200,64.200,12.420,289.300,63.570,15.930,4.473,416.400,91.380,24.930,6.574,easy
1454.000,304.200,58.860,12.560,1674.000,306.600,63.610,12.350,285.400,63.270,15.790,4.420,409.800,89.660,24.380,6.414,easy
1434.000,298.900,58.170,12.470,1667.000,305.000,63.260,12.260,285.000,62.980,15.660,4.385,407.500,89.140,24.260,6.380,easy
1430.000,298.600,58.240,12.500,1665.000,304.500,63.270,12.270,284.000,62.960,15.710,4.390,407.700,89.020,24.310,6.421,easy
1432.000,298.700,58.130,12.490,1663.000,303.400,63.240,12.250,282.000,62.910,15.710,4.384,407.700,89.200,24.170,6.406,easy
1430.000,300.200,58.040,12.490,1665.000,303.800,63.490,12.270,286.000,62.530,15.730,4.397,408.100,89.530,24.360,6.450,easy
1435.000,300.200,58.580,12.620,1673.000,304.400,63.480,12.350,283.600,62.750,15.700,4.406,408.900,89.420,24.530,6.516,easy
1445.000,302.700,59.570,12.750,1676.000,306.200,63.820,12.430,287.500,62.910,15.730,4.432,412.100,90.150,24.680,6.555,easy
1455.000,305.400,59.640,12.740,1673.000,305.500,63.420,12.280,286.500,63.140,15.770,4.427,411.300,89.710,24.500,6.428,easy
1427.000,298.700,58.090,12.330,1651.000,301.200,62.840,12.150,286.000,62.480,15.600,4.366,405.500,88.580,23.960,6.348,easy
1415.000,295.600,57.820,12.290,1646.000,300.700,62.460,12.160,283.200,62.550,15.500,4.359,404.200,88.140,24.010,6.352,easy
1413.000,295.000,57.360,12.340,1647.000,300.100,62.620,12.150,283.600,62.570,15.540,4.360,405.600,88.490,24.120,6.356,easy
1413.000,295.300,57.820,12.360,1640.000,301.300,62.660,12.120,285.800,62.320,15.500,4.367,406.000,88.310,24.050,6.364,easy
1413.000,295.600,57.700,12.430,1646.000,300.600,62.490,12.210,283.700,62.070,15.570,4.378,406.700,88.750,24.200,6.411,easy
1420.000,298.300,58.140,12.490,1648.000,301.700,62.890,12.230,285.200,62.680,15.590,4.402,407.500,88.900,24.370,6.471,easy
1428.000,298.300,58.380,12.620,1653.000,302.200,63.220,12.270,283.100,62.650,15.620,4.414,409.700,89.660,24.530,6.526,easy
1430.000,298.700,58.160,12.430,1633.000,298.600,62.250,12.040,283.700,62.560,15.590,4.386,405.900,88.400,24.040,6.319,easy
1399.000,293.100,56.980,12.160,1627.000,297.400,61.880,11.980,280.800,61.990,15.460,4.348,403.000,87.760,23.810,6.279,easy
1392.000,290.900,56.580,12.190,1624.000,297.200,61.730,12.060,281.200,62.010,15.390,4.344,402.100,87.620,23.850,6.316,easy
1393.000,292.400,56.920,12.200,1619.000,296.100,61.710,12.030,284.400,62.120,15.430,4.346,403.700,87.670,23.910,6.329,easy
1391.000,292.700,56.940,12.200,1623.000,296.400,61.820,12.060,280.800,62.170,15.450,4.364,404.100,88.090,24.020,6.336,easy
1395.000,292.600,57.470,12.310,1625.000,297.500,61.740,12.110,282.000,62.150,15.490,4.369,405.300,88.380,24.090,6.431,easy
1405.000,294.300,57.960,12.460,1628.000,298.200,62.250,12.120,283.900,62.450,15.550,4.385,406.900,88.860,24.380,6.448,easy
1415.000,295.400,58.580,12.570,1635.000,299.900,62.660,12.180,282.600,62.650,15.660,4.414,409.100,89.430,24.540,6.542,easy
1423.000,297.300,58.040,12.450,1630.000,296.200,62.000,11.980,283.700,62.550,15.610,4.398,408.100,88.500,24.030,6.338,easy
1391.000,290.600,56.700,12.100,1619.000,294.800,61.260,11.980,282.400,62.070,15.450,4.349,403.100,87.410,23.760,6.276,easy
1384.000,288.700,56.340,12.120,1618.000,295.600,61.330,11.920,283.000,62.130,15.440,4.348,402.300,87.250,23.770,6.275,easy
1383.000,288.100,56.490,12.070,1616.000,295.500,61.420,11.950,282.400,61.990,15.390,4.353,402.300,87.300,23.800,6.299,easy
1384.000,288.600,56.730,12.120,1612.000,295.100,61.410,11.960,280.600,62.050,15.440,4.341,402.200,87.770,23.820,6.300,easy
1385.000,290.100,56.590,12.150,1613.000,295.100,61.800,11.970,282.500,62.030,15.450,4.359,403.100,87.960,24.030,6.353,easy
1395.000,291.600,57.280,12.290,1622.000,296.500,61.910,12.100,280.900,62.250,15.540,4.395,404.900,88.420,24.260,6.424,easy
1403.000,294.600,57.640,12.390,1626.000,298.500,61.960,12.160,283.700,62.490,15.590,4.406,408.200,89.110,24.350,6.468,easy
1413.000,295.500,57.800,12.370,1623.000,295.600,61.390,11.900,284.100,62.070,15.610,4.414,407.000,88.520,24.050,6.347,easy
1381.000,288.000,56.360,11.960,1602.000,293.600,60.880,11.830,282.100,62.340,15.430,4.344,401.800,87.350,23.640,6.256,easy
1371.000,287.400,56.070,12.000,1604.000,292.600,60.890,11.880,281.100,61.900,15.380,4.341,401.100,87.350,23.640,6.271,easy
1372.000,286.600,55.800,11.990,1600.000,291.900,60.770,11.830,282.500,61.540,15.430,4.346,401.500,87.260,23.720,6.300,easy
1372.000,285.200,55.960,12.070,1597.000,291.600,60.630,11.810,283.000,61.800,15.390,4.357,402.300,87.610,23.740,6.296,easy
1371.000,288.600,56.100,12.070,1602.000,292.700,61.120,11.890,282.800,62.040,15.490,4.375,404.200,87.700,23.940,6.365,easy
1382.000,288.300,56.520,12.250,1610.000,293.100,61.250,11.940,283.200,62.030,15.490,4.393,405.500,88.420,24.080,6.412,easy
1391.000,293.200,57.050,12.360,1611.000,295.000,61.670,12.060,282.500,62.110,15.500,4.416,408.500,89.000,24.380,6.514,easy
1405.000,295.000,57.460,12.340,1612.000,294.200,61.170,11.890,284.700,62.360,15.640,4.416,408.400,88.640,24.050,6.365,easy
1375.000,287.400,56.070,11.970,1599.000,292.600,60.920,11.810,283.200,62.120,15.430,4.359,403.200,87.570,23.730,6.270,easy
1369.000,286.700,55.960,12.000,1605.000,291.000,60.970,11.850,284.700,61.870,15.420,4.349,402.300,87.570,23.740,6.311,easy
1373.000,286.700,56.010,11.980,1603.000,292.200,61.190,11.920,282.900,62.180,15.460,4.375,404.800,87.800,23.960,6.321,easy
1376.000,286.500,56.160,12.060,1602.000,292.200,60.940,11.910,283.900,62.190,15.520,4.359,404.000,87.890,23.950,6.357,easy
1378.000,287.100,56.630,12.130,1607.000,293.300,61.270,11.990,281.700,62.200,15.540,4.391,406.200,88.360,24.130,6.394,easy
1387.000,290.200,57.020,12.270,1616.000,295.200,61.780,12.080,283.300,62.280,15.570,4.406,408.000,88.900,24.330,6.471,easy
1400.000,294.800,57.790,12.430,1619.000,296.300,62.020,12.100,284.000,62.660,15.600,4.420,410.200,89.730,24.530,6.543,easy
1412.000,296.300,57.580,12.420,1619.000,295.100,61.460,11.980,286.700,62.690,15.690,4.433,410.500,89.180,24.140,6.411,easy
1384.000,288.600,56.170,12.080,1607.000,292.400,61.010,11.910,283.300,62.240,15.510,4.372,404.700,88.100,23.870,6.347,easy
1376.000,289.200,56.240,12.060,1600.000,292.200,61.280,11.890,282.400,62.390,15.470,4.379,404.000,88.180,23.930,6.357,easy
1377.000,287.400,56.420,12.180,1604.000,292.200,61.220,11.910,283.500,62.290,15.470,4.384,404.900,88.380,24.010,6.364,easy
1379.000,288.300,56.020,12.110,1600.000,292.800,61.070,11.940,283.000,62.130,15.520,4.394,405.800,88.520,24.010,6.402,easy
1381.000,289.000,56.570,12.190,1612.000,293.500,61.390,12.000,281.000,62.480,15.560,4.405,406.700,88.990,24.140,6.462,easy
1389.000,291.200,56.960,12.280,1607.000,293.500,61.560,12.070,285.100,62.920,15.650,4.424,409.400,89.430,24.470,6.538,easy
1401.000,293.600,57.800,12.450,1613.000,295.500,61.950,12.140,286.000,62.710,15.700,4.455,411.700,90.160,24.710,6.596,easy
1411.000,297.000,58.000,12.460,1608.000,294.600,61.600,11.990,286.700,62.710,15.780,4.471,411.700,89.930,24.360,6.492,easy
1384.000,290.800,56.210,12.110,1600.000,291.900,61.000,11.880,284.200,62.470,15.570,4.397,406.900,88.500,24.030,6.376,easy
1373.000,286.100,56.090,12.100,1593.000,291.800,60.820,11.880,284.500,62.060,15.540,4.390,405.800,88.820,24.030,6.389,easy
1373.000,287.200,56.070,12.120,1591.000,291.900,60.850,11.920,284.600,62.300,15.560,4.408,406.800,88.970,24.120,6.439,easy
1374.000,288.200,56.280,12.130,1596.000,291.200,60.890,11.910,282.200,62.310,15.590,4.419,407.300,88.940,24.120,6.434,easy
1377.000,288.800,56.560,12.200,1596.000,291.900,61.090,11.950,283.700,62.520,15.610,4.422,408.200,89.290,24.360,6.489,easy
1385.000,291.000,56.950,12.380,1603.000,291.900,61.380,11.980,284.300,62.980,15.680,4.449,411.900,89.870,24.540,6.585,easy
1394.000,292.800,57.470,12.500,1609.000,294.700,61.800,12.140,285.900,63.220,15.740,4.480,412.200,90.560,24.790,6.647,easy
1406.000,295.300,58.300,12.640,1619.000,295.500,61.990,12.190,287.500,63.230,15.820,4.507,415.300,91.090,24.890,6.674,easy
1404.000,294.100,57.190,12.330,1600.000,293.100,60.990,11.970,287.400,63.280,15.770,4.462,410.700,89.540,24.330,6.458,easy
1376.000,288.500,56.170,12.130,1594.000,291.000,60.870,11.930,284.100,62.790,15.640,4.426,408.100,88.940,24.270,6.449,easy
1373.000,287.200,56.190,12.110,1597.000,291.500,61.180,12.020,285.000,62.300,15.620,4.421,408.700,89.310,24.300,6.461,easy
1380.000,288.400,56.390,12.190,1597.000,292.600,61.160,12.030,283.500,62.660,15.650,4.431,409.600,89.510,24.370,6.502,easy
1384.000,289.900,56.530,12.240,1602.000,293.800,61.620,12.050,285.200,62.800,15.660,4.455,409.500,89.670,24.390,6.519,easy
1393.000,291.800,57.330,12.450,1614.000,295.900,62.030,12.130,287.900,63.070,15.700,4.465,412.100,90.440,24.710,6.575,easy
1406.000,295.500,58.220,12.620,1626.000,297.500,62.400,12.180,284.300,63.410,15.870,4.486,415.000,90.850,24.910,6.664,easy
1422.000,298.300,58.860,12.820,1637.000,300.200,62.990,12.310,287.200,63.450,15.860,4.524,416.700,91.870,25.230,6.769,easy
1440.000,301.400,59.340,12.820,1642.000,301.200,63.000,12.270,288.200,63.850,15.990,4.542,418.500,91.970,25.040,6.660,easy
1419.000,296.500,57.810,12.430,1631.000,298.400,62.410,12.170,288.000,63.590,15.840,4.479,411.900,90.030,24.470,6.524,easy
1404.000,294.800,57.160,12.300,1628.000,298.000,62.410,12.190,284.800,62.990,15.740,4.458,412.200,90.350,24.520,6.523,easy
1407.000,294.100,57.640,12.360,1633.000,299.100,62.560,12.230,286.700,63.090,15.790,4.470,412.000,90.610,24.660,6.579,easy
1411.000,294.800,57.560,12.450,1631.000,298.300,62.440,12.230,286.700,63.360,15.830,4.489,413.700,90.820,24.690,6.580,easy
1412.000,296.100,58.070,12.480,1637.000,298.700,62.820,12.310,288.600,63.620,15.870,4.504,414.600,91.010,24.830,6.636,easy
1420.000,297.800,58.710,12.610,1643.000,300.300,63.000,12.380,287.600,63.530,15.920,4.515,416.900,91.770,25.090,6.703,easy
1431.000,300.000,59.030,12.800,1647.000,301.900,63.260,12.400,287.300,63.870,16.020,4.540,419.500,92.390,25.330,6.821,easy
1443.000,302.600,59.920,12.920,1650.000,301.100,63.240,12.340,290.700,64.220,16.120,4.582,420.900,92.590,25.350,6.760,easy
1426.000,297.500,58.290,12.490,1632.000,298.900,62.370,12.170,290.000,64.160,15.950,4.519,416.100,91.210,24.740,6.591,easy
1405.000,294.300,57.630,12.450,1624.000,298.300,62.450,12.160,287.800,63.590,15.890,4.500,414.000,91.100,24.750,6.612,easy
1409.000,294.500,57.990,12.520,1634.000,299.400,62.790,12.260,285.400,63.450,15.890,4.502,415.300,91.260,24.920,6.640,easy
1418.000,296.800,58.240,12.560,1638.000,300.500,62.780,12.290,287.400,64.070,15.940,4.531,416.100,91.370,24.990,6.651,easy
1421.000,297.800,58.230,12.610,1642.000,301.500,63.220,12.370,289.000,64.050,15.940,4.530,417.000,91.710,25.090,6.717,easy
1431.000,299.500,58.670,12.750,1648.000,301.800,63.600,12.430,291.500,63.960,16.050,4.546,418.400,92.150,25.300,6.768,easy
1443.000,303.900,59.580,12.900,1655.000,303.800,63.920,12.520,289.800,64.260,16.120,4.566,420.200,92.950,25.580,6.845,easy
1456.000,305.700,60.200,12.940,1658.000,305.000,63.470,12.380,290.600,64.600,16.160,4.580,420.500,92.510,25.210,6.715,easy
1427.000,298.200,58.330,12.480,1646.000,301.500,63.100,12.260,288.600,64.000,15.960,4.508,414.500,91.090,24.730,6.602,easy
1413.000,296.400,57.980,12.430,1639.000,298.700,62.770,12.260,287.800,63.700,15.900,4.506,413.200,90.980,24.760,6.614,easy
1412.000,296.800,57.860,12.550,1639.000,301.100,62.940,12.300,286.700,63.970,15.990,4.505,414.600,91.200,24.940,6.652,easy
1416.000,297.700,57.960,12.530,1639.000,301.300,63.100,12.310,290.000,63.800,15.990,4.509,414.300,91.270,24.890,6.637,easy
1418.000,297.500,58.230,12.600,1638.000,300.200,62.940,12.350,288.000,64.000,15.980,4.523,416.300,91.480,25.150,6.710,easy
1427.000,300.500,58.960,12.770,1647.000,301.600,63.320,12.380,290.500,64.160,16.030,4.552,417.500,92.210,25.260,6.780,easy
1438.000,302.900,59.650,12.910,1654.000,303.900,63.790,12.460,289.900,64.540,16.160,4.561,420.400,92.730,25.570,6.839,easy
1444.000,302.200,59.140,12.680,1635.000,300.700,62.870,12.250,289.100,63.990,16.120,4.548,417.500,91.610,24.900,6.625,easy
1407.000,295.600,57.350,12.400,1624.000,298.500,62.430,12.160,287.500,63.760,15.870,4.490,411.500,90.550,24.630,6.551,easy
1399.000,293.900,57.530,12.380,1625.000,297.400,62.210,12.160,287.200,63.530,15.900,4.492,411.700,90.370,24.630,6.549,easy
1400.000,295.000,57.530,12.400,1625.000,297.600,62.380,12.150,286.400,63.990,15.950,4.503,412.200,90.390,24.730,6.611,easy
1399.000,294.000,57.520,12.450,1623.000,297.200,62.250,12.240,288.700,63.770,15.930,4.504,412.700,90.680,24.740,6.612,easy
1403.000,294.700,58.080,12.500,1626.000,298.200,62.600,12.260,288.300,63.610,15.930,4.513,414.200,90.910,25.020,6.677,easy
1411.000,297.400,58.440,12.580,1630.000,299.500,62.660,12.310,286.200,63.960,16.010,4.537,416.000,91.560,25.070,6.728,easy
1422.000,299.800,58.970,12.790,1636.000,300.600,63.070,12.330,289.200,64.000,16.050,4.573,418.000,92.360,25.310,6.795,easy
1424.000,298.900,58.320,12.530,1624.000,298.000,62.460,12.150,290.100,64.170,16.030,4.538,414.300,91.120,24.670,6.577,easy
1393.000,292.100,56.930,12.300,1612.000,296.000,61.950,12.100,290.900,63.660,15.860,4.484,410.600,89.830,24.500,6.536,easy
1387.000,292.200,57.170,12.290,1622.000,296.300,61.930,12.130,284.900,63.030,15.880,4.474,411.000,90.050,24.480,6.531,easy
1391.000,292.300,57.040,12.330,1614.000,296.200,62.050,12.140,288.700,63.550,15.910,4.506,411.100,90.290,24.510,6.555,easy
1393.000,293.100,57.150,12.430,1620.000,295.700,62.150,12.190,286.100,63.440,15.940,4.507,412.200,90.220,24.610,6.586,easy
1397.000,293.200,57.510,12.470,1620.000,296.900,62.360,12.250,286.600,63.780,15.940,4.515,412.900,90.810,24.810,6.634,easy
1405.000,295.300,58.510,12.580,1625.000,298.700,62.890,12.280,287.400,63.700,16.020,4.537,415.500,91.380,25.060,6.701,easy
1417.000,297.800,58.670,12.740,1635.000,300.600,63.160,12.380,289.300,63.790,16.090,4.568,417.700,92.240,25.250,6.788,easy
1428.000,300.500,59.330,12.830,1640.000,299.300,62.650,12.270,290.000,64.170,16.120,4.589,419.100,92.250,25.130,6.694,easy
1404.000,294.700,57.690,12.380,1621.000,297.100,62.090,12.110,286.400,63.710,15.950,4.508,412.700,90.450,24.490,6.534,easy
1389.000,289.300,57.170,12.330,1619.000,296.000,61.920,12.130,286.400,63.360,15.880,4.495,410.600,90.050,24.500,6.537,easy
1389.000,289.800,57.030,12.370,1623.000,296.400,62.180,12.200,286.400,63.410,15.910,4.501,411.100,90.410,24.600,6.566,easy
1393.000,292.300,57.470,12.390,1620.000,295.300,62.170,12.180,288.700,63.340,15.900,4.496,411.800,90.310,24.580,6.570,easy
1392.000,292.100,57.330,12.390,1627.000,297.700,62.340,12.190,286.900,63.760,15.930,4.506,412.000,90.540,24.670,6.610,easy
1400.000,295.300,57.840,12.520,1621.000,299.100,62.590,12.320,289.800,63.900,15.920,4.525,414.400,90.950,24.920,6.675,easy
1411.000,296.700,58.430,12.680,1628.000,298.600,62.770,12.350,288.000,63.880,15.990,4.540,416.100,91.780,25.140,6.751,easy
1423.000,298.600,59.150,12.780,1639.000,300.000,62.790,12.300,288.800,63.950,16.090,4.579,418.500,91.820,25.130,6.691,easy
1404.000,293.000,57.570,12.380,1623.000,296.800,62.350,12.200,289.300,63.890,15.960,4.514,412.800,90.180,24.530,6.537,easy
1390.000,292.100,57.040,12.360,1621.000,297.300,62.260,12.180,288.800,63.380,15.910,4.491,410.900,89.870,24.520,6.544,easy
1394.000,293.000,57.450,12.400,1623.000,298.000,62.520,12.180,287.700,63.630,15.910,4.515,411.800,90.400,24.680,6.564,easy
1398.000,291.700,57.800,12.430,1629.000,297.600,62.590,12.240,289.200,63.550,15.930,4.524,413.000,90.520,24.620,6.574,easy
1400.000,293.100,57.830,12.530,1631.000,298.500,62.790,12.280,286.600,63.690,15.970,4.514,412.200,90.870,24.820,6.634,easy
1410.000,296.100,58.300,12.640,1636.000,299.800,62.950,12.350,290.100,63.840,16.030,4.550,414.900,91.370,24.980,6.676,easy
1423.000,299.100,58.800,12.760,1648.000,302.300,63.530,12.450,288.500,64.190,16.110,4.568,417.100,92.060,25.290,6.763,easy
1437.000,301.900,59.660,12.840,1645.000,301.000,62.960,12.310,288.900,64.350,16.130,4.571,417.200,91.630,24.980,6.635,easy
1407.000,294.400,57.500,12.440,1634.000,298.600,62.740,12.220,288.900,63.750,15.980,4.517,412.200,90.000,24.430,6.505,easy
1398.000,292.900,57.350,12.340,1635.000,297.500,62.530,12.260,286.600,63.610,15.950,4.494,411.100,89.900,24.510,6.510,easy
1400.000,295.100,57.600,12.430,1631.000,298.900,62.960,12.270,288.400,63.690,15.960,4.513,411.300,90.070,24.560,6.558,easy
1402.000,294.000,58.010,12.450,1635.000,299.700,62.700,12.280,286.900,63.480,15.960,4.522,412.400,90.420,24.620,6.580,easy
1405.000,295.000,58.040,12.540,1634.000,299.300,63.100,12.330,287.000,64.040,16.010,4.551,412.700,90.670,24.860,6.612,easy
1414.000,297.400,58.430,12.640,1644.000,301.200,63.190,12.400,289.100,63.800,16.050,4.546,414.900,91.330,24.940,6.681,easy
1426.000,300.300,59.210,12.860,1643.000,302.200,63.590,12.510,288.100,64.060,16.120,4.562,417.900,91.810,25.220,6.753,easy
1436.000,301.700,59.690,12.860,1645.000,301.500,62.930,12.330,290.100,64.280,16.180,4.583,417.800,91.830,25.010,6.621,easy
1407.000,294.200,57.890,12.410,1626.000,297.800,62.690,12.230,288.500,63.850,15.960,4.516,410.800,89.850,24.440,6.487,easy
1393.000,290.600,57.260,12.250,1628.000,296.900,62.390,12.190,288.300,63.710,15.920,4.513,408.300,89.420,24.340,6.490,easy
1393.000,291.900,57.510,12.370,1622.000,298.100,62.530,12.220,288.100,63.510,15.920,4.508,409.700,89.820,24.410,6.511,easy
1396.000,293.400,57.480,12.380,1624.000,298.100,62.320,12.240,287.000,63.720,15.940,4.528,410.500,89.980,24.540,6.526,easy
1396.000,292.700,57.580,12.410,1626.000,297.800,62.680,12.290,288.300,63.960,15.900,4.521,411.100,89.850,24.670,6.546,easy
1405.000,295.900,57.910,12.610,1632.000,300.200,63.010,12.330,288.100,63.920,15.960,4.528,413.300,90.610,24.880,6.618,easy
1415.000,299.000,58.830,12.700,1642.000,301.400,63.140,12.390,288.800,63.930,16.080,4.573,416.400,91.250,25.000,6.699,easy
1427.000,300.700,59.270,12.840,1648.000,302.200,63.250,12.400,288.900,64.180,16.100,4.591,417.300,91.720,25.240,6.711,easy
1425.000,298.100,58.230,12.540,1632.000,298.200,62.360,12.230,290.900,64.280,16.080,4.548,413.400,90.230,24.440,6.507,easy
1392.000,290.900,56.890,12.330,1622.000,297.900,62.290,12.200,287.200,63.200,15.870,4.496,408.800,89.470,24.320,6.481,easy
1388.000,290.400,57.090,12.330,1622.000,297.100,62.200,12.220,286.800,63.420,15.900,4.509,410.000,89.360,24.350,6.490,easy
1392.000,292.800,57.220,12.410,1619.000,297.500,62.370,12.240,285.800,63.640,15.870,4.518,409.100,89.520,24.340,6.480,easy
1392.000,291.000,57.410,12.410,1621.000,297.600,62.560,12.280,287.500,63.590,15.960,4.518,410.500,89.560,24.410,6.497,easy
1396.000,294.200,57.540,12.520,1629.000,298.800,62.610,12.300,288.800,63.460,15.920,4.538,411.400,90.110,24.670,6.576,easy
1407.000,296.400,58.650,12.710,1640.000,300.800,63.150,12.420,288.600,63.690,16.040,4.549,414.800,90.960,24.830,6.656,easy
1422.000,298.000,58.800,12.790,1645.000,301.500,63.620,12.530,288.800,64.070,16.150,4.578,417.600,91.340,25.170,6.745,easy
1435.000,302.900,59.780,12.930,1650.000,301.400,63.370,12.360,291.800,64.120,16.230,4.593,418.400,91.760,25.020,6.675,easy
1414.000,296.400,57.720,12.430,1632.000,298.700,62.680,12.230,290.000,64.150,16.050,4.537,412.000,90.040,24.510,6.489,easy
1395.000,293.000,57.360,12.420,1631.000,297.800,62.290,12.250,286.300,63.840,15.980,4.511,411.700,89.930,24.370,6.486,easy
1395.000,292.700,57.220,12.440,1634.000,298.900,62.630,12.290,288.800,63.960,15.960,4.522,410.600,90.020,24.490,6.531,easy
1399.000,293.700,57.680,12.390,1626.000,299.200,62.430,12.290,286.300,63.930,15.990,4.550,412.000,90.000,24.490,6.511,easy
1401.000,295.000,58.020,12.480,1629.000,299.200,62.620,12.350,289.900,63.990,15.980,4.550,413.100,90.440,24.660,6.577,easy
1408.000,295.700,58.320,12.630,1639.000,299.600,62.900,12.390,287.700,64.310,16.120,4.587,414.900,90.960,24.810,6.650,easy
1420.000,298.200,59.030,12.790,1646.000,302.300,63.500,12.500,290.500,64.240,16.120,4.607,416.300,91.460,25.100,6.730,easy
1433.000,302.500,59.550,12.940,1652.000,303.300,63.550,12.440,293.400,64.620,16.220,4.615,419.300,91.730,25.150,6.676,easy
1419.000,296.200,57.960,12.470,1636.000,298.600,62.570,12.240,291.200,63.960,16.080,4.558,413.600,90.330,24.540,6.516,easy
1399.000,291.700,57.460,12.410,1631.000,298.600,62.450,12.290,290.200,63.830,16.020,4.536,411.500,90.270,24.530,6.519,easy
1401.000,293.200,57.690,12.480,1635.000,299.600,63.000,12.360,288.900,64.280,16.020,4.543,412.800,90.370,24.570,6.548,easy
1407.000,295.700,57.900,12.460,1631.000,298.800,63.030,12.360,288.400,64.220,16.070,4.558,413.000,90.390,24.740,6.579,easy
1409.000,297.500,57.650,12.490,1638.000,300.700,63.220,12.360,289.500,64.030,16.120,4.576,414.800,90.910,24.780,6.634,easy
1419.000,297.800,58.390,12.630,1644.000,302.500,63.580,12.470,290.300,64.580,16.190,4.591,416.600,91.560,25.050,6.690,easy
1429.000,299.900,59.110,12.790,1653.000,303.400,63.720,12.540,291.600,64.500,16.240,4.612,419.000,92.140,25.320,6.758,easy
1444.000,304.100,59.830,13.030,1663.000,304.300,63.950,12.540,292.700,64.870,16.390,4.632,422.000,92.980,25.360,6.763,easy
1434.000,300.000,58.650,12.520,1646.000,300.600,63.080,12.370,292.700,64.860,16.210,4.580,416.000,90.940,24.680,6.544,easy
1407.000,294.600,57.390,12.430,1635.000,301.300,63.060,12.330,288.500,64.150,16.160,4.552,413.300,90.570,24.580,6.510,easy
1407.000,293.800,57.730,12.460,1643.000,301.200,63.250,12.360,291.900,64.290,16.100,4.575,413.500,90.550,24.670,6.550,easy
1413.000,294.900,58.030,12.500,1645.000,301.800,63.310,12.380,291.000,64.450,16.160,4.570,413.200,90.860,24.670,6.580,easy
1415.000,297.200,57.950,12.560,1644.000,302.100,63.240,12.420,292.100,64.650,16.160,4.600,415.200,91.160,24.840,6.601,easy
1422.000,299.000,58.880,12.660,1653.000,303.000,63.610,12.450,293.400,64.450,16.320,4.610,415.900,91.510,24.950,6.651,easy
1434.000,301.900,59.340,12.850,1660.000,304.000,64.150,12.570,290.400,64.930,16.270,4.623,418.800,92.220,25.270,6.729,easy
1447.000,303.300,59.790,12.940,1673.000,306.600,64.370,12.640,292.100,65.250,16.390,4.662,420.600,93.090,25.480,6.814,easy
1454.000,305.300,59.420,12.840,1660.000,303.800,63.600,12.450,294.000,65.420,16.390,4.631,419.200,91.840,24.860,6.575,easy
1416.000,296.800,57.840,12.460,1650.000,301.600,63.110,12.370,289.700,64.600,16.180,4.566,412.800,90.550,24.620,6.503,easy
1411.000,296.400,57.710,12.400,1643.000,300.800,63.130,12.380,289.700,64.300,16.140,4.571,413.200,90.690,24.630,6.521,easy
1412.000,294.300,58.040,12.420,1647.000,301.200,62.760,12.340,292.300,64.430,16.220,4.579,413.900,90.910,24.670,6.546,easy
1412.000,295.400,57.870,12.490,1642.000,301.700,63.220,12.360,288.800,64.350,16.180,4.589,413.500,90.890,24.690,6.557,easy
1415.000,295.500,58.480,12.550,1646.000,301.400,63.350,12.410,292.500,64.660,16.230,4.597,415.300,91.290,24.840,6.606,easy
1424.000,299.300,58.830,12.670,1653.000,302.900,63.530,12.510,290.700,64.800,16.260,4.613,416.900,91.920,25.110,6.661,easy
1435.000,300.600,59.350,12.870,1655.000,304.700,63.830,12.540,292.500,64.830,16.320,4.639,419.700,92.460,25.320,6.732,easy
1445.000,303.600,59.850,13.020,1662.000,304.800,63.950,12.520,293.700,65.020,16.410,4.675,421.800,93.040,25.410,6.769,easy
1439.000,300.500,58.760,12.640,1645.000,300.900,62.990,12.320,293.000,65.030,16.270,4.607,416.800,91.230,24.720,6.529,easy
1409.000,293.600,57.670,12.440,1636.000,300.200,62.910,12.370,289.200,64.430,16.150,4.572,413.100,90.610,24.620,6.506,easy
1405.000,294.500,57.350,12.470,1637.000,300.200,62.870,12.350,290.300,64.720,16.140,4.593,413.000,90.690,24.520,6.501,easy
1408.000,294.500,57.730,12.520,1638.000,299.800,62.730,12.270,290.900,64.530,16.190,4.579,414.200,90.700,24.660,6.520,easy
1407.000,294.800,57.580,12.510,1637.000,300.500,62.760,12.400,290.800,64.410,16.140,4.597,414.500,90.560,24.740,6.566,easy
1412.000,296.500,58.470,12.630,1641.000,301.600,63.070,12.440,290.500,64.540,16.170,4.601,415.900,91.390,24.850,6.604,easy
1421.000,297.800,58.760,12.730,1641.000,302.300,63.400,12.470,290.800,64.750,16.290,4.636,417.900,92.030,25.080,6.697,easy
1432.000,301.500,59.380,12.850,1644.000,303.600,63.650,12.550,292.400,64.620,16.350,4.653,420.500,92.720,25.360,6.770,easy
1443.000,303.100,59.870,13.030,1650.000,303.800,63.660,12.490,292.600,65.090,16.410,4.664,421.600,92.860,25.400,6.734,easy
1431.000,298.900,58.550,12.640,1633.000,301.200,62.950,12.360,292.900,64.660,16.270,4.625,415.900,91.100,24.640,6.541,easy
1406.000,294.200,57.840,12.500,1639.000,299.100,62.890,12.350,290.100,64.420,16.200,4.570,414.600,90.730,24.590,6.512,easy
1408.000,294.900,57.960,12.540,1639.000,300.600,62.880,12.360,290.000,64.320,16.140,4.595,414.900,91.140,24.760,6.551,easy
1413.000,295.800,58.020,12.550,1633.000,301.100,62.940,12.370,290.700,64.430,16.220,4.591,415.300,91.170,24.790,6.564,easy
1412.000,297.100,58.400,12.600,1637.000,300.700,63.180,12.420,291.700,64.600,16.210,4.608,414.900,91.400,24.890,6.598,easy
1420.000,298.000,59.090,12.720,1639.000,302.100,63.420,12.500,290.600,64.680,16.300,4.620,417.200,91.850,25.000,6.654,easy
1431.000,300.300,59.230,12.930,1650.000,303.800,63.660,12.570,293.200,64.850,16.340,4.651,420.300,92.350,25.340,6.721,easy
1444.000,303.000,60.130,13.010,1661.000,306.000,63.990,12.590,294.200,65.050,16.420,4.661,422.200,93.000,25.490,6.791,easy
1448.000,303.400,59.550,12.730,1646.000,302.900,63.140,12.390,296.100,65.060,16.360,4.631,418.000,91.640,24.850,6.573,easy
1412.000,296.500,58.480,12.450,1636.000,300.800,62.970,12.360,292.200,64.590,16.190,4.596,414.800,90.850,24.600,6.538,easy
1410.000,293.800,58.120,12.480,1639.000,300.900,63.190,12.380,289.400,64.460,16.210,4.592,413.700,90.950,24.670,6.559,easy
1415.000,297.100,58.470,12.600,1637.000,301.500,63.240,12.340,291.500,64.610,16.230,4.602,414.800,91.190,24.760,6.563,easy
1414.000,296.700,58.710,12.590,1638.000,301.200,62.960,12.390,289.000,64.530,16.210,4.605,415.100,91.310,24.820,6.596,easy
1418.000,297.700,58.470,12.740,1639.000,301.900,63.120,12.470,291.500,64.590,16.290,4.620,417.700,91.610,24.990,6.645,easy
1428.000,301.400,59.310,12.870,1648.000,303.400,63.890,12.500,292.500,64.950,16.310,4.640,419.200,92.180,25.220,6.729,easy
1442.000,303.200,59.820,13.010,1658.000,305.600,63.930,12.560,293.400,65.170,16.420,4.664,421.300,92.700,25.420,6.787,easy
1449.000,303.300,59.630,12.850,1649.000,302.600,63.230,12.380,292.900,64.980,16.330,4.649,419.200,91.620,24.880,6.577,easy
1413.000,296.000,57.820,12.500,1641.000,299.800,62.770,12.350,290.500,64.600,16.140,4.577,415.300,90.520,24.600,6.493,easy
1408.000,295.300,57.740,12.480,1631.000,300.600,63.120,12.330,292.800,64.070,16.110,4.579,413.900,90.480,24.570,6.519,easy
1410.000,297.600,58.420,12.570,1637.000,300.700,62.890,12.350,291.000,64.420,16.170,4.595,414.900,90.880,24.730,6.557,easy
1410.000,296.100,58.160,12.540,1635.000,300.500,62.890,12.370,288.200,64.640,16.210,4.607,415.800,90.910,24.730,6.567,easy
1415.000,297.100,58.280,12.690,1636.000,302.500,63.210,12.420,290.200,64.360,16.220,4.623,417.000,91.420,24.850,6.614,easy
1424.000,299.100,59.090,12.820,1638.000,302.600,63.460,12.460,291.800,64.830,16.360,4.633,418.700,91.960,25.120,6.667,easy
1435.000,301.700,59.660,12.940,1648.000,303.800,63.980,12.540,292.200,64.690,16.350,4.659,421.900,92.690,25.350,6.754,easy
1445.000,301.400,59.450,12.850,1643.000,301.600,63.040,12.350,291.600,64.810,16.380,4.649,419.600,91.660,24.890,6.582,easy
1410.000,296.000,58.080,12.500,1630.000,298.900,63.090,12.270,292.800,64.560,16.190,4.597,414.300,90.500,24.330,6.486,easy
1405.000,294.800,57.740,12.500,1632.000,298.900,62.800,12.340,289.900,64.480,16.110,4.580,413.200,90.210,24.510,6.489,easy
1406.000,294.600,58.250,12.530,1632.000,299.400,62.840,12.320,293.300,64.210,16.180,4.597,414.300,90.530,24.590,6.546,easy
