CH1,CH2,CH3,CH4,CH5,CH6,CH7,CH8,CH9,CH10,CH11,CH12,CH13,CH14,CH15,CH16,CH17,CH18,CH19,CH20,CH21,CH22,CH23,CH24,CH25,CH26,CH27,CH28,CH29,CH30,CH31,CH32,CH33,CH34,CH35,CH36,CH37,CH38,CH39,CH40,CH41,CH42,CH43,CH44,CH45,CH46,CH47,CH48,CH49,CH50,CH51,CH52,Mark
0.07022638,0.04885867,-0.01697466,-0.03797929,-0.03340386,-0.01837501,-0.03558288,0.01569224,-0.00253437,-0.05981679,-0.01357192,-0.03244522,0.00177238,0.00247983,-0.00676929,-0.00904998,0.00046168,-0.03541881,-0.02333306,-0.05595566,-0.04423318,-0.04921066,-0.04709001,-0.00228996,0.03057048,0.00778675,0.03189754,-0.01329305,-0.03083602,-0.08402552,-0.06597989,-0.08168234,-0.06906921,0.02532802,0.07863186,0.0104423,-0.01915439,0.04627414,0.06832097,-0.09224044,-0.12743938,-0.06571475,0.00392567,0.00092072,0.12734069,0.01131942,-0.02630804,0.00826251,0.08382856,0.01358528,-0.10556117,-0.06085756,JUNK
0.07121201,0.04950749,-0.01670187,-0.0385709,-0.03325921,-0.01592523,-0.0344572,0.01788332,0.00064817,-0.05714128,-0.01148556,-0.03169557,0.0027633,0.00405258,-0.00613637,-0.00764477,0.00314568,-0.03483505,-0.02132592,-0.054346,-0.04245503,-0.04730754,-0.04545963,-0.00064606,0.0335479,0.00989636,0.03285387,-0.01101639,-0.02924609,-0.08260863,-0.06478992,-0.07937378,-0.06774335,0.02708762,0.08113456,0.01315368,-0.0176099,0.04802635,0.07315265,-0.09018868,-0.12755357,-0.06412517,0.00547773,0.00233433,0.1315763,0.01461505,-0.02456859,0.00958496,0.08725134,0.01633331,-0.10554138,-0.05914578,JUNK
0.07209023,0.05006762,-0.01648494,-0.03921671,-0.03318422,-0.01376459,-0.03356353,0.01984313,0.00369741,-0.05467578,-0.00952401,-0.03102545,0.00362832,0.00544804,-0.00567758,-0.00639385,0.00547269,-0.03446532,-0.01932441,-0.05285044,-0.04082267,-0.04537022,-0.04384179,0.00077574,0.03610095,0.01166898,0.03355288,-0.00910262,-0.02776882,-0.08111717,-0.06365789,-0.07686964,-0.06623922,0.02863014,0.08327822,0.01513704,-0.01673751,0.04936311,0.07749248,-0.0880967,-0.12762012,-0.06260784,0.00704797,0.00367058,0.13525903,0.01737779,-0.02357615,0.01044896,0.09041005,0.01886707,-0.10551436,-0.05747648,JUNK
0.07289047,0.05056485,-0.01632379,-0.03991129,-0.03317593,-0.01188286,-0.03288195,0.02157295,0.00661665,-0.05241489,-0.0076838,-0.03043417,0.00437237,0.00667431,-0.00537823,-0.00529555,0.00745639,-0.03429312,-0.01732964,-0.05144829,-0.03932869,-0.04340656,-0.04224975,0.00199153,0.03826082,0.01313432,0.0340242,-0.00752657,-0.02639494,-0.07955062,-0.06256695,-0.07420865,-0.06456404,0.02998258,0.0851028,0.01647166,-0.01644228,0.05033355,0.0813647,-0.08597948,-0.12763396,-0.0611679,0.00863006,0.0049425,0.1384684,0.01965996,-0.02321129,0.01093305,0.09330428,0.02119522,-0.10547768,-0.05586599,JUNK
0.07364031,0.05102159,-0.01621633,-0.04064733,-0.03322747,-0.01026232,-0.03239113,0.0230826,0.0094071,-0.05034664,-0.00595738,-0.02991815,0.0050047,0.0077456,-0.00521744,-0.00434276,0.00912075,-0.03429668,-0.01534635,-0.0501217,-0.03796239,-0.0414263,-0.04069493,0.00302548,0.04007213,0.01433022,0.03430214,-0.00625185,-0.02511402,-0.07791442,-0.06150373,-0.07143484,-0.06273513,0.03117518,0.08665562,0.01725001,-0.01662166,0.05099478,0.0848071,-0.08385368,-0.12759657,-0.05980832,0.01021403,0.00615939,0.14128922,0.02152468,-0.02335064,0.01112012,0.09594365,0.02333103,-0.10543237,-0.054327,JUNK
0.07436367,0.05145624,-0.016159,-0.0414155,-0.03332837,-0.00887924,-0.0320621,0.02438722,0.01206832,-0.0484545,-0.00433419,-0.02947167,0.00553752,0.0086804,-0.00517031,-0.00352313,0.01049859,-0.03445124,-0.01338248,-0.04885614,-0.03671079,-0.0394407,-0.03918744,0.0039064,0.04158867,0.01529915,0.03442356,-0.00523478,-0.02391553,-0.07622073,-0.06045832,-0.06859681,-0.06077646,0.03223816,0.08798786,0.01756971,-0.01717187,0.05140814,0.08786597,-0.08173636,-0.12751292,-0.05852996,0.01178678,0.00732617,0.14380547,0.02303983,-0.02387552,0.01109183,0.09834591,0.02528982,-0.1053834,-0.05286918,JUNK
0.0750806,0.05188291,-0.01614709,-0.04220574,-0.03346511,-0.00770441,-0.0318711,0.02550883,0.01460011,-0.04671798,-0.00280133,-0.02908645,0.00598491,0.00950046,-0.00520897,-0.00282029,0.01162887,-0.03473051,-0.01144735,-0.04763979,-0.03555898,-0.03746115,-0.03773482,0.00466619,0.04286991,0.01608541,0.0344253,-0.00442782,-0.02278867,-0.07448474,-0.05942383,-0.06574111,-0.05871872,0.03320121,0.0891517,0.01752668,-0.01799436,0.05163565,0.09059533,-0.07964414,-0.12739079,-0.05733144,0.01333378,0.00844457,0.14609665,0.02427317,-0.02467856,0.01092397,0.1005356,0.02708976,-0.10533714,-0.05149788,JUNK
0.07580637,0.05231068,-0.01617527,-0.04300736,-0.03362178,-0.00670536,-0.0317916,0.02647251,0.01700274,-0.04511328,-0.00134429,-0.02875277,0.00636261,0.01022934,-0.00530376,-0.00221433,0.01255507,-0.03510819,-0.00955057,-0.04646232,-0.03449017,-0.03549729,-0.03634177,0.00533867,0.0439781,0.01673253,0.03434194,-0.00378213,-0.02172228,-0.07272287,-0.05839488,-0.06290989,-0.05659374,0.03409317,0.09019846,0.01720912,-0.01900098,0.05173708,0.09305547,-0.07759,-0.12723774,-0.05620941,0.01484057,0.00951487,0.14823577,0.02528834,-0.02566944,0.01068303,0.10254351,0.02875278,-0.10529878,-0.05021369,JUNK
0.076551,0.05274404,-0.01624069,-0.04381241,-0.03378449,-0.00585185,-0.03180262,0.02730443,0.01927517,-0.04362039,0.00004885,-0.0284623,0.00668302,0.01088678,-0.00542944,-0.00168743,0.01331765,-0.03556196,-0.00770362,-0.04531956,-0.03349099,-0.03356148,-0.03501382,0.00595131,0.04496793,0.01727695,0.03420239,-0.00325558,-0.02070913,-0.07095502,-0.05737124,-0.06014397,-0.0544374,0.03493417,0.09116945,0.01668863,-0.0201205,0.05176271,0.09529752,-0.07558755,-0.12706456,-0.05516087,0.01629083,0.01053152,0.15027808,0.02613576,-0.02678023,0.01041961,0.10439682,0.03029551,-0.10527691,-0.0490168,JUNK
0.07731964,0.05318321,-0.01634123,-0.04461396,-0.03393989,-0.00511506,-0.03188835,0.02803061,0.02141807,-0.04222031,0.00138898,-0.02820678,0.006957,0.01149061,-0.00556287,-0.00122219,0.01395506,-0.03607222,-0.00591651,-0.04420932,-0.0325487,-0.0316642,-0.03375414,0.00652779,0.04588832,0.01774916,0.03403014,-0.00281152,-0.01974301,-0.06919848,-0.05635367,-0.05747436,-0.05228325,0.03573963,0.0920988,0.01602048,-0.02129869,0.05175447,0.0973695,-0.07364625,-0.12688033,-0.05418112,0.01767013,0.01148783,0.15226533,0.02685456,-0.02796467,0.01016965,0.10612255,0.03173421,-0.10527823,-0.04790371,JUNK
0.07811317,0.0536249,-0.01647538,-0.04540633,-0.03407581,-0.00446786,-0.03203234,0.02867729,0.0234345,-0.04089459,0.00268644,-0.02797808,0.00719386,0.01205656,-0.00568411,-0.00080187,0.01450304,-0.03662248,-0.00419701,-0.04313012,-0.03165113,-0.02981245,-0.03256352,0.00708797,0.04678135,0.01817299,0.03384282,-0.00241947,-0.0188181,-0.06746788,-0.05534344,-0.0549222,-0.05016008,0.03652104,0.09301345,0.0152427,-0.02249889,0.05174559,0.09931562,-0.07177052,-0.12669006,-0.05326412,0.01896726,0.01237779,0.15422651,0.02747193,-0.02919793,0.00995465,0.10774679,0.03308552,-0.10530593,-0.04686697,JUNK
0.0789279,0.05406323,-0.01664424,-0.04618724,-0.03418406,-0.00388872,-0.03222722,0.0292676,0.02532823,-0.03963059,0.00394784,-0.02777034,0.00739847,0.01259459,-0.00578039,-0.00041413,0.01498946,-0.0372013,-0.00255185,-0.04208411,-0.03078986,-0.02801347,-0.03144271,0.00764274,0.04767599,0.01856278,0.033651,-0.00205964,-0.0179316,-0.06577624,-0.05434397,-0.05250069,-0.04809305,0.03728148,0.09392772,0.01437396,-0.02370282,0.0517567,0.10116615,-0.06996254,-0.12649864,-0.05240373,0.02017314,0.01319378,0.15617286,0.02799969,-0.03047518,0.00978031,0.10928778,0.03436032,-0.10536287,-0.04589879,JUNK
0.0797576,0.05449054,-0.01685033,-0.04695624,-0.03425956,-0.00336054,-0.03246626,0.02982158,0.02710555,-0.03841849,0.0051782,-0.02757823,0.007573,0.01311117,-0.0058438,-0.00004942,0.01543614,-0.03780055,-0.00098481,-0.04107381,-0.02995811,-0.02627136,-0.03039036,0.00819714,0.04859135,0.01892585,0.03345995,-0.00171993,-0.01708151,-0.0641315,-0.05335822,-0.05021303,-0.04610046,0.03801946,0.09484733,0.01341817,-0.0249073,0.05179903,0.1029424,-0.06822018,-0.12630722,-0.05159265,0.02128306,0.01392989,0.15810342,0.02843868,-0.03180672,0.00964021,0.11075888,0.03556724,-0.10544883,-0.04498921,JUNK
0.08059429,0.0548987,-0.01709623,-0.04771463,-0.0343001,-0.00287022,-0.03274555,0.03035532,0.0287751,-0.0372512,0.00638134,-0.02739735,0.00771756,0.01360978,-0.0058716,0.00029889,0.0158588,-0.03841475,0.00050345,-0.04010133,-0.02915039,-0.02458667,-0.02940328,0.00875111,0.04953727,0.01926375,0.0332706,-0.00139561,-0.01626603,-0.06253662,-0.05238799,-0.04805214,-0.04419257,0.03873035,0.09577066,0.0123683,-0.02612042,0.05187547,0.10465752,-0.06653666,-0.12611291,-0.05082228,0.02229725,0.0145829,0.16000795,0.02878158,-0.03321276,0.00951884,0.11216871,0.03671318,-0.10556024,-0.04412653,JUNK
0.08142902,0.05527984,-0.01738367,-0.04846381,-0.03430571,-0.00240746,-0.03306381,0.0308826,0.03034904,-0.03612205,0.00756114,-0.02722268,0.00783199,0.01409291,-0.00586412,0.00063625,0.0162692,-0.03903925,0.00191617,-0.03916673,-0.02836136,-0.02295501,-0.0284745,0.00930271,0.05051766,0.01957507,0.0330818,-0.00108562,-0.015482,-0.06098809,-0.05143251,-0.04600087,-0.04237032,0.03940975,0.09669251,0.01121209,-0.02735685,0.05198391,0.10632051,-0.0649002,-0.12590775,-0.05008256,0.0232216,0.01515469,0.16187233,0.02901759,-0.03471749,0.00939616,0.11352351,0.0378058,-0.10568864,-0.04329622,JUNK
0.08225287,0.05562703,-0.01771471,-0.04920684,-0.03428029,-0.00196705,-0.0334174,0.03141157,0.03184,-0.03502873,0.00872003,-0.02705062,0.00791401,0.01455991,-0.00582696,0.0009644,0.01667233,-0.03967108,0.00325838,-0.03827043,-0.02758786,-0.02137079,-0.02759726,0.00984507,0.05152786,0.01985482,0.03289062,-0.00079454,-0.01472709,-0.05947962,-0.05049074,-0.04403814,-0.04062875,0.04005044,0.0976015,0.00993396,-0.0286354,0.05211638,0.10792985,-0.06329714,-0.12568253,-0.04936287,0.02406554,0.01564907,0.16367619,0.02913211,-0.03634502,0.00924868,0.11482307,0.03884906,-0.1058248,-0.04248461,JUNK
0.08305757,0.05593521,-0.01808993,-0.0499464,-0.03422944,-0.00154647,-0.03380465,0.03194835,0.03326292,-0.03396954,0.00986128,-0.02687721,0.00796207,0.01501022,-0.00576769,0.0012841,0.01706979,-0.04030642,0.00453815,-0.03741054,-0.02682694,-0.01982504,-0.02676209,0.01037097,0.05256015,0.02009829,0.03269528,-0.00052769,-0.01399743,-0.05800016,-0.04955913,-0.04213732,-0.03895458,0.04064678,0.09848568,0.00852234,-0.02997294,0.05226372,0.10948062,-0.06171118,-0.12542562,-0.04865135,0.0248431,0.01607424,0.16539992,0.02911347,-0.03811301,0.00905512,0.11606523,0.03984696,-0.10595693,-0.04167702,JUNK
0.08383643,0.05620174,-0.01850719,-0.05068415,-0.03415969,-0.00114457,-0.0342204,0.03249738,0.03463426,-0.03294243,0.01098976,-0.0266972,0.00797644,0.01544457,-0.00569442,0.001596,0.01746175,-0.04093969,0.0057662,-0.03658266,-0.02607507,-0.01830527,-0.02595731,0.01087456,0.05360623,0.02030306,0.03249655,-0.00028906,-0.01328707,-0.05653463,-0.04863181,-0.04026806,-0.03732926,0.04119647,0.0993349,0.00697361,-0.03138046,0.05241796,0.11096746,-0.0601238,-0.12512319,-0.0479349,0.02557241,0.01644298,0.16702825,0.0289559,-0.04002866,0.00879956,0.11724809,0.0408048,-0.10607106,-0.04085786,JUNK
0.08458374,0.05642588,-0.01896299,-0.05142146,-0.03407913,-0.00076245,-0.03465763,0.03306006,0.03597016,-0.03194596,0.01211087,-0.02650573,0.00795817,0.01586415,-0.00561644,0.00189982,0.01784623,-0.04156413,0.00695418,-0.03578096,-0.02532911,-0.01679799,-0.02517089,0.01135083,0.054657,0.0204689,0.0322978,-0.00008167,-0.01258946,-0.05506667,-0.04770145,-0.03840001,-0.03573014,0.04169946,0.10014017,0.00529331,-0.03286147,0.05257236,0.11238317,-0.05851704,-0.12476141,-0.04720043,0.02627332,0.01677075,0.16854946,0.02865967,-0.04208718,0.0084722,0.11836861,0.04172792,-0.1061528,-0.04001285,JUNK
0.08529644,0.05660931,-0.01945252,-0.05215914,-0.03399698,-0.00040288,-0.0351111,0.03363571,0.03728602,-0.03098007,0.01323013,-0.02629824,0.00790928,0.01627052,-0.00554375,0.0021947,0.01821965,-0.042172,0.00811402,-0.03499883,-0.02458654,-0.01529022,-0.02439135,0.01179526,0.05570324,0.02059825,0.03210569,0.00009319,-0.01189793,-0.05358031,-0.04675999,-0.03650678,-0.03413304,0.04215711,0.10089407,0.00349784,-0.0344107,0.0527225,0.11371816,-0.05687439,-0.12432864,-0.04643517,0.02696594,0.0170742,0.16995573,0.02823211,-0.04427055,0.00807048,0.11942302,0.0426202,-0.1061896,-0.03912942,JUNK
0.08597339,0.0567557,-0.0199694,-0.05289716,-0.03392248,-0.00006939,-0.03556963,0.03422191,0.03859612,-0.03004431,0.01435375,-0.02607034,0.0078332,0.01666639,-0.0054851,0.00247984,0.01857855,-0.04275443,0.0092578,-0.03422843,-0.0238448,-0.01376933,-0.02360749,0.01220557,0.05673765,0.02069699,0.03193022,0.00023717,-0.01120532,-0.05205974,-0.04579839,-0.0345646,-0.03251358,0.04257366,0.10159259,0.00161525,-0.03601296,0.05286738,0.11496434,-0.05518158,-0.12381556,-0.04562707,0.02767003,0.0173713,0.17124523,0.02768876,-0.04654741,0.00760009,0.12040884,0.04348584,-0.10617037,-0.03819707,PASSTHOUGHT
0.08661515,0.05687035,-0.0205061,-0.05363504,-0.03386454,0.00023384,-0.03602519,0.03481473,0.039913,-0.02913856,0.01548783,-0.02581805,0.00773438,0.0170552,-0.00544785,0.00275477,0.01891934,-0.04330225,0.0103969,-0.03346119,-0.02310157,-0.01222418,-0.02280942,0.01258123,0.05775496,0.02077399,0.03178408,0.00035442,-0.0105047,-0.05049156,-0.04480752,-0.03255548,-0.03084823,0.0429553,0.10223475,-0.00031579,-0.03764375,0.05300935,0.11611529,-0.05342719,-0.12321537,-0.04476492,0.02840359,0.01767996,0.1724214,0.02705267,-0.04887465,0.00707443,0.12132504,0.04432884,-0.1060863,-0.03720783,PASSTHOUGHT
0.08722352,0.05695933,-0.02105464,-0.05437193,-0.0338316,0.00050236,-0.0364686,0.03540921,0.04124695,-0.0282628,0.01663809,-0.02553867,0.00761804,0.01744059,-0.00543826,0.00301882,0.01923875,-0.04380678,0.01154141,-0.03268796,-0.02235514,-0.0106455,-0.02198915,0.01292355,0.05875187,0.02084021,0.03168133,0.00045089,-0.00978957,-0.04886401,-0.04377837,-0.03046651,-0.02911671,0.0433101,0.10282221,-0.00224869,-0.03927169,0.0531533,0.11716751,-0.05160293,-0.12252468,-0.04383964,0.02918175,0.01801748,0.17349243,0.0263527,-0.05120028,0.00651304,0.12217278,0.04515378,-0.10593055,-0.03615591,PASSTHOUGHT
0.08780153,0.0570292,-0.02160822,-0.05510782,-0.03383231,0.00072949,-0.03689214,0.03599905,0.04260452,-0.02741976,0.01780784,-0.02523138,0.00748806,0.01782446,-0.00546241,0.00326984,0.01953229,-0.04426153,0.01269895,-0.03190126,-0.02160581,-0.00902864,-0.0211422,0.01323259,0.05972423,0.0209065,0.031636,0.00053225,-0.0090558,-0.04716922,-0.04270369,-0.0282934,-0.02730361,0.04364424,0.10335641,-0.00413277,-0.04086119,0.05330456,0.11811554,-0.04970538,-0.12174501,-0.04284459,0.03001483,0.01839767,0.17446689,0.02562025,-0.0534671,0.00593898,0.12295234,0.04596206,-0.10570119,-0.03503969,PASSTHOUGHT
0.08835271,0.05708636,-0.02216085,-0.05584282,-0.03387417,0.00090888,-0.03729319,0.03657809,0.04398985,-0.02661221,0.0189989,-0.02489682,0.00734789,0.0182077,-0.00552468,0.00350547,0.01979574,-0.04466221,0.01387565,-0.03109389,-0.02085432,-0.00737192,-0.02026678,0.01350884,0.06066891,0.02098351,0.03166103,0.00060451,-0.0083005,-0.04540244,-0.04157725,-0.02603748,-0.02539812,0.04396359,0.10384005,-0.00591559,-0.04237452,0.0534693,0.11895671,-0.04773442,-0.12088103,-0.04177519,0.0309093,0.01883178,0.17535543,0.02488867,-0.05561629,0.00537781,0.1236658,0.04675458,-0.1053992,-0.0338602,PASSTHOUGHT
0.08888052,0.05713639,-0.02270842,-0.0565782,-0.03396407,0.00103352,-0.03766815,0.03713861,0.04540402,-0.02584378,0.02021066,-0.02453797,0.00719943,0.01858913,-0.0056289,0.00372231,0.02002442,-0.04500783,0.0150752,-0.03025993,-0.02010258,-0.00567699,-0.01936386,0.01375207,0.06158232,0.02107985,0.03176634,0.00067227,-0.00752276,-0.04356216,-0.04039434,-0.02370525,-0.02339439,0.04427249,0.10427538,-0.00754768,-0.04377567,0.0536527,0.11969021,-0.04569353,-0.1199405,-0.04062959,0.03186665,0.01932775,0.17616864,0.02418989,-0.05759208,0.00485472,0.12431619,0.04753154,-0.10502823,-0.03262105,PASSTHOUGHT
0.09087802,0.05837525,-0.02352357,-0.05814431,-0.03442151,0.00231992,-0.0377322,0.03888211,0.04956115,-0.02389727,0.02248258,-0.024106,0.00726524,0.01952104,-0.00567495,0.00443533,0.02156278,-0.04543824,0.01810874,-0.02793478,-0.01833461,-0.00295512,-0.01800595,0.01432934,0.06389941,0.02228026,0.03267157,0.00144246,-0.0058231,-0.04052871,-0.03785245,-0.020422,-0.0202895,0.04556701,0.10634429,-0.00791618,-0.04366548,0.05509099,0.12289158,-0.0425427,-0.11880232,-0.03890426,0.03385108,0.0208296,0.18057245,0.02495485,-0.05783777,0.00570519,0.12659176,0.04984791,-0.1045802,-0.03097629,PASSTHOUGHT
0.09283099,0.05956266,-0.02433838,-0.05972077,-0.03491179,0.0035706,-0.03772556,0.04061839,0.05374467,-0.02190964,0.02486782,-0.02359966,0.00733641,0.02049753,-0.00574263,0.00514031,0.02308248,-0.04577389,0.02116987,-0.02552464,-0.01651905,-0.00008077,-0.01653011,0.01496464,0.06628983,0.02355721,0.03367409,0.00230872,-0.00402699,-0.03729166,-0.03520087,-0.01688609,-0.0169579,0.04692325,0.10840461,-0.00797709,-0.0433838,0.05659637,0.12608767,-0.03918223,-0.1175449,-0.03696364,0.03594743,0.02247309,0.18495557,0.02590636,-0.0577685,0.00666056,0.12885283,0.05221788,-0.10403064,-0.02913896,PASSTHOUGHT
0.0947253,0.06068485,-0.02514545,-0.06129999,-0.03543118,0.00477289,-0.03765488,0.04233689,0.0579269,-0.01988672,0.0273608,-0.02301932,0.00741667,0.02151835,-0.00582977,0.00583726,0.02457825,-0.04601542,0.02424517,-0.0230432,-0.01466093,0.00293656,-0.01493576,0.0156611,0.06875081,0.02491166,0.03477547,0.00327921,-0.00214126,-0.03386452,-0.03245083,-0.01311582,-0.01340946,0.04833192,0.11044898,-0.00769668,-0.04292135,0.0581652,0.1292697,-0.03562067,-0.11618503,-0.03480826,0.03814191,0.02424514,0.18929066,0.02706593,-0.05737112,0.00772829,0.13110594,0.05462916,-0.10339369,-0.02710881,PASSTHOUGHT
0.09654537,0.0617263,-0.02594223,-0.06287792,-0.03597755,0.00590896,-0.03753725,0.0440224,0.06207761,-0.01784072,0.02994823,-0.0223711,0.0075042,0.02257557,-0.00593811,0.00652152,0.02603823,-0.04617361,0.02731988,-0.02050908,-0.01277013,0.00608114,-0.01322897,0.01641273,0.07126811,0.02633255,0.03596647,0.00434981,-0.00017897,-0.03026637,-0.02961736,-0.00913405,-0.00966103,0.04977478,0.11246096,-0.0070703,-0.0422904,0.05978209,0.1324216,-0.03187178,-0.11474125,-0.03244646,0.04041481,0.02612529,0.19353805,0.02843411,-0.05666226,0.00890031,0.13335341,0.05706433,-0.10268577,-0.02489108,PASSTHOUGHT
0.0982745,0.06267107,-0.02673157,-0.06445469,-0.0365517,0.00695505,-0.03739987,0.04565753,0.06616451,-0.01579268,0.03260886,-0.02166756,0.00759035,0.02365208,-0.00607535,0.00718254,0.02744236,-0.04626968,0.03037812,-0.01794628,-0.01086229,0.00932971,-0.01142301,0.0172014,0.07381327,0.02779537,0.0372269,0.00550202,0.00184015,-0.02651994,-0.02671973,-0.00497029,-0.00573643,0.05122247,0.11441324,-0.00612495,-0.04152671,0.06141871,0.1355149,-0.02795503,-0.11323506,-0.02989444,0.04274135,0.02808482,0.19764435,0.02998802,-0.05568931,0.01015193,0.13558985,0.05949815,-0.10192703,-0.02249807,PASSTHOUGHT
0.09989522,0.06350335,-0.02752073,-0.06603349,-0.03715614,0.00788395,-0.03727714,0.04722197,0.07015672,-0.01376894,0.03531545,-0.02092537,0.00766122,0.024724,-0.00625282,0.00780575,0.0287651,-0.04633316,0.03340511,-0.01538057,-0.00895651,0.01265566,-0.00953529,0.01799994,0.07634717,0.02926432,0.03852651,0.00670512,0.00389258,-0.02264818,-0.02377807,-0.00065375,-0.00166134,0.05263861,0.11627058,-0.00491807,-0.04068707,0.06303649,0.13851561,-0.02389182,-0.11168592,-0.02717384,0.04509466,0.03009116,0.20154707,0.03168301,-0.05452724,0.01144375,0.1378049,0.06190192,-0.10113715,-0.01994516,PASSTHOUGHT
0.10139105,0.06420883,-0.02831995,-0.06761992,-0.03779428,0.0086672,-0.03720939,0.04869299,0.07402736,-0.0117983,0.03803656,-0.02016474,0.00769894,0.02576249,-0.00648509,0.008374,0.02997712,-0.04639988,0.03638842,-0.01283718,-0.00707374,0.01603136,-0.00758596,0.01877431,0.07882272,0.03069429,0.03982691,0.00791891,0.00595306,-0.01867314,-0.02081153,0.00378852,0.00253874,0.05398294,0.11799292,-0.00353465,-0.03984607,0.06458937,0.14138669,-0.01970337,-0.11010897,-0.02431073,0.04744776,0.03211071,0.20517983,0.03345541,-0.05327577,0.01272433,0.13998412,0.06424638,-0.10033284,-0.01725009,PASSTHOUGHT
0.10274658,0.06477543,-0.02914388,-0.06922279,-0.03847195,0.00927408,-0.03723855,0.05004622,0.07775251,-0.00991329,0.0407364,-0.01940933,0.0076811,0.02673332,-0.00679045,0.00886596,0.03104424,-0.04651097,0.03931732,-0.01034105,-0.00523685,0.01942766,-0.00559887,0.01948311,0.08118456,0.03203139,0.04108196,0.00909365,0.00799437,-0.01461496,-0.01783849,0.0083318,0.00683849,0.05521207,0.11953498,-0.00208454,-0.03909267,0.06602376,0.1440873,-0.01541169,-0.10851453,-0.02133585,0.04977415,0.03411029,0.20847277,0.03522308,-0.05205345,0.01393135,0.14210664,0.06650139,-0.09952768,-0.01443226,PASSTHOUGHT
0.10395022,0.06519474,-0.03000997,-0.07085329,-0.03919771,0.00967305,-0.03740885,0.05125603,0.08131247,-0.00814875,0.04337649,-0.01868478,0.00758155,0.02759831,-0.00719038,0.00925677,0.03192862,-0.04671066,0.04218308,-0.00791626,-0.00347035,0.02281374,-0.00360153,0.02007827,0.08337101,0.03321551,0.04224093,0.01017244,0.00998798,-0.01049297,-0.01487638,0.01295171,0.01121202,0.05627984,0.12084743,-0.00069637,-0.03852542,0.06728167,0.1465714,-0.01103925,-0.10691033,-0.01828155,0.05204882,0.03605709,0.21135508,0.0368893,-0.05099092,0.01499547,0.14414373,0.06863465,-0.09873419,-0.01151407,PASSTHOUGHT
0.10499344,0.06546279,-0.03093559,-0.07252213,-0.03997983,0.00983671,-0.03776127,0.05229874,0.08469447,-0.0065364,0.0459198,-0.01801602,0.00737474,0.02832076,-0.00770627,0.00952257,0.03259439,-0.04704144,0.04498065,-0.00558147,-0.0017963,0.02616263,-0.00162071,0.02051202,0.08532259,0.03418658,0.04325284,0.01109827,0.0119085,-0.00632161,-0.01193772,0.01762897,0.01563779,0.05714506,0.12188459,0.00049288,-0.03824356,0.06830747,0.14879824,-0.00660575,-0.10529605,-0.01518003,0.05425114,0.0379242,0.21376446,0.03835144,-0.05022109,0.01584712,0.14606448,0.07061869,-0.09795883,-0.00851566,PASSTHOUGHT
0.10587332,0.06558086,-0.03193723,-0.07423958,-0.04082663,0.00974233,-0.03832907,0.05315222,0.0878929,-0.0051036,0.04833226,-0.01742618,0.0070365,0.02886689,-0.00835747,0.0096406,0.03300884,-0.04754153,0.04770792,-0.00334983,-0.00023439,0.02945065,0.00031791,0.02073877,0.08698453,0.03488765,0.04406945,0.01181721,0.01373409,-0.0021111,-0.00903072,0.02234899,0.02009777,0.05777326,0.12260597,0.00134598,-0.0383404,0.06905071,0.15073335,-0.00212857,-0.10366613,-0.01206169,0.05636527,0.03969165,0.21564984,0.03950612,-0.04987137,0.01642066,0.14783533,0.07243145,-0.09720319,-0.00545556,PASSTHOUGHT
0.10659009,0.06555501,-0.0330281,-0.07601315,-0.04174466,0.00937405,-0.03913684,0.05380014,0.09090836,-0.00387062,0.05058572,-0.01693418,0.00654675,0.02920961,-0.00915938,0.00959191,0.03314587,-0.04824125,0.05036576,-0.00122708,0.00120091,0.03265964,0.00219177,0.02071992,0.08831236,0.03526992,0.04464939,0.01228357,0.01544851,0.00213327,-0.00615786,0.02710114,0.02457898,0.05814083,0.12298056,0.00173589,-0.03889545,0.06947128,0.15235265,0.00237903,-0.1020074,-0.00895305,0.05838091,0.0413477,0.21697602,0.0402561,-0.0500524,0.01665985,0.14942363,0.07405836,-0.09646253,-0.00234798,PASSTHOUGHT
0.10715141,0.0653963,-0.03421819,-0.07784785,-0.04273947,0.00872284,-0.04019954,0.05422956,0.09374603,-0.00285179,0.05265801,-0.016555,0.00588975,0.02932877,-0.01012373,0.00936115,0.03298585,-0.04916164,0.05295619,0.00078608,0.00249842,0.03577447,0.00398017,0.02042341,0.08927231,0.03529491,0.04496077,0.01246135,0.01704017,0.0064082,-0.00331801,0.03187381,0.02907031,0.05823354,0.12298639,0.00155348,-0.03996915,0.06954114,0.15363981,0.0069052,-0.10030434,-0.00587644,0.06029209,0.04288717,0.21772331,0.04051516,-0.0508524,0.01652097,0.15079635,0.07548975,-0.09573049,0.00079447,PASSTHOUGHT
0.10756899,0.06512046,-0.03551185,-0.07974371,-0.04381333,0.00778914,-0.04151739,0.05443751,0.09641722,-0.00205027,0.05453581,-0.01629708,0.00505709,0.02921523,-0.0112541,0.00894027,0.0325206,-0.0503111,0.05548341,0.0026971,0.00365403,0.03878669,0.00566719,0.01982985,0.08984805,0.03493956,0.04498498,0.01233001,0.01850478,0.01071311,-0.00050388,0.0366592,0.03356382,0.05805194,0.12261641,0.00071753,-0.04159634,0.0692492,0.15459403,0.01144152,-0.09853674,-0.00284755,0.06209842,0.04431459,0.2178933,0.04021616,-0.05232956,0.01597797,0.15192598,0.07672627,-0.09499605,0.00396434,PASSTHOUGHT
0.10786032,0.0647473,-0.0369076,-0.08169711,-0.04496563,0.00658239,-0.04308131,0.0544266,0.09893651,-0.00146003,0.05621343,-0.01616289,0.00404712,0.02887005,-0.0125473,0.0083276,0.0317525,-0.05168599,0.05795182,0.00451921,0.00466913,0.04169144,0.00724027,0.01893142,0.09003957,0.03419669,0.04471709,0.01188404,0.01984369,0.0150478,0.00229483,0.04144727,0.03805244,0.05760914,0.12187666,-0.00082107,-0.04378449,0.06860076,0.15522671,0.01598083,-0.09668444,0.00012345,0.06380295,0.04564133,0.21750656,0.03931326,-0.05450933,0.015023,0.15278961,0.07777575,-0.09424746,0.00715803,PASSTHOUGHT
0.1080462,0.06429901,-0.0383975,-0.08369897,-0.0461911,0.00512227,-0.04486558,0.05420957,0.10132211,-0.00106348,0.05769512,-0.01614818,0.00286664,0.02830634,-0.01399072,0.0075301,0.03069644,-0.05326978,0.06036609,0.00627209,0.00555171,0.04448954,0.00869192,0.01773498,0.08986628,0.03307721,0.04416701,0.01113505,0.02106484,0.01941364,0.00509218,0.04622693,0.04252966,0.0569327,0.1207885,-0.00307449,-0.04651143,0.06761948,0.1555656,0.02051845,-0.09472591,0.0030328,0.06541233,0.046886,0.21660401,0.03778622,-0.05738191,0.01366787,0.15337315,0.07865585,-0.09347074,0.01037673,PASSTHOUGHT
0.10815018,0.06379919,-0.03996893,-0.08573693,-0.0474821,0.00343546,-0.04683905,0.05380601,0.10359173,-0.0008359,0.05899175,-0.01624399,0.00152832,0.02754615,-0.01556499,0.0065607,0.02937711,-0.05503566,0.06272917,0.00797843,0.00631393,0.04718332,0.01001676,0.01625874,0.08936217,0.03160778,0.04335789,0.01010868,0.02217967,0.02381001,0.00790322,0.05098318,0.0469869,0.05606014,0.1193844,-0.00601887,-0.04972899,0.06634352,0.15564774,0.02504909,-0.09264346,0.00588178,0.06693384,0.0480703,0.21524137,0.03563968,-0.06090354,0.01194177,0.15366869,0.07938936,-0.09265413,0.01362288,PASSTHOUGHT
0.10819709,0.06327141,-0.04160592,-0.08779579,-0.0488285,0.00155406,-0.04896122,0.05324351,0.10576212,-0.00074688,0.06011923,-0.01643719,0.0000497,0.02661873,-0.01724401,0.00543787,0.02782715,-0.05694846,0.06504194,0.00966193,0.0069708,0.04977489,0.01121133,0.0145305,0.08857343,0.0298292,0.04232459,0.00884209,0.02320196,0.02823194,0.01074171,0.05569448,0.0514131,0.05503585,0.11770577,-0.00959547,-0.05336595,0.06482343,0.1555156,0.02956604,-0.09042532,0.00867532,0.06837428,0.04921668,0.21348558,0.03290304,-0.06499929,0.00988883,0.15367495,0.08000121,-0.09179001,0.01689939,PASSTHOUGHT
0.10821179,0.06273781,-0.04328746,-0.08985656,-0.05021573,-0.00048262,-0.05118526,0.05255542,0.10785069,-0.00075658,0.06110081,-0.01670945,-0.00154477,0.02556271,-0.01899399,0.00418762,0.02609012,-0.05896471,0.06730511,0.0113501,0.00754257,0.05227112,0.01227799,0.01259211,0.08756154,0.02779703,0.04111237,0.00738606,0.02415021,0.03267493,0.01362299,0.06034102,0.05579592,0.05391502,0.11580659,-0.01371123,-0.05733033,0.06312252,0.15522663,0.0340651,-0.08806095,0.01142366,0.06974161,0.05035186,0.21141887,0.02963318,-0.06956621,0.00756817,0.15340431,0.0805255,-0.09086952,0.02021384,PASSTHOUGHT
0.10821743,0.06221801,-0.0449916,-0.09190039,-0.05162869,-0.00263388,-0.0534657,0.05178054,0.10987103,-0.00082402,0.06196133,-0.01704137,-0.00322851,0.02441891,-0.02077789,0.00283786,0.0242126,-0.06103813,0.0695167,0.01306796,0.00804971,0.05467641,0.01321951,0.010491,0.0863926,0.02557446,0.03977195,0.00579613,0.02504249,0.03713007,0.016559,0.0648955,0.06011837,0.05275465,0.11374427,-0.01824809,-0.06151932,0.0613084,0.15483785,0.03853945,-0.08554681,0.01413813,0.07104115,0.0515006,0.20912723,0.02590718,-0.07448205,0.00504639,0.1528756,0.08099539,-0.08988906,0.02357197,PASSTHOUGHT
0.10823496,0.06172783,-0.04669603,-0.09390961,-0.05305241,-0.00485974,-0.05575582,0.05096126,0.1118328,-0.00090839,0.06272605,-0.01741337,-0.00497388,0.02322896,-0.0225569,0.00141745,0.02224301,-0.06312159,0.07167268,0.01483756,0.00851189,0.05699382,0.01404043,0.00827948,0.08513497,0.02322965,0.03835662,0.00413059,0.02589634,0.04158437,0.01955825,0.06932887,0.06436221,0.0516121,0.1115787,-0.02306826,-0.06582459,0.05944989,0.15440568,0.04298108,-0.08288578,0.01683071,0.07227623,0.05268512,0.20669904,0.02182069,-0.07961139,0.00239486,0.15211587,0.08144359,-0.08884856,0.02697933,PASSTHOUGHT
0.10828129,0.06127907,-0.04837949,-0.09586797,-0.05447265,-0.00712266,-0.05801679,0.0501404,0.11374282,-0.00097107,0.063419,-0.01780649,-0.00675352,0.02203286,-0.02429265,-0.00004519,0.02022891,-0.06516981,0.07376818,0.01667659,0.00894717,0.0592242,0.01474653,0.00601149,0.08385511,0.02083227,0.03691939,0.00244657,0.02672795,0.04602241,0.02262422,0.07361029,0.06850745,0.0505419,0.10936965,-0.02802086,-0.07013888,0.05761368,0.15398215,0.04738112,-0.08008777,0.01951288,0.07344842,0.05392407,0.2042217,0.017485,-0.08481168,-0.00031363,0.15115993,0.08189984,-0.0877524,0.03043951,PASSTHOUGHT
0.10836889,0.0608788,-0.05002145,-0.09776098,-0.05587478,-0.00938677,-0.06021281,0.04936295,0.11560633,-0.00097386,0.06406443,-0.01820142,-0.0085391,0.02086967,-0.02594651,-0.00152122,0.01821799,-0.06713981,0.07579963,0.01860037,0.00937313,0.06137061,0.01534921,0.00374533,0.08261869,0.0184524,0.0355105,0.00080053,0.02755459,0.05043021,0.02575792,0.07771428,0.07253543,0.04959903,0.10717928,-0.03294719,-0.07435954,0.05586314,0.15362212,0.05173412,-0.07716358,0.02219599,0.07455992,0.05523682,0.20178516,0.01302641,-0.08993876,-0.00300579,0.15005551,0.08239689,-0.08660308,0.03395762,PASSTHOUGHT
0.10850462,0.0605295,-0.05160443,-0.09957936,-0.05724787,-0.01162366,-0.06231732,0.04867225,0.11742405,-0.00088662,0.06468184,-0.01858212,-0.01030584,0.01977113,-0.02748575,-0.00298707,0.01625025,-0.06899547,0.07776289,0.0206171,0.00980237,0.06343342,0.01586083,0.00153549,0.08148108,0.01615365,0.03417298,-0.00075982,0.02839044,0.05479261,0.02895465,0.08161744,0.07642823,0.04883089,0.10506422,-0.03769147,-0.07839697,0.05425135,0.15336984,0.0560337,-0.07412955,0.02488808,0.07561174,0.05663844,0.19947287,0.00857776,-0.09485517,-0.0056138,0.14885594,0.0829622,-0.08540535,0.03753622,PASSTHOUGHT
0.10869144,0.0602293,-0.05311622,-0.1013191,-0.0585855,-0.01381345,-0.06431648,0.0481062,0.11919375,-0.00068858,0.06528631,-0.01893566,-0.01203308,0.01876065,-0.02888459,-0.00442566,0.01435686,-0.0707086,0.07965435,0.02272722,0.01024181,0.06541029,0.01629528,-0.000569,0.08048522,0.01399076,0.0329409,-0.00219683,0.02924673,0.05909346,0.03220378,0.08529931,0.08017182,0.04827635,0.10307476,-0.04210684,-0.082178,0.05281897,0.15325704,0.06027391,-0.07100566,0.02759401,0.07660488,0.05814041,0.19736081,0.00427534,-0.09943434,-0.00807691,0.14761883,0.08361689,-0.08416552,0.04117571,PASSTHOUGHT
0.10892796,0.05997299,-0.05454503,-0.10297814,-0.05988193,-0.01594041,-0.06619896,0.04770067,0.12091494,-0.00036202,0.06589177,-0.01924953,-0.01370046,0.01785734,-0.03012121,-0.00582157,0.01256447,-0.07225648,0.08147505,0.02492861,0.01069784,0.06730285,0.01667353,-0.00251931,0.07966783,0.01201183,0.03184044,-0.00347863,0.03013641,0.06332126,0.03549388,0.0887519,0.08375955,0.04797207,0.10126117,-0.04605622,-0.08564432,0.0515985,0.15331534,0.06445427,-0.067809,0.03031758,0.07754492,0.05975687,0.19552551,0.00026091,-0.10356336,-0.01033822,0.14641345,0.08438417,-0.08288462,0.04487861,PASSTHOUGHT
0.10920954,0.05975306,-0.05588359,-0.10456009,-0.06113632,-0.01799706,-0.06796645,0.04748334,0.12258645,0.00010213,0.06650734,-0.01951461,-0.01529139,0.01707151,-0.0311826,-0.00716645,0.01088983,-0.07362475,0.08322816,0.02721334,0.01117222,0.06911311,0.01701943,-0.00427303,0.07905258,0.0102532,0.03088685,-0.00458431,0.03107055,0.06746653,0.03881013,0.09197576,0.08719091,0.04794732,0.09966728,-0.04942138,-0.08875681,0.05060893,0.15356624,0.06857584,-0.06455646,0.03305906,0.07843981,0.0615011,0.19403709,-0.00332724,-0.10714763,-0.01234892,0.14531299,0.08528297,-0.08156112,0.04864627,PASSTHOUGHT
0.10952856,0.05956063,-0.05712818,-0.10607253,-0.06235184,-0.01998365,-0.06962729,0.04747618,0.12420693,0.00070448,0.06713903,-0.0197239,-0.01679284,0.0164056,-0.03206479,-0.00845833,0.00933965,-0.07480615,0.08492022,0.02956774,0.01166262,0.07084411,0.01736056,-0.00579418,0.0786514,0.00873959,0.03008584,-0.00550263,0.0320593,0.07152329,0.04213479,0.09498016,0.09047325,0.04822483,0.0983315,-0.05210427,-0.09149395,0.04985799,0.15402243,0.0726427,-0.06126438,0.03581619,0.07930152,0.0633869,0.19295992,-0.00635592,-0.11011019,-0.01406703,0.14439249,0.08632892,-0.08019067,0.05248022,PASSTHOUGHT
0.10987614,0.05938682,-0.05827658,-0.10752495,-0.06353343,-0.02190452,-0.07119146,0.04769584,0.1257779,0.00144026,0.06779193,-0.01987053,-0.01819273,0.01585744,-0.03277036,-0.0096984,0.00791487,-0.07579795,0.08656243,0.03197578,0.01216547,0.07250274,0.01772972,-0.00705074,0.07846898,0.00748646,0.02943619,-0.0062285,0.0331142,0.07548996,0.04545041,0.09778522,0.09362463,0.04882398,0.09729028,-0.05402642,-0.09384721,0.0493462,0.15469259,0.07666384,-0.05794409,0.038586,0.08014803,0.06543104,0.19235639,-0.00869755,-0.11239292,-0.01545446,0.1437315,0.08753648,-0.07876386,0.05638282,PASSTHOUGHT
0.11024234,0.05922325,-0.05932581,-0.10892735,-0.06468705,-0.02376686,-0.07267474,0.04815347,0.12730467,0.0023024,0.06847231,-0.01994692,-0.01947784,0.01542243,-0.03330697,-0.01088945,0.00661178,-0.07660001,0.08817049,0.03442135,0.01267782,0.07410198,0.01816627,-0.00801197,0.07850658,0.00650187,0.0289306,-0.00675996,0.03424967,0.07937163,0.04874166,0.10042457,0.09667248,0.04976487,0.09658008,-0.0551296,-0.09582015,0.04906794,0.15558748,0.08065356,-0.05460025,0.0413652,0.08100403,0.06765581,0.19228983,-0.01023204,-0.113953,-0.01647713,0.14341356,0.08892374,-0.07726289,0.06036082,PASSTHOUGHT
0.11061752,0.05906327,-0.0602742,-0.11029065,-0.06582094,-0.02558201,-0.07409028,0.04885403,0.12879403,0.00327856,0.06918576,-0.01994648,-0.02063631,0.01509193,-0.03368912,-0.01203761,0.00542056,-0.07721516,0.08976232,0.03688582,0.01319475,0.07565641,0.01871129,-0.00865297,0.07875916,0.00578482,0.02855735,-0.00709949,0.03547987,0.08317525,0.0519936,0.10293753,0.09965172,0.05106368,0.09623326,-0.05537692,-0.09742451,0.04901259,0.15671173,0.08462829,-0.05123501,0.0441498,0.0818982,0.07008488,0.19281781,-0.01085287,-0.11476599,-0.01710491,0.14351861,0.09050568,-0.07566749,0.06442038,PASSTHOUGHT
0.11099393,0.05890281,-0.06112012,-0.11162605,-0.06694482,-0.027364,-0.07545242,0.04979637,0.13025409,0.00435214,0.06993804,-0.01986296,-0.02165716,0.0148548,-0.03393726,-0.01315126,0.0043266,-0.07764778,0.09135726,0.03934874,0.01371036,0.07718209,0.01940649,-0.00895431,0.07921788,0.00532697,0.02830235,-0.007252,0.03681853,0.08690917,0.05519167,0.10536765,0.10260236,0.05273344,0.09627801,-0.05475154,-0.09867685,0.04916648,0.1580653,0.08860459,-0.04784861,0.04693558,0.08286209,0.07274272,0.19399169,-0.01046929,-0.11482255,-0.01731107,0.14412013,0.09229442,-0.07395579,0.06856707,PASSTHOUGHT
0.11136535,0.05874068,-0.06185956,-0.11294195,-0.06806626,-0.02912482,-0.07677067,0.0509746,0.13169664,0.00550816,0.07073784,-0.01968836,-0.02252754,0.01470173,-0.03407243,-0.01423679,0.00331581,-0.07790107,0.09297707,0.04179242,0.01422183,0.07869928,0.02029538,-0.00889815,0.07987627,0.00511676,0.02815247,-0.00722028,0.03828123,0.09058551,0.05832563,0.1077634,0.1055707,0.05478853,0.09674256,-0.05325221,-0.09959362,0.04951816,0.15965199,0.09260161,-0.04443712,0.04972044,0.08393086,0.07565647,0.19586022,-0.00900523,-0.11412631,-0.01706973,0.14528771,0.09430344,-0.07210261,0.07280885,PASSTHOUGHT
0.11172764,0.05857841,-0.06248702,-0.11424429,-0.06919163,-0.03087405,-0.07804827,0.05237995,0.13313508,0.00673291,0.07159594,-0.01941402,-0.02323394,0.01462492,-0.03411723,-0.01529868,0.00237486,-0.07797769,0.09464337,0.04420143,0.01472817,0.08023041,0.02141983,-0.00846934,0.08073035,0.00513953,0.02809579,-0.00700543,0.03988348,0.09421647,0.06138821,0.11017527,0.10860406,0.05724356,0.09765267,-0.05089327,-0.10018985,0.05005841,0.16147818,0.09663843,-0.04099341,0.05250301,0.08514027,0.07885412,0.19846621,-0.00640371,-0.11269352,-0.01635719,0.14708267,0.09654681,-0.07008135,0.07715382,PASSTHOUGHT
0.11207897,0.05842018,-0.06299827,-0.1155386,-0.07032755,-0.03262158,-0.07928965,0.05399691,0.13458133,0.00800942,0.07252153,-0.0190335,-0.02376592,0.01461503,-0.03409745,-0.01634234,0.00148762,-0.07788198,0.09637459,0.04655932,0.01522744,0.08179416,0.02281432,-0.00766132,0.08177332,0.00537535,0.0281216,-0.00661081,0.04163611,0.09781124,0.06437258,0.11264516,0.11174635,0.060107,0.09902508,-0.04770536,-0.1004791,0.05077799,0.16354249,0.10072921,-0.03751355,0.05528163,0.08652205,0.08235802,0.20183736,-0.00263248,-0.11055471,-0.01515487,0.14954984,0.0990309,-0.06787153,0.08160613,PASSTHOUGHT
0.1124194,0.05827196,-0.06338823,-0.11682733,-0.0714784,-0.03437448,-0.08049315,0.05580728,0.13604724,0.00932276,0.07352495,-0.01854033,-0.02411384,0.01466422,-0.03403718,-0.01737049,0.00063988,-0.07761837,0.09818666,0.04885266,0.0157193,0.08340855,0.02450733,-0.00647238,0.08300031,0.00580333,0.02822142,-0.00603913,0.04354751,0.10137779,0.06727482,0.11520965,0.11503714,0.06338511,0.10087007,-0.04373227,-0.10047283,0.05166905,0.16584365,0.10488492,-0.03399392,0.05805525,0.08810405,0.08618712,0.20598879,0.00231738,-0.10774591,-0.01345066,0.15271924,0.10175934,-0.06545614,0.08616769,JUNK
0.11275084,0.05814135,-0.06365117,-0.1181097,-0.07264514,-0.03613535,-0.08165489,0.05779184,0.13754401,0.01066092,0.07461604,-0.01792935,-0.02426944,0.01476664,-0.03395842,-0.01838248,-0.00017946,-0.07719177,0.10009231,0.05107179,0.01620551,0.08508992,0.0265195,-0.00490551,0.08440885,0.00640154,0.02838925,-0.00529199,0.04562273,0.10492157,0.07009412,0.11789876,0.11850995,0.06708115,0.10319121,-0.03902882,-0.10017882,0.0527268,0.16838133,0.10911334,-0.03043201,0.06082384,0.08990826,0.0903545,0.21092191,0.00843057,-0.1043133,-0.01123837,0.15660548,0.10473271,-0.06282318,0.09083819,JUNK
0.11307552,0.05803586,-0.06378388,-0.11938412,-0.07382772,-0.03790532,-0.08276993,0.05992721,0.1390795,0.01201154,0.07580165,-0.01719872,-0.02422944,0.01491529,-0.03388216,-0.01937736,-0.00098143,-0.07661054,0.1020985,0.05320793,0.01668717,0.08684874,0.02885969,-0.00297232,0.0859939,0.00714499,0.02861901,-0.00437412,0.0478602,0.10844386,0.07282981,0.12073067,0.12218805,0.07119106,0.10598011,-0.03366334,-0.09960561,0.05394485,0.17114964,0.11341533,-0.02682996,0.06358614,0.0919469,0.09486423,0.21661761,0.0156636,-0.10031383,-0.00852231,0.16120245,0.10794418,-0.05996921,0.09561288,JUNK
0.1133965,0.05796273,-0.0637868,-0.12064923,-0.07502571,-0.03968566,-0.08383387,0.06218634,0.14065623,0.0133606,0.07708374,-0.01635184,-0.02399687,0.01510054,-0.03382903,-0.02035482,-0.00177801,-0.07588798,0.1042055,0.05525205,0.01716354,0.08868779,0.03152237,-0.00069504,0.08774557,0.0080046,0.02890351,-0.00329596,0.05025043,0.11193866,0.07547989,0.12370916,0.12608126,0.07570048,0.10921429,-0.02771765,-0.09876487,0.05531349,0.17413321,0.11778365,-0.02319616,0.06633905,0.09422092,0.09970791,0.22303377,0.0239445,-0.09581528,-0.0053196,0.16648155,0.1113768,-0.05690245,0.10047965,JUNK
0.11371686,0.05792803,-0.06366366,-0.12190311,-0.07623665,-0.04147539,-0.08484775,0.06454287,0.1422742,0.01469572,0.0784599,-0.01539538,-0.02357997,0.01531174,-0.03381627,-0.02131405,-0.00258021,-0.07504174,0.10640866,0.05719768,0.01763416,0.09060425,0.03449081,0.00189633,0.08965123,0.00894946,0.0292339,-0.00207202,0.05277768,0.11539657,0.07804325,0.12682715,0.13018805,0.08058731,0.11285992,-0.02128409,-0.09767203,0.05682013,0.17731184,0.12220527,-0.0195437,0.06907752,0.09672075,0.10486693,0.23010904,0.03317712,-0.09089271,-0.0016595,0.17239462,0.11500631,-0.0536403,0.10542202,JUNK
0.11403856,0.05793586,-0.06342107,-0.12314349,-0.07745582,-0.04327128,-0.08581182,0.06696848,0.14393021,0.01600752,0.0799236,-0.01433963,-0.02299171,0.01553785,-0.03385752,-0.02225303,-0.00339613,-0.07409373,0.10869888,0.05904131,0.01809902,0.09259117,0.03773741,0.00476617,0.09169626,0.00994733,0.02959855,-0.00072048,0.0554212,0.11880609,0.08051978,0.13006906,0.13449496,0.08582346,0.11687396,-0.01446415,-0.09634812,0.05844919,0.18066506,0.12666239,-0.0158874,0.07179534,0.09942672,0.11031382,0.23776607,0.04324421,-0.08562888,0.00241648,0.17887832,0.1188046,-0.05020725,0.11042002,JUNK
0.11436235,0.05798779,-0.06307214,-0.12437146,-0.07868046,-0.04507259,-0.08673408,0.06943259,0.14561509,0.01728346,0.08146021,-0.01320148,-0.02225366,0.01576287,-0.03396658,-0.02317358,-0.00423727,-0.07307286,0.11106055,0.0607777,0.01855462,0.09463263,0.04122145,0.00786862,0.09385716,0.01096154,0.0299804,0.00073127,0.05815201,0.12214958,0.08290654,0.13340612,0.13897546,0.09136905,0.1211993,-0.00737009,-0.09482432,0.06017685,0.18416063,0.13112982,-0.01224866,0.07448255,0.10230718,0.1160082,0.24590667,0.05400729,-0.08011416,0.00685191,0.18584935,0.12273323,-0.04663883,0.11544724,JUNK
0.11468911,0.0580835,-0.0626341,-0.1255888,-0.07990681,-0.04687851,-0.08762785,0.07190594,0.14731744,0.01851159,0.08305021,-0.01200083,-0.02139209,0.01596949,-0.03415407,-0.0240784,-0.00511441,-0.07201193,0.11347533,0.06240264,0.01899659,0.09670798,0.04489421,0.01115247,0.09610631,0.01195483,0.03035899,0.00225135,0.06093714,0.12540807,0.08519971,0.13680173,0.143593,0.09717717,0.12577161,-0.00011848,-0.09313966,0.06197492,0.18776214,0.13557906,-0.00865215,0.07712694,0.10532246,0.12190125,0.25442025,0.06531601,-0.07444102,0.01158049,0.19321281,0.12674807,-0.04297812,0.12047371,JUNK
0.11501789,0.05822037,-0.06212528,-0.12679739,-0.08112887,-0.04868633,-0.08850636,0.07436239,0.14902529,0.01968461,0.08467211,-0.01075837,-0.02043469,0.0161422,-0.03442525,-0.02496919,-0.00603439,-0.07094478,0.11592423,0.06391553,0.01942211,0.09879677,0.04870401,0.0145677,0.0984171,0.01289267,0.03071121,0.00380736,0.06374393,0.1285648,0.08739725,0.14021921,0.14830627,0.10320019,0.13052623,0.00717482,-0.09133814,0.06381364,0.19143878,0.13998237,-0.00512046,0.07971548,0.10842869,0.12794119,0.26319414,0.07701704,-0.06870009,0.01653082,0.20087083,0.13080741,-0.0392689,0.12547034,JUNK
0.11534778,0.05839349,-0.06156665,-0.12800068,-0.08234144,-0.0504941,-0.08939032,0.07677791,0.15072523,0.0207958,0.0863013,-0.0094966,-0.01941136,0.01626553,-0.03478303,-0.02584898,-0.00700356,-0.06990613,0.11838719,0.06531592,0.01982749,0.10087707,0.05259638,0.01806406,0.10076113,0.0137425,0.03101115,0.00536519,0.06653921,0.1316027,0.08949585,0.14362094,0.15306787,0.1093879,0.13539773,0.01439635,-0.08946955,0.06566033,0.19515933,0.14431225,-0.00167524,0.08223394,0.1115785,0.13407293,0.27211401,0.08895767,-0.06297782,0.02162781,0.20872319,0.13486925,-0.03555644,0.13040803,JUNK
0.1156771,0.05859656,-0.0609808,-0.12920316,-0.08353997,-0.05230133,-0.09029955,0.07913196,0.1524031,0.02183935,0.08791176,-0.00823786,-0.01835258,0.01632527,-0.03522779,-0.02672219,-0.00802677,-0.068929,0.12084462,0.06660312,0.02020858,0.10292628,0.05651742,0.02159326,0.1031099,0.01447548,0.03123218,0.00689185,0.06929152,0.13450693,0.09149082,0.14696999,0.15782779,0.11568963,0.1403235,0.02143968,-0.08758646,0.06748147,0.19889265,0.1485423,0.00166211,0.08466721,0.11472402,0.14024,0.28106928,0.10099259,-0.0573524,0.02679715,0.21667181,0.13889247,-0.03188639,0.13525842,JUNK
0.11600516,0.05882298,-0.06038783,-0.13040805,-0.08471787,-0.05410551,-0.09125374,0.08141181,0.15404785,0.0228148,0.08947987,-0.00700036,-0.01728455,0.01631277,-0.03575424,-0.02759086,-0.00910334,-0.06804022,0.12328065,0.06777877,0.02056415,0.10492601,0.06042017,0.02511515,0.10544117,0.01507105,0.03135094,0.00836135,0.07197538,0.13726602,0.09337917,0.15023394,0.16253994,0.12206011,0.14525162,0.02821283,-0.0857376,0.06924859,0.20261642,0.15265155,0.00487559,0.08700213,0.11782159,0.14639059,0.2899633,0.11299372,-0.05188802,0.03197264,0.22462966,0.14284305,-0.02829955,0.13999751,JUNK
0.11633185,0.05906611,-0.05980248,-0.13161586,-0.08586632,-0.0559001,-0.09226713,0.0836103,0.15565327,0.02372939,0.0909882,-0.00579685,-0.01622602,0.01622772,-0.03635069,-0.02845243,-0.01022488,-0.06725701,0.12568459,0.0688487,0.02089796,0.10686593,0.06426813,0.02860322,0.10774393,0.01551997,0.03134955,0.00975911,0.07457501,0.13987607,0.09516097,0.15339363,0.16716442,0.12846571,0.15014651,0.03464336,-0.08396318,0.07094202,0.20632473,0.1566278,0.00795747,0.08922865,0.12083571,0.15248229,0.29872203,0.12485701,-0.04663165,0.03710177,0.23252887,0.14670074,-0.02482593,0.14460994,JUNK
0.11665857,0.05932007,-0.05923643,-0.13282673,-0.0869769,-0.05767906,-0.09334693,0.08572738,0.15721488,0.02459257,0.09242368,-0.00463559,-0.01518986,0.01607549,-0.03700318,-0.02930314,-0.0113791,-0.06658711,0.1280489,0.06981825,0.0212148,0.1087394,0.06803413,0.03204046,0.11001396,0.01582221,0.03121696,0.01107994,0.07708164,0.14233652,0.0968358,0.15643579,0.17166704,0.13488002,0.15498537,0.04067872,-0.08229354,0.07254964,0.21001694,0.16046456,0.01090463,0.09133918,0.12373777,0.15847985,0.30728978,0.13650212,-0.0416117,0.04214646,0.24031702,0.15045252,-0.02148886,0.14908491,JUNK
0.11698912,0.0595803,-0.05869484,-0.13403732,-0.08803971,-0.05943377,-0.09449552,0.08777221,0.15873303,0.02541873,0.09378091,-0.00351699,-0.01417981,0.0158702,-0.0376929,-0.03013494,-0.01254748,-0.06602538,0.13037127,0.07069406,0.02152302,0.11054624,0.07170314,0.03542322,0.11225833,0.01599019,0.03095241,0.01233238,0.07949652,0.14465195,0.09840479,0.15935554,0.17602167,0.1412881,0.15976293,0.04629131,-0.08074343,0.0740714,0.21370341,0.1641627,0.01371907,0.09333034,0.12651053,0.16435869,0.31563571,0.14787802,-0.03683495,0.04708799,0.24796264,0.15409662,-0.01830136,0.15341853,JUNK
0.11732865,0.05984388,-0.05817275,-0.13523902,-0.08904102,-0.06114962,-0.09570034,0.08976275,0.16021585,0.02623197,0.095066,-0.00243163,-0.01318699,0.01563798,-0.03839418,-0.03093168,-0.01370096,-0.06555124,0.13265736,0.07148873,0.02183783,0.1122978,0.07527706,0.03876691,0.11450132,0.01605194,0.03056814,0.01354339,0.08183419,0.14683519,0.09987465,0.16216283,0.18021598,0.14769292,0.1644963,0.05148263,-0.07930643,0.07552385,0.21741503,0.16773526,0.01641498,0.09520624,0.12915027,0.17011087,0.32376039,0.15896752,-0.03228498,0.05193127,0.25546262,0.15765041,-0.0152606,0.15761785,JUNK
0.11768426,0.06011012,-0.05765888,-0.13642102,-0.08996723,-0.06281051,-0.09694082,0.09172493,0.16167544,0.02705902,0.09629299,-0.00136301,-0.012194,0.01541195,-0.03907916,-0.03167365,-0.01480603,-0.06513183,0.13491654,0.07221527,0.02217654,0.11401097,0.07876933,0.04209802,0.11677645,0.01604625,0.03008816,0.01475206,0.08411755,0.14890347,0.1012535,0.16487454,0.18424731,0.15410747,0.16921696,0.0562789,-0.07795738,0.07693551,0.2211884,0.17120174,0.01901049,0.096976,0.13166383,0.17573878,0.33168525,0.16978036,-0.02792529,0.05670071,0.26283354,0.16114034,-0.01235426,0.16169618,JUNK
0.11806412,0.06038011,-0.057136,-0.13756949,-0.09080418,-0.06439868,-0.09818626,0.09369031,0.16312738,0.02792922,0.09748424,-0.00028804,-0.01117548,0.0152315,-0.03971831,-0.03233737,-0.01582562,-0.06472323,0.137162,0.07288814,0.0225585,0.11570783,0.08220389,0.04545369,0.11912601,0.01602167,0.02954784,0.01600895,0.08637717,0.15087673,0.10255122,0.16751662,0.1881226,0.16055495,0.173969,0.06072944,-0.07665226,0.07834635,0.22506608,0.17458761,0.02152882,0.09865426,0.13406847,0.18125604,0.33945191,0.18035118,-0.02370208,0.06143937,0.27011096,0.16460255,-0.00955966,0.16567287,JUNK
0.11847738,0.06065675,-0.05657981,-0.13866714,-0.09153652,-0.06589303,-0.09939661,0.09569713,0.16459237,0.02887524,0.09867056,0.00082294,-0.01009845,0.01514178,-0.04028026,-0.03289443,-0.01671814,-0.06427195,0.13941066,0.07352374,0.02300639,0.11741603,0.08561515,0.04888044,0.12160065,0.01603533,0.02899388,0.0173742,0.08865071,0.15277945,0.10378036,0.17012106,0.19186008,0.16706796,0.17880762,0.06490473,-0.07532922,0.07980753,0.22909619,0.17792538,0.02399757,0.10026193,0.13639145,0.18668652,0.34711969,0.19073661,-0.01954774,0.06620689,0.27734858,0.16808206,-0.00684452,0.16957338,JUNK
0.11893406,0.0609439,-0.05596297,-0.13969579,-0.09214966,-0.06727172,-0.10052682,0.09778368,0.1660932,0.02993008,0.09988729,0.0020032,-0.00892642,0.01518921,-0.04073481,-0.03331467,-0.01744172,-0.06371986,0.14168109,0.07413883,0.02354369,0.11916518,0.08904275,0.05242869,0.12425346,0.01614796,0.02848038,0.01891184,0.09097875,0.15463652,0.10495479,0.17272265,0.19548537,0.17368346,0.18379186,0.06888939,-0.07391337,0.08137634,0.23332511,0.18125083,0.0264457,0.10182422,0.13866633,0.19206052,0.35475677,0.2010074,-0.01538683,0.07107309,0.28461078,0.17162721,-0.00417063,0.17342643,ADDITION
0.11944353,0.06124636,-0.05525627,-0.14063679,-0.09262985,-0.06851232,-0.10152499,0.09998921,0.16765432,0.03112596,0.1011728,0.00328731,-0.00762135,0.01541942,-0.04105411,-0.03356716,-0.01795615,-0.06300793,0.14399284,0.07475077,0.02419429,0.12098595,0.09252872,0.05614998,0.12713704,0.01642084,0.02806614,0.02068585,0.09340262,0.15647298,0.10608974,0.17535786,0.19902973,0.18044049,0.18898131,0.07277711,-0.07232158,0.08311272,0.23779559,0.18460149,0.02890264,0.10336897,0.14093097,0.19741307,0.36243635,0.21124296,-0.01114186,0.0761134,0.29196855,0.17528792,-0.00149521,0.17726189,ADDITION
0.12001316,0.06156874,-0.05443403,-0.14147487,-0.0929678,-0.06959648,-0.10234352,0.10234781,0.16929716,0.03248682,0.10256295,0.00470702,-0.00615007,0.01587027,-0.04121739,-0.03362564,-0.01822886,-0.06208306,0.14636256,0.07537345,0.02497735,0.12290358,0.09611089,0.06008812,0.13029373,0.01690853,0.0278089,0.02275047,0.0959583,0.15831096,0.1071986,0.17805931,0.20252571,0.1873717,0.19442533,0.07666051,-0.07047157,0.08507106,0.24253438,0.18801174,0.031393,0.10492418,0.14322244,0.20277745,0.37022302,0.22152005,-0.00673997,0.08139954,0.29948878,0.17910652,0.00122243,0.18110637,ADDITION
0.12064894,0.06191503,-0.05347357,-0.1421971,-0.09315694,-0.070508,-0.10293823,0.10488748,0.17104252,0.03403157,0.10409082,0.00629064,-0.00448453,0.01657222,-0.04120957,-0.03346704,-0.01823405,-0.06090064,0.14880532,0.07601977,0.02590895,0.12493979,0.09982291,0.06427934,0.13375631,0.01765776,0.02776314,0.02514936,0.09867676,0.16017108,0.10829453,0.18085591,0.20600729,0.19450328,0.20016308,0.08062728,-0.06828631,0.08729936,0.24755585,0.19151421,0.03393717,0.10651857,0.14557618,0.20818415,0.37817302,0.2319106,-0.00211816,0.08699666,0.30723301,0.18311839,0.0040206,0.18498325,ADDITION
0.12135251,0.06228769,-0.05235949,-0.14279549,-0.09319464,-0.07123475,-0.10327235,0.10762774,0.17290737,0.03577143,0.10578301,0.00805973,-0.00260501,0.01754477,-0.04102311,-0.0330747,-0.01795543,-0.05942916,0.15133278,0.07670069,0.02700072,0.12711124,0.10369129,0.06874899,0.13754366,0.01870289,0.02797449,0.02791006,0.1015811,0.16207111,0.10939012,0.18377289,0.20950849,0.2018525,0.20621917,0.08475231,-0.06570145,0.08983351,0.25286028,0.19513701,0.03655118,0.1081776,0.14802289,0.21365899,0.38632894,0.2424747,0.00277115,0.09295637,0.31525281,0.18735018,0.00693417,0.18891226,ADDITION
0.12212348,0.06268764,-0.05108634,-0.14326923,-0.09308486,-0.07177243,-0.10332292,0.11057781,0.17490292,0.03770543,0.10765541,0.01002673,-0.00050519,0.01879184,-0.04066082,-0.03244263,-0.01739119,-0.05765498,0.15395156,0.07742188,0.02825653,0.12942481,0.10773007,0.07350495,0.14165387,0.02006074,0.02847552,0.03103779,0.10468245,0.16402318,0.11049435,0.18682629,0.2130577,0.20942067,0.21259682,0.08909026,-0.06267378,0.09269144,0.25842458,0.19889987,0.03924103,0.10992201,0.15058525,0.21921708,0.39471108,0.25325358,0.00795529,0.09931033,0.32358101,0.19181161,0.00998715,0.1929041,ADDITION
0.12295664,0.06311361,-0.04965866,-0.14362355,-0.09283613,-0.0721225,-0.10307954,0.11373679,0.17703535,0.03982389,0.10971393,0.01219478,0.00180956,0.02030369,-0.04013514,-0.03157358,-0.01655141,-0.05558264,0.15666474,0.07818614,0.02967513,0.13188088,0.1119428,0.07854073,0.1460676,0.02173146,0.02928392,0.03451662,0.10798167,0.16603528,0.1116145,0.19002663,0.21667881,0.21719646,0.21928139,0.09367388,-0.05918325,0.09587362,0.26421115,0.20281617,0.04200726,0.1117669,0.1532778,0.22486459,0.4033213,0.26426989,0.01344072,0.10606973,0.3322342,0.19649969,0.01319545,0.1969633,ADDITION
0.1238457,0.063563,-0.04809476,-0.1438736,-0.09246513,-0.07229671,-0.10255253,0.11708762,0.17930348,0.04210266,0.1119493,0.01455407,0.00431805,0.02205226,-0.0394702,-0.03048393,-0.01546276,-0.05323833,0.15946959,0.07898887,0.0312451,0.13446772,0.11631786,0.08382888,0.15074174,0.0236939,0.03039886,0.03830457,0.11146553,0.16810751,0.11275248,0.19337328,0.22038738,0.22514896,0.22623481,0.09850795,-0.0552399,0.09935752,0.27015719,0.20688747,0.04483707,0.11371862,0.15610392,0.2305934,0.41213581,0.27552265,0.0192088,0.11321995,0.34120446,0.20139104,0.01655939,0.20108187,ADDITION
0.12477946,0.064032,-0.04642105,-0.14403892,-0.09199046,-0.07231036,-0.10176301,0.12060603,0.18170439,0.04451388,0.1143434,0.01708721,0.00698951,0.02399972,-0.03869478,-0.02919679,-0.01415973,-0.05066456,0.1623629,0.0798257,0.03295296,0.13717188,0.12083711,0.08933271,0.15562233,0.02591288,0.0318037,0.04234365,0.11511404,0.17023951,0.11391103,0.19686535,0.22419612,0.23323964,0.23340827,0.10357565,-0.05087925,0.10310549,0.27619758,0.21111099,0.04771514,0.11577789,0.15906039,0.23638895,0.42111966,0.28699595,0.02522202,0.1207273,0.35047087,0.20645554,0.02007328,0.20524856,ADDITION
0.12574621,0.06451558,-0.04467616,-0.14414749,-0.09143753,-0.0721882,-0.10075303,0.12425296,0.18422805,0.04701708,0.11686474,0.01976534,0.00978043,0.02609363,-0.03784793,-0.027748,-0.01269118,-0.04792202,0.16533679,0.08068517,0.03477617,0.13997072,0.12547071,0.09499955,0.16063762,0.02833517,0.03346347,0.04655526,0.1188959,0.17242461,0.11508732,0.2004917,0.22810934,0.24141511,0.24073592,0.10883393,-0.04616597,0.10706021,0.28225172,0.21547386,0.05061636,0.11793537,0.16213359,0.24222381,0.43021867,0.29865333,0.03142341,0.12853537,0.35999075,0.21164705,0.02371798,0.20944229,ADDITION
0.12673262,0.06500833,-0.04290638,-0.14423127,-0.09083462,-0.07196128,-0.0995764,0.12798595,0.18686172,0.04956616,0.11947395,0.02255231,0.01264006,0.02827419,-0.03697258,-0.02618047,-0.01111357,-0.04508262,0.16838291,0.08155303,0.03668791,0.1428387,0.13018335,0.10076911,0.16570809,0.03089674,0.03533011,0.05085007,0.12277447,0.17465377,0.11627733,0.20424001,0.23212644,0.24961495,0.24814489,0.11422225,-0.04118624,0.11115254,0.28823707,0.2199572,0.05351173,0.12017515,0.16530369,0.24806336,0.43937001,0.31044686,0.03774483,0.1365732,0.36970809,0.21691167,0.02746554,0.21363588,ADDITION
0.12772547,0.06550525,-0.04116334,-0.14432596,-0.09021294,-0.07166652,-0.09829997,0.13175465,0.18958999,0.05211006,0.12212449,0.0254064,0.01551284,0.03047691,-0.03611489,-0.02454355,-0.0094886,-0.04222509,0.17149267,0.08241192,0.03865775,0.14574786,0.13493621,0.10657652,0.17075053,0.03352597,0.03734522,0.05513312,0.12670977,0.17691407,0.11747435,0.20809577,0.23624173,0.25777462,0.25555956,0.11966666,-0.03604306,0.11530536,0.29407287,0.22453646,0.05636808,0.12247484,0.16854574,0.25386763,0.44850656,0.32232028,0.0441118,0.14475968,0.37955648,0.22219014,0.03128042,0.21779777,ADDITION
0.128713,0.0660025,-0.03949943,-0.14446716,-0.08960265,-0.07134277,-0.09699482,0.13550906,0.19239876,0.0545993,0.12476858,0.02828475,0.0183445,0.03263922,-0.0353189,-0.0228875,-0.00787782,-0.03942741,0.17466007,0.08324429,0.04065519,0.14867283,0.13969298,0.11235933,0.17568763,0.03615082,0.03944661,0.05931364,0.1306636,0.1791921,0.11867177,0.21204585,0.24044885,0.26583183,0.26291001,0.12508929,-0.03084566,0.1194424,0.29968995,0.22918549,0.05915327,0.12480842,0.1718336,0.25959581,0.45756516,0.33421662,0.05045145,0.15301186,0.3894667,0.22742425,0.03512344,0.22189622,ADDITION
0.12968604,0.06649815,-0.03796439,-0.14468864,-0.08903292,-0.07103019,-0.09573276,0.13920093,0.19527505,0.05698725,0.12735988,0.03114521,0.0210849,0.03470402,-0.03462575,-0.02126173,-0.00633898,-0.03676119,0.17788163,0.08403278,0.04265055,0.15159227,0.14442153,0.11806157,0.18045256,0.03870334,0.04157271,0.06331146,0.13460174,0.18147638,0.11986314,0.21607909,0.24474017,0.2737309,0.27013621,0.13041447,-0.02570183,0.1234928,0.30503577,0.23387766,0.06183693,0.12714799,0.17514132,0.26520911,0.4664914,0.34608197,0.05669885,0.16125062,0.39937061,0.2325615,0.03895447,0.22590041,ADDITION
0.13063832,0.06699244,-0.03660376,-0.14502154,-0.08853143,-0.0707703,-0.09458338,0.14278892,0.19820762,0.05922943,0.12985498,0.03394796,0.02369047,0.03662146,-0.03407132,-0.01971304,-0.00492553,-0.0342869,0.18115622,0.08475877,0.04461487,0.1544867,0.14909446,0.12363396,0.1849907,0.04112319,0.04366766,0.06706084,0.13849492,0.18375339,0.12104066,0.22018322,0.24910718,0.28142208,0.27718875,0.13557455,-0.02070968,0.12739538,0.31007084,0.23858473,0.0643892,0.12946415,0.17844385,0.27067029,0.47523862,0.35786736,0.06280271,0.16940597,0.40920186,0.23755324,0.04273153,0.22977959,ADDITION
0.13156782,0.06748806,-0.03545378,-0.14549024,-0.0881213,-0.07060181,-0.09360656,0.14624016,0.20119019,0.06128966,0.13221949,0.03666059,0.02612909,0.03835559,-0.03368312,-0.01828033,-0.00368008,-0.03204676,0.18448734,0.08540687,0.04652375,0.15734488,0.15369409,0.12904055,0.18926832,0.04336483,0.04568763,0.07051988,0.14232352,0.186012,0.12219832,0.22435361,0.25354445,0.28886819,0.2840358,0.1405189,-0.01594632,0.13110682,0.31477931,0.24328242,0.06678609,0.13173091,0.1817213,0.27594924,0.48377532,0.36953497,0.0687331,0.17742477,0.41890413,0.24236283,0.04641718,0.23350862,ADDITION
0.13247626,0.06799028,-0.03453891,-0.14611,-0.08781903,-0.07055818,-0.0928485,0.14953366,0.20422232,0.0631427,0.13443063,0.03926023,0.02838284,0.03988666,-0.03347773,-0.01699156,-0.00263169,-0.03006136,0.18788311,0.0859658,0.048359,0.16016382,0.1582135,0.13426092,0.19327506,0.04540046,0.04760445,0.07367349,0.14607905,0.18824607,0.12333284,0.22858842,0.25804844,0.296047,0.29066449,0.14521793,-0.01146101,0.13460542,0.31917131,0.24795148,0.06901214,0.13392697,0.18495953,0.28102529,0.4920862,0.38105902,0.07448294,0.18527415,0.42843381,0.24696855,0.04998119,0.23706906,ADDITION
0.13336946,0.06850643,-0.03387153,-0.14688852,-0.08763628,-0.07066932,-0.09233931,0.15266109,0.20730722,0.06477135,0.1364771,0.04173315,0.03044724,0.04120965,-0.03346214,-0.01586469,-0.00179735,-0.02832894,0.19135354,0.08642718,0.05010705,0.16294619,0.16265473,0.13928711,0.19702065,0.04721978,0.04940705,0.07653252,0.14976235,0.19045042,0.1244424,0.23288776,0.26261881,0.30294797,0.29707628,0.14966281,-0.00727197,0.13788947,0.32327431,0.25257626,0.07105848,0.13603695,0.18814918,0.28588563,0.50016618,0.39242202,0.08007024,0.19294082,0.43775672,0.25136018,0.05339966,0.24044867,ADDITION
0.13425785,0.06904545,-0.03345083,-0.14782353,-0.08757854,-0.07095905,-0.09209131,0.15562655,0.21045329,0.06616765,0.13835956,0.0440756,0.03233106,0.04233473,-0.03363356,-0.01490625,-0.00118111,-0.02682488,0.19491079,0.08678638,0.05176074,0.16569947,0.16702719,0.14412223,0.20053412,0.04883083,0.05110333,0.07913352,0.15338308,0.19262257,0.12552689,0.23725209,0.26725781,0.30957067,0.30328518,0.15386707,-0.00336348,0.14097859,0.32713085,0.25714549,0.0729222,0.13805251,0.19128604,0.29052469,0.5080176,0.40361369,0.08553621,0.20043218,0.44684774,0.25553736,0.05665465,0.24364184,ADDITION
0.13515465,0.06961696,-0.03326205,-0.14890215,-0.08764375,-0.0714425,-0.09209629,0.15844783,0.21367389,0.06733627,0.14009343,0.04629519,0.03405759,0.04328866,-0.03397705,-0.01410866,-0.0007708,-0.02550183,0.19856887,0.08704542,0.05332147,0.16843842,0.17134829,0.14878263,0.20386492,0.05026048,0.05271986,0.08153915,0.15696098,0.19476514,0.12659042,0.24168463,0.27197182,0.31592751,0.30931801,0.15786612,0.00031539,0.14391384,0.33080253,0.26165563,0.07461072,0.13997513,0.19437204,0.29494703,0.51565135,0.41463035,0.09094284,0.20777579,0.45569384,0.25951445,0.05973922,0.24665223,ADDITION
0.13607417,0.07023052,-0.03327772,-0.15010236,-0.08782353,-0.0721269,-0.09232721,0.16115442,0.216985,0.06829111,0.1417045,0.04840865,0.03566073,0.04411023,-0.03446953,-0.01345268,-0.00054222,-0.02429446,0.20234096,0.08721184,0.05479776,0.17118116,0.17563975,0.1532916,0.20707527,0.05155026,0.05429932,0.08383048,0.16052172,0.19688477,0.12763968,0.24618788,0.27676752,0.32203746,0.3152068,0.1617116,0.00384618,0.1467526,0.33435899,0.26610798,0.07613836,0.14181443,0.1974126,0.2991637,0.52307796,0.42546844,0.09636644,0.21501382,0.46428841,0.26331413,0.06265448,0.24949019,ADDITION
0.1370324,0.07089446,-0.03346291,-0.15139653,-0.08810616,-0.07301451,-0.09274266,0.16378264,0.2204013,0.06905019,0.14322585,0.05043871,0.03717966,0.04484455,-0.03508319,-0.01291245,-0.00046404,-0.02312568,0.20623621,0.08729559,0.05620179,0.17394401,0.17992136,0.15767221,0.21023071,0.05275026,0.05589528,0.08609823,0.16409202,0.19898944,0.12868163,0.25075758,0.28165087,0.3279191,0.32097971,0.1654631,0.00733288,0.1495605,0.33786616,0.27050588,0.07752287,0.14358674,0.20041324,0.3031871,0.53029853,0.43611681,0.10189103,0.22219516,0.47262359,0.26696,0.06540599,0.25217,ADDITION
0.13804349,0.07161482,-0.03377258,-0.15274823,-0.08847266,-0.07409718,-0.09328395,0.1663778,0.22393869,0.06964089,0.14469938,0.05241552,0.03866024,0.04554481,-0.03578249,-0.01245094,-0.00049412,-0.02190894,0.21026172,0.08731375,0.05755388,0.17674546,0.18421349,0.16195112,0.21340246,0.05391958,0.05757041,0.08844175,0.16770193,0.20109311,0.12972794,0.25538942,0.28662872,0.33359474,0.32666433,0.16918692,0.0108985,0.1524117,0.34139466,0.27485931,0.07878997,0.14531699,0.2033817,0.30703545,0.53730947,0.4465594,0.10760294,0.22937442,0.48069593,0.27048311,0.06800845,0.25471365,ADDITION
0.13912001,0.07239453,-0.03415783,-0.15411825,-0.08890194,-0.07536084,-0.09388419,0.16898569,0.22760954,0.07009266,0.1461686,0.05437069,0.04014826,0.04626379,-0.0365307,-0.01202757,-0.00058669,-0.02055757,0.21441828,0.087287,0.05887786,0.17959951,0.18853,0.16614909,0.21665484,0.05511738,0.05938874,0.09095678,0.17137799,0.20321096,0.13079163,0.26007345,0.29170421,0.33908114,0.33227688,0.1729445,0.01467193,0.15537725,0.34500369,0.27917939,0.07996771,0.14703459,0.20632312,0.31072539,0.54409188,0.45676625,0.11357948,0.2366014,0.48849741,0.27391097,0.07047976,0.25714463,ADDITION
0.14027119,0.07323294,-0.03456797,-0.15546565,-0.0893706,-0.07678606,-0.09447297,0.17165092,0.23142076,0.07043665,0.1476768,0.05633566,0.0416865,0.04705099,-0.03729113,-0.01160003,-0.00069559,-0.01899045,0.21870016,0.08723941,0.06020048,0.1825152,0.19287749,0.17027944,0.22004117,0.05639899,0.06141019,0.09372928,0.17514192,0.20536093,0.13188742,0.26479393,0.29687482,0.34438869,0.33782023,0.17678656,0.01877812,0.15852001,0.34874111,0.28347757,0.08108576,0.14877172,0.20923901,0.31427187,0.55061132,0.46669281,0.11988442,0.24391623,0.4960137,0.27726835,0.07284082,0.25948891,ADDITION
0.14150321,0.07412598,-0.03495481,-0.15675065,-0.08985474,-0.07834842,-0.09497762,0.17441425,0.23537268,0.07070247,0.14926246,0.05833905,0.04331025,0.0479486,-0.03802975,-0.01112787,-0.00077677,-0.0171385,0.22309484,0.08719705,0.06154935,0.18549427,0.19725139,0.1743442,0.22359805,0.05781047,0.06368592,0.09682801,0.17900757,0.20756133,0.13303064,0.26952702,0.30213267,0.34951738,0.343281,0.18074732,0.02333015,0.16189025,0.35263738,0.28776464,0.08217264,0.15056145,0.21212566,0.31768492,0.55681568,0.47627836,0.12655805,0.25134507,0.50322211,0.28057206,0.07511161,0.2617709,ADDITION
0.14281771,0.07506612,-0.03527385,-0.1579363,-0.09033027,-0.08001905,-0.09533107,0.17730898,0.23945922,0.07091857,0.15095788,0.06040539,0.0450465,0.04898976,-0.0387163,-0.01057415,-0.00079027,-0.01494922,0.22758387,0.08718914,0.06295335,0.18853234,0.20163792,0.17833506,0.22734414,0.05938625,0.06625326,0.10030049,0.18298106,0.20983236,0.13423839,0.27424526,0.3074632,0.3544583,0.34863082,0.18483992,0.02841822,0.16552056,0.35670799,0.29204991,0.08325605,0.15243584,0.2149746,0.32097051,0.56263953,0.48544848,0.13361631,0.25889587,0.51009297,0.28383312,0.0773119,0.26401463,ADDITION
0.14421083,0.07604249,-0.03548627,-0.15898935,-0.09077352,-0.08176515,-0.09547488,0.18036026,0.24366795,0.07111233,0.15278707,0.06255296,0.0469127,0.05019703,-0.03932432,-0.00990676,-0.00070106,-0.01239039,0.2321434,0.0872478,0.06444156,0.19161984,0.20601434,0.18223439,0.23127955,0.0611466,0.06913181,0.10417012,0.18706037,0.21219568,0.13553008,0.27891859,0.31284562,0.35919508,0.35382843,0.18905331,0.03410245,0.16942345,0.36095527,0.29634166,0.08436365,0.1544231,0.2177722,0.32413065,0.56800801,0.49411714,0.1410457,0.26655576,0.5165922,0.28705704,0.07946122,0.26624274,ADDITION
0.14567541,0.07704194,-0.03556298,-0.15988462,-0.09116539,-0.08355559,-0.09536421,0.18358089,0.24797805,0.07130346,0.1547613,0.06479052,0.04891247,0.05157783,-0.03983682,-0.00910443,-0.0004858,-0.0094544,0.23674358,0.0874032,0.06603771,0.19473784,0.21034649,0.18601111,0.23537999,0.06309284,0.07231961,0.10843055,0.19123237,0.21466871,0.136923,0.28351203,0.31824872,0.36369959,0.35881662,0.19334875,0.04040507,0.17358629,0.36535978,0.30064255,0.08551759,0.15654445,0.22049794,0.3271603,0.57283461,0.50218701,0.1488018,0.27428809,0.5226754,0.2902382,0.08157327,0.26847148,ADDITION
0.14720091,0.0780504,-0.03548303,-0.16060336,-0.09148861,-0.0853592,-0.09497081,0.18697275,0.2523638,0.0715084,0.15688132,0.06711938,0.05103905,0.05312809,-0.04024217,-0.00815427,-0.00012987,-0.00615604,0.24135289,0.08768673,0.06776299,0.19786276,0.21459405,0.18962705,0.2396035,0.06521089,0.07579491,0.11305028,0.19547696,0.21726933,0.13843566,0.28798935,0.32363737,0.3679384,0.36353135,0.1976655,0.04731096,0.17797594,0.36989078,0.30495232,0.08673681,0.15881489,0.22312784,0.33005098,0.57703286,0.50955945,0.15681298,0.28203705,0.52829701,0.29336509,0.08365812,0.27071363,ADDITION
0.148774,0.07905379,-0.03523266,-0.16113353,-0.09172828,-0.0871444,-0.09428041,0.19052941,0.25679713,0.07174332,0.15913896,0.06953397,0.05327761,0.05483456,-0.04053294,-0.00705115,0.00037425,-0.00253061,0.24594021,0.08813157,0.06963547,0.20097041,0.21871516,0.1930431,0.24389659,0.06747366,0.0795166,0.11797686,0.19977033,0.22001301,0.14008757,0.29232118,0.32897177,0.37187925,0.36790872,0.2019242,0.05476749,0.18254122,0.374515,0.30926967,0.08803955,0.16124247,0.22563665,0.33279496,0.58052629,0.51614124,0.16498518,0.28973064,0.53341532,0.29642716,0.08572543,0.27297968,ADDITION
0.15038082,0.08003979,-0.03480751,-0.16147198,-0.09187417,-0.08888403,-0.09329588,0.19423392,0.26124808,0.07201911,0.16151486,0.07202041,0.05560377,0.05667362,-0.04070931,-0.00580083,0.00102279,0.00136721,0.25047556,0.08876859,0.07166648,0.20403275,0.22266585,0.19621734,0.24819332,0.06983992,0.08342664,0.12313774,0.20408347,0.22291026,0.14189629,0.29648003,0.33420873,0.37548846,0.37188613,0.20603153,0.06268727,0.18721569,0.37919003,0.31358895,0.08943839,0.16382654,0.2279972,0.33538216,0.58324856,0.52184826,0.17320053,0.29728508,0.53799152,0.299409,0.08777875,0.2752744,ADDITION
0.15200754,0.08099879,-0.03420959,-0.16162229,-0.09191968,-0.09055468,-0.09203684,0.19806157,0.26568857,0.0723462,0.16398346,0.07455982,0.05798839,0.05861628,-0.04077439,-0.00441685,0.00180453,0.00546908,0.25493354,0.089628,0.07386217,0.20702372,0.22640555,0.19911282,0.2524246,0.0722611,0.08745459,0.12844795,0.20838724,0.22596881,0.14387892,0.30044547,0.33930483,0.37873885,0.37541103,0.20988902,0.07095461,0.19192357,0.3838757,0.31790268,0.09094479,0.16655914,0.23018403,0.33780602,0.58515376,0.52661502,0.18133122,0.30461112,0.54199725,0.30229831,0.08981965,0.27759975,ADDITION
0.15364264,0.0819255,-0.03344677,-0.16159514,-0.09186253,-0.09213901,-0.09053674,0.20198447,0.27009347,0.07273327,0.166513,0.07712857,0.06039946,0.06062919,-0.04073569,-0.00292035,0.00270062,0.00969732,0.25929442,0.09073737,0.07622143,0.20991874,0.22989884,0.20169845,0.25652117,0.07468354,0.09152217,0.13381472,0.21265323,0.2291892,0.14604966,0.30420309,0.34421709,0.38161024,0.37844318,0.21339993,0.07943248,0.19658442,0.38853222,0.32220125,0.09256668,0.16942494,0.23217437,0.34006244,0.58621907,0.53039843,0.18924619,0.31161898,0.54541492,0.30508429,0.09184587,0.27995268,ADDITION
0.15527742,0.0828194,-0.03253011,-0.16140543,-0.09170323,-0.09362425,-0.08883938,0.20597316,0.27444607,0.07319087,0.16907015,0.07970247,0.06280583,0.0626798,-0.04060109,-0.00133668,0.00368771,0.01397187,0.263547,0.09212275,0.07873756,0.21269879,0.23312034,0.20395488,0.26042202,0.077055,0.09554953,0.13914686,0.2168577,0.23256798,0.14842127,0.3077493,0.34890789,0.38409469,0.38096163,0.2164796,0.0879737,0.20112117,0.39312878,0.32647565,0.09431121,0.17240329,0.23395088,0.3421542,0.58645046,0.53318423,0.19682036,0.31822732,0.54824293,0.30776292,0.09385474,0.28232905,ADDITION
0.15690689,0.08368539,-0.03147209,-0.16107158,-0.09144497,-0.09500402,-0.0869942,0.20999864,0.27873746,0.07373131,0.17162268,0.08225705,0.06517947,0.06473852,-0.040379,0.00030659,0.00473974,0.01821538,0.26768896,0.09380706,0.08139745,0.21535169,0.23605525,0.20587601,0.2640782,0.07932819,0.09946053,0.14435956,0.22098303,0.23609605,0.15100291,0.31109115,0.35334608,0.38619751,0.38296613,0.21906197,0.09643053,0.20546518,0.39764515,0.33071741,0.09618521,0.17547038,0.23550276,0.34409082,0.58588362,0.534989,0.20394123,0.32436812,0.55049765,0.31033796,0.0958434,0.28472346,ADDITION
0.15853068,0.0845338,-0.03028767,-0.16061601,-0.09109624,-0.09628096,-0.08505798,0.21403657,0.28296676,0.07436459,0.17413887,0.08476801,0.06749493,0.0667775,-0.0400797,0.00197774,0.00582486,0.02235591,0.27172533,0.09580581,0.08417924,0.21786822,0.23869823,0.20746522,0.26745111,0.08146156,0.10318659,0.14937583,0.22501546,0.23975433,0.15379678,0.31423986,0.35750702,0.3879326,0.38447303,0.22110324,0.10466214,0.20955749,0.40206134,0.33491644,0.09818996,0.17859797,0.2368245,0.34588498,0.58457643,0.5358572,0.21051516,0.32998917,0.5522067,0.31281418,0.09780487,0.28712642,ADDITION
0.16015354,0.0853799,-0.02898924,-0.16005982,-0.09066523,-0.09746141,-0.08308645,0.2180683,0.28714556,0.07510665,0.17659424,0.08721646,0.06973545,0.06877802,-0.03970972,0.00364876,0.00691444,0.0263345,0.27567175,0.09813192,0.08705816,0.22024943,0.24105768,0.20874245,0.27052286,0.08342677,0.10667322,0.154137,0.2289508,0.24351975,0.15680186,0.31721869,0.36137718,0.38932943,0.38552189,0.22259015,0.11254711,0.21335815,0.40637285,0.33906636,0.10032856,0.18175858,0.23791969,0.34755829,0.58261549,0.53586519,0.21647461,0.33506158,0.55341661,0.31520614,0.09973476,0.2895301,ADDITION
0.16178356,0.08624241,-0.02758876,-0.15942529,-0.09016413,-0.0985594,-0.08113274,0.22207995,0.29129332,0.07597331,0.17896891,0.0895857,0.07188955,0.07072628,-0.03927595,0.00529202,0.00797824,0.03010451,0.2795496,0.10079044,0.09000342,0.22250123,0.24315102,0.209738,0.27329034,0.08520568,0.10987971,0.1585993,0.23278964,0.24736084,0.16001016,0.32005557,0.36495161,0.39042598,0.38616663,0.22353652,0.11998591,0.21684235,0.41057903,0.34316084,0.10260171,0.18492417,0.23879732,0.34913546,0.58010441,0.53511184,0.22177692,0.33957657,0.55418372,0.31753144,0.10162833,0.29192543,ADDITION
0.16343284,0.08714296,-0.02609848,-0.15873468,-0.08960874,-0.09959668,-0.07924709,0.2260627,0.29543632,0.07697678,0.18124743,0.09186219,0.07394995,0.07261252,-0.03878631,0.00688079,0.00898431,0.03363253,0.28338432,0.10377583,0.09297742,0.22463095,0.24500152,0.21048713,0.27576178,0.08679019,0.11278138,0.162733,0.23653513,0.25123674,0.16340362,0.32277763,0.36823168,0.39126289,0.38646945,0.22398239,0.12690473,0.22000051,0.41467562,0.34719175,0.10500387,0.18806721,0.23947048,0.35064021,0.57715416,0.53371203,0.22640535,0.34354448,0.55456811,0.31980377,0.10347603,0.2943005,ADDITION
0.16511536,0.0881049,-0.02452813,-0.15800704,-0.08901395,-0.10059834,-0.07747172,0.23001589,0.29960793,0.07813153,0.18342233,0.09403811,0.07591655,0.0744345,-0.03824559,0.00839374,0.00990491,0.03690109,0.28720587,0.10707587,0.09594178,0.22665112,0.24663992,0.21103306,0.27796102,0.08818507,0.11537118,0.1665265,0.24019518,0.25510225,0.16695839,0.32541367,0.37122932,0.39188617,0.38650191,0.22399384,0.13326067,0.22284061,0.41866383,0.35115215,0.10752745,0.19116294,0.23995769,0.35209736,0.57388335,0.53179437,0.23036963,0.34699601,0.55463552,0.32203832,0.10526861,0.29664347,ADDITION
0.16684699,0.08915091,-0.0228859,-0.15725917,-0.08839563,-0.10159202,-0.0758408,0.23394457,0.30384514,0.07945003,0.18549192,0.09610909,0.07779419,0.07619436,-0.03765863,0.00981377,0.01071441,0.03990602,0.29104427,0.11066978,0.09885647,0.22857641,0.24809955,0.21142168,0.27992138,0.0894044,0.1176568,0.16998108,0.243779,0.25890714,0.17064375,0.32799047,0.37396342,0.392342,0.3863368,0.22365564,0.13903938,0.22538365,0.42254457,0.35503554,0.11016217,0.19418898,0.24027972,0.35352948,0.5704084,0.52949113,0.23370101,0.34997651,0.55445093,0.3242479,0.10699674,0.29894289,JUNK
0.16864301,0.09030151,-0.02118167,-0.15650642,-0.087772,-0.10260989,-0.07438117,0.23785464,0.30818242,0.0809375,0.18745762,0.09807218,0.0795882,0.07789458,-0.03703296,0.01112526,0.01138702,0.04265289,0.29492593,0.11452512,0.10167869,0.23041834,0.24941064,0.21169424,0.28167802,0.0904672,0.11965746,0.17310579,0.24729279,0.26259685,0.17441972,0.33052805,0.37645367,0.39266905,0.3860392,0.22306283,0.14425041,0.22765754,0.42630866,0.35883188,0.11289033,0.19712406,0.24045616,0.35495082,0.56683159,0.52692831,0.23644677,0.35253981,0.55406952,0.32643539,0.10864631,0.30118439,JUNK
0.17051701,0.09157395,-0.01942677,-0.15576181,-0.08716131,-0.10368529,-0.07311284,0.24175605,0.31265011,0.08259269,0.1893224,0.09992609,0.08130411,0.07953753,-0.03637742,0.01231545,0.01189825,0.0451546,0.29887211,0.11859912,0.10436549,0.23218465,0.25059909,0.21188474,0.28326529,0.0913955,0.1214015,0.17591475,0.25073832,0.26611218,0.17823911,0.33303434,0.37872106,0.392896,0.38566321,0.22231406,0.1489239,0.2296945,0.42993709,0.36252704,0.11568758,0.19994907,0.24050428,0.35636616,0.56323677,0.52421951,0.23866513,0.35474354,0.55353397,0.32859302,0.11019842,0.30334979,JUNK
0.17247887,0.09298066,-0.01763265,-0.15503524,-0.08658057,-0.10484896,-0.07204797,0.24565729,0.31727278,0.08440935,0.19109125,0.10167086,0.08294727,0.08112528,-0.03570111,0.01337513,0.01222683,0.04742914,0.30289793,0.12284175,0.10687724,0.23388048,0.25168511,0.21202058,0.28471574,0.09221262,0.12292254,0.17842498,0.25411338,0.26939443,0.18205088,0.3355096,0.38078684,0.39304301,0.38525084,0.22150505,0.15310518,0.23152813,0.43340704,0.36610463,0.1185247,0.20264661,0.24043901,0.35777164,0.55968928,0.52146184,0.24041928,0.35664517,0.55287576,0.33070588,0.11163286,0.30542055,JUNK
0.17453378,0.09452859,-0.01581327,-0.15433531,-0.08604588,-0.10612976,-0.07119272,0.2495625,0.32206467,0.08637265,0.1927681,0.10330529,0.08451992,0.08265641,-0.03501591,0.01429668,0.01235332,0.04949506,0.3070097,0.12719573,0.10917702,0.23550543,0.25268075,0.21211803,0.28605413,0.09293912,0.12425499,0.18065117,0.25740889,0.27238646,0.18580028,0.33794397,0.38266915,0.39311743,0.38482672,0.2207197,0.15684712,0.23318794,0.4366869,0.36954412,0.12136755,0.20519987,0.24026944,0.35915244,0.55622947,0.51872945,0.24177188,0.3582961,0.5521102,0.33274868,0.11292553,0.30737582,JUNK
0.17668289,0.096219,-0.01398643,-0.15366943,-0.08557257,-0.10755403,-0.07055075,0.25347301,0.32702643,0.08845747,0.19435343,0.10482626,0.08601948,0.08412465,-0.03433573,0.01507259,0.0122589,0.05136834,0.31120297,0.13159576,0.11123095,0.23705108,0.25358683,0.21217962,0.28729358,0.09358975,0.12543048,0.18260185,0.26060727,0.27503282,0.18942879,0.34031364,0.38437864,0.39311188,0.38439608,0.22002402,0.16020332,0.23469549,0.43973437,0.37281853,0.12417369,0.20759094,0.23999815,0.36048025,0.55287117,0.51607031,0.2427797,0.35973722,0.55123442,0.33468354,0.11404704,0.30919114,JUNK
0.17892198,0.09804673,-0.01217129,-0.15304261,-0.0851727,-0.10914164,-0.07012203,0.25738353,0.33214572,0.0906325,0.19584575,0.10622905,0.08744005,0.08552051,-0.03367496,0.0156974,0.01192855,0.05306153,0.31546444,0.13597402,0.11301162,0.23850428,0.25439593,0.21219899,0.28843859,0.09417405,0.12647507,0.18428074,0.26368544,0.27728283,0.1928793,0.34258613,0.3859193,0.39301002,0.38394922,0.21946388,0.16322412,0.23606455,0.44250739,0.37589806,0.12689875,0.2098019,0.23962264,0.36171898,0.54960853,0.5135088,0.24349135,0.36099845,0.55023289,0.33646816,0.11496779,0.31084105,JUNK
0.18124253,0.10000108,-0.01038773,-0.15245821,-0.08485489,-0.11090585,-0.06990402,0.26128271,0.33739752,0.09286038,0.19724026,0.10750779,0.08877256,0.08683164,-0.0330472,0.01616701,0.0113512,0.05458272,0.31977215,0.14026178,0.11449839,0.23984724,0.25509286,0.21216109,0.28948414,0.09469582,0.12740797,0.18568565,0.26661512,0.27909446,0.19609816,0.34471953,0.38728839,0.39278737,0.38346294,0.21906349,0.16595215,0.23730013,0.444965,0.37874973,0.12949584,0.21181482,0.239135,0.36282539,0.54641753,0.51104689,0.24394637,0.36209723,0.549079,0.33805624,0.11565736,0.31229922,JUNK
0.1836316,0.10206661,-0.0086571,-0.15191823,-0.08462442,-0.11285389,-0.06989405,0.26515374,0.34274271,0.09509801,0.19852841,0.10865461,0.09000505,0.08804319,-0.03246482,0.0164784,0.01051918,0.05593488,0.32409626,0.14439207,0.11567734,0.24105775,0.25565568,0.21204442,0.29041675,0.09515308,0.12823988,0.18680966,0.26936406,0.2804333,0.19903664,0.3466658,0.38847467,0.39241403,0.38290358,0.21882494,0.16841975,0.23839843,0.44707021,0.38133654,0.13191733,0.2136105,0.23852205,0.36375144,0.54326069,0.50866753,0.24417457,0.36303902,0.54773837,0.3394008,0.11608557,0.31353882,JUNK
0.18607363,0.10422496,-0.00699953,-0.15142296,-0.08448253,-0.11498591,-0.07008829,0.26897612,0.34813157,0.09729858,0.19969954,0.10966124,0.09112406,0.08913954,-0.03193789,0.01663003,0.00942963,0.05711738,0.3284013,0.14830235,0.11654182,0.24211107,0.25605881,0.21182385,0.29121682,0.09553986,0.12897389,0.18764277,0.27189863,0.28127569,0.20165336,0.34837234,0.38946036,0.39185828,0.38223177,0.21873173,0.17064837,0.23934913,0.4487932,0.38362029,0.13411674,0.21516982,0.23776747,0.36444771,0.54009372,0.50634009,0.24419838,0.36381957,0.5461731,0.3404575,0.11622362,0.31453282,JUNK
0.18855137,0.10645573,-0.00543234,-0.15097012,-0.08442506,-0.11729366,-0.07048193,0.27272582,0.35350716,0.09941653,0.20074253,0.11052062,0.0921177,0.09010755,-0.03147028,0.0166241,0.00808704,0.05812842,0.33264908,0.15193819,0.1170935,0.24298392,0.25627726,0.21147671,0.29186496,0.09584939,0.1296072,0.18817718,0.27418759,0.28160906,0.20391685,0.34978902,0.39022315,0.39109302,0.38141012,0.2187541,0.17265071,0.24013975,0.45012003,0.38556433,0.13605303,0.21647546,0.23685409,0.36486885,0.53687418,0.50402761,0.24403581,0.36442888,0.54435015,0.34119153,0.11604844,0.31525776,JUNK
0.19104819,0.10873781,-0.00396797,-0.15055417,-0.08444241,-0.1197614,-0.07106697,0.27637991,0.35880828,0.10141134,0.20164798,0.11122794,0.09297774,0.09093905,-0.03105931,0.01646715,0.00650405,0.05896751,0.33680168,0.15525603,0.11734316,0.24365681,0.25628996,0.21098703,0.29234597,0.09607703,0.13013282,0.188411,0.27620533,0.28143352,0.20580685,0.35086951,0.39073738,0.39010024,0.38040867,0.21885499,0.17443414,0.24075904,0.4510569,0.38713509,0.13769209,0.21751192,0.23576599,0.36497712,0.5335691,0.50169426,0.24370418,0.36485577,0.54224616,0.34158191,0.11554455,0.31569466,JUNK
0.19354834,0.11105115,-0.00261466,-0.15016858,-0.0845222,-0.12236919,-0.07183482,0.27991644,0.3639704,0.10324375,0.20240717,0.11178025,0.09369893,0.09162929,-0.03069745,0.01616736,0.00469793,0.05963626,0.34082171,0.15822139,0.11730644,0.2441116,0.25607863,0.21034397,0.29264736,0.09621986,0.13054128,0.18834783,0.2779308,0.28075764,0.20731212,0.35157067,0.39097443,0.38886937,0.3792049,0.21899492,0.17600259,0.24119815,0.45162261,0.38830069,0.13900559,0.21826524,0.234488,0.36474246,0.53015363,0.49930775,0.24322258,0.36509031,0.53984678,0.34161815,0.11470155,0.3158268,JUNK
0.19604056,0.11337885,-0.00137245,-0.1498023,-0.08464672,-0.12509061,-0.07277261,0.2833204,0.36893317,0.10488317,0.20301674,0.11218031,0.09428328,0.09218254,-0.03036763,0.01573951,0.00269512,0.0601432,0.3446773,0.160813,0.11700594,0.24433678,0.25563398,0.20954886,0.29276836,0.0962835,0.13082655,0.18800461,0.27935308,0.27960199,0.2084333,0.3518576,0.39090824,0.38740373,0.37779275,0.21914181,0.1773611,0.24145673,0.4518564,0.38903606,0.13997428,0.21872722,0.23301022,0.36414766,0.52662331,0.49684981,0.24262069,0.36513054,0.53715515,0.34130645,0.11351733,0.31564349,JUNK
0.19851576,0.11570578,-0.00023125,-0.14943939,-0.08479203,-0.12789202,-0.0738606,0.2865842,0.37364444,0.10631292,0.20348245,0.11243793,0.09474374,0.09261478,-0.03004293,0.01520716,0.00053365,0.06050752,0.34834433,0.16302583,0.11647271,0.24433261,0.25496057,0.20862073,0.29272553,0.09628583,0.13098745,0.18741624,0.2804749,0.27799934,0.20918366,0.35171258,0.39051962,0.38572633,0.37618685,0.2192781,0.17852797,0.24154863,0.45182547,0.38932702,0.14059478,0.21889526,0.23132987,0.36319408,0.52299577,0.49432108,0.24194178,0.36498758,0.53419763,0.34067631,0.11200558,0.31514418,JUNK
0.2009704,0.11802057,0.0008254,-0.14906329,-0.0849342,-0.13074118,-0.07507626,0.28970703,0.37805781,0.10752191,0.20381415,0.11256673,0.09509879,0.09294763,-0.0296919,0.01459582,-0.00174545,0.06075648,0.35180387,0.1648635,0.11573816,0.24410237,0.25406981,0.20758709,0.29254362,0.09625196,0.13102846,0.18662953,0.28130698,0.27598739,0.20958251,0.35112298,0.38979271,0.38386914,0.37441456,0.21940075,0.17953055,0.24149704,0.45160303,0.38916463,0.14086881,0.21877179,0.22944847,0.36189356,0.51930237,0.49173701,0.24124098,0.3646833,0.53101426,0.33976683,0.11018543,0.31433162,JUNK
0.20340492,0.12031569,0.00182423,-0.14865187,-0.08504482,-0.13360074,-0.07638827,0.29270199,0.38214055,0.10851441,0.20403239,0.11258849,0.0953778,0.09321485,-0.02927469,0.01393973,-0.00409162,0.06092997,0.35504732,0.16634369,0.11483994,0.24366085,0.25298664,0.20649225,0.29226625,0.0962208,0.13096441,0.18571061,0.28187397,0.27361193,0.2096587,0.35009146,0.38872126,0.38188127,0.37252483,0.21953042,0.18041368,0.24134235,0.45128277,0.3885527,0.14081325,0.21836725,0.22737643,0.3602756,0.51559788,0.48913619,0.24058881,0.36425799,0.5276686,0.33863664,0.10808963,0.31321946,JUNK
0.2058254,0.12258743,0.00279711,-0.14818281,-0.08509694,-0.13643594,-0.07776255,0.29558915,0.38587025,0.10930184,0.20416294,0.11252878,0.0956158,0.09345489,-0.02874987,0.01327543,-0.00645203,0.06107604,0.35807213,0.16749072,0.11381461,0.24302639,0.2517426,0.20538731,0.29194549,0.09623867,0.13081858,0.18473618,0.2822082,0.27092028,0.20944393,0.34862888,0.38730553,0.37981829,0.37057707,0.21970554,0.1812367,0.24113539,0.4509581,0.3875016,0.14045081,0.21769759,0.22512916,0.35837927,0.51194698,0.48657158,0.24006642,0.36376446,0.52423602,0.33735067,0.1057569,0.31182486,JUNK
0.20824024,0.12483504,0.00378387,-0.14763087,-0.08506216,-0.13921078,-0.07915533,0.29840067,0.3892391,0.10990921,0.20424014,0.11241886,0.09585541,0.09371433,-0.02807184,0.01264575,-0.00876805,0.06125229,0.36088482,0.16833839,0.1127016,0.24222606,0.25037888,0.20433448,0.29164687,0.09636182,0.13062398,0.18379621,0.28235227,0.26796404,0.20897466,0.34676117,0.38555667,0.37774593,0.36864525,0.21998537,0.18207617,0.24094026,0.45073113,0.38603348,0.13981517,0.21678624,0.22272976,0.35625657,0.50842875,0.48411295,0.23976399,0.36327103,0.52080899,0.3359856,0.10323697,0.31017455,JUNK
0.21066056,0.12705997,0.0048261,-0.1469727,-0.084916,-0.14189342,-0.08052278,0.30117235,0.39224917,0.1103655,0.20430133,0.1122914,0.09614085,0.09403957,-0.02719878,0.01209282,-0.01098304,0.06151935,0.36349574,0.16892219,0.11153673,0.24128732,0.24893872,0.20339592,0.29143783,0.09664805,0.13041928,0.18298301,0.28235188,0.26479125,0.20828496,0.3445175,0.3834908,0.37572837,0.36680514,0.22044009,0.18301839,0.24082547,0.45069236,0.38417628,0.13894281,0.21566032,0.22020414,0.35396349,0.50512147,0.48183548,0.23977235,0.36285269,0.51748341,0.33461657,0.10058273,0.30829838,REST
0.21309797,0.129265,0.00596615,-0.14618555,-0.08463663,-0.14445463,-0.08181594,0.30394724,0.39491332,0.1107054,0.20438685,0.11217997,0.0965174,0.09447705,-0.0260923,0.01165924,-0.01304214,0.06193945,0.36592001,0.16927892,0.11035351,0.24023989,0.2474671,0.20263295,0.29138711,0.09715594,0.1302485,0.18238944,0.2822555,0.26144743,0.20740747,0.34193307,0.38113204,0.37382728,0.36513293,0.22114818,0.18415779,0.2408628,0.45092198,0.38196483,0.13787439,0.21435104,0.21758179,0.3515588,0.50210071,0.47981739,0.2401787,0.36258957,0.51435763,0.33331612,0.09785031,0.30622956,REST
0.21556394,0.13145311,0.00724516,-0.14524956,-0.08420699,-0.14686902,-0.08298682,0.30676919,0.39725199,0.11096569,0.20453644,0.11211655,0.0970274,0.09506894,-0.02472188,0.01138518,-0.01489454,0.06257126,0.36817434,0.16944383,0.10918154,0.23911206,0.24600615,0.20210125,0.29155859,0.0979392,0.13015662,0.18210167,0.28211027,0.25797382,0.20637047,0.33904687,0.37850887,0.37209705,0.36369875,0.22218707,0.18558906,0.24112093,0.45148346,0.37943879,0.13665088,0.21289141,0.21489297,0.34910008,0.49943304,0.47813183,0.24105769,0.36256057,0.51152587,0.33215001,0.09509693,0.30400336,REST
0.21806656,0.13362648,0.00869798,-0.14415078,-0.08361676,-0.14911744,-0.08399127,0.30967888,0.39929023,0.11118005,0.20478569,0.11212806,0.09770666,0.09584849,-0.02306841,0.01130439,-0.01649826,0.0634644,0.37027472,0.16944645,0.10804399,0.23792709,0.24459116,0.20184398,0.29200339,0.09904057,0.13018513,0.1821911,0.28195801,0.25440267,0.20519546,0.33589682,0.37565082,0.37057802,0.36255896,0.22362365,0.1873986,0.24165882,0.45241469,0.37663862,0.13531093,0.21131364,0.2121664,0.34663802,0.49716696,0.47683859,0.24246277,0.36283609,0.5090704,0.33116972,0.09237639,0.30165425,REST
0.22061096,0.13578609,0.01035203,-0.1428813,-0.08286212,-0.15118547,-0.08479083,0.31271002,0.40105492,0.11137864,0.20516409,0.11223537,0.09858195,0.09683821,-0.021126,0.01144305,-0.01782158,0.06465541,0.37223524,0.16931036,0.10695823,0.23670287,0.24324872,0.20188949,0.29275724,0.10048828,0.13036864,0.1827096,0.28183267,0.25075939,0.20389743,0.33251891,0.3725872,0.36929461,0.36175293,0.22550628,0.18965715,0.24252129,0.45372811,0.37360534,0.13388939,0.2096483,0.2094278,0.34421456,0.49533015,0.47597867,0.2444195,0.3634724,0.50705761,0.33041108,0.08973753,0.29921472,REST
0.223197,0.13793096,0.01222473,-0.14144012,-0.08194615,-0.15306459,-0.08535632,0.31588656,0.4025726,0.11158463,0.20569128,0.11245103,0.0996682,0.09804702,-0.01890267,0.01181788,-0.01884427,0.06616342,0.37406623,0.16905068,0.10593517,0.23544928,0.24199386,0.20224792,0.29383543,0.10229191,0.13073072,0.18368408,0.28175777,0.24706094,0.20248391,0.32894239,0.36934438,0.36825299,0.36129916,0.22785629,0.19241145,0.24373384,0.45540819,0.37037718,0.13241446,0.20792094,0.20669816,0.34185934,0.49392581,0.47556856,0.2469193,0.36450586,0.50553346,0.32989112,0.08722114,0.29671288,REST
0.2258191,0.14005746,0.01432141,-0.13983552,-0.08087994,-0.1547526,-0.08566909,0.31921825,0.40386653,0.11181122,0.2063753,0.11277737,0.10096648,0.09946825,-0.01642247,0.01243363,-0.01956069,0.06798699,0.37577274,0.16867359,0.10497797,0.2341675,0.2408281,0.20290922,0.29522949,0.10443939,0.13128032,0.18511255,0.28174442,0.24331461,0.20095478,0.32519329,0.36594453,0.36743939,0.36119229,0.23066163,0.19567734,0.24529848,0.45741096,0.36698803,0.13090611,0.20615116,0.2039924,0.33958817,0.49293065,0.47559658,0.2499169,0.36594841,0.50452012,0.32960701,0.08485827,0.29417172,REST
0.22846575,0.14215985,0.01663489,-0.13808334,-0.07968,-0.156251,-0.08572408,0.32270062,0.40495589,0.11206314,0.20721218,0.11320724,0.10246398,0.10108092,-0.0137234,0.01328411,-0.01997812,0.07010314,0.37735564,0.16817774,0.10408374,0.23285143,0.23974104,0.20384479,0.29690892,0.10689708,0.13201039,0.18696451,0.28179172,0.23952106,0.19930421,0.32129183,0.36240315,0.36682284,0.3614054,0.23387472,0.19943613,0.24719429,0.45967063,0.36346731,0.12937693,0.20435143,0.2013195,0.33740351,0.49229833,0.47602332,0.25332671,0.36778638,0.50401706,0.32953858,0.0826701,0.29160818,REST
0.23111925,0.14423028,0.01914488,-0.13620859,-0.07836957,-0.15756716,-0.08553161,0.32631204,0.40585288,0.11233404,0.20818456,0.11372267,0.10413264,0.10284843,-0.01085691,0.0143503,-0.02011864,0.0724659,0.37880981,0.16755342,0.10324176,0.23148684,0.23870879,0.20500709,0.29881915,0.10960843,0.13289553,0.18917906,0.28188565,0.23567265,0.19752091,0.31725109,0.35872793,0.36635566,0.36188909,0.23740871,0.2036301,0.24937458,0.46209997,0.35983717,0.1278314,0.20252603,0.19868089,0.33529386,0.49195978,0.47677988,0.25702444,0.36997703,0.50399923,0.32964867,0.08066631,0.28903189,REST
0.23375767,0.14625944,0.02181805,-0.13424397,-0.07697702,-0.15871373,-0.08511806,0.33001313,0.40656319,0.11260635,0.20926091,0.11429545,0.10593029,0.10472009,-0.00788691,0.01560101,-0.02001873,0.07500765,0.38012537,0.16678387,0.10243408,0.23005123,0.23769584,0.20633096,0.30088371,0.11249615,0.13389297,0.19166704,0.28199938,0.23175475,0.19558947,0.31307772,0.35491818,0.36597508,0.36257368,0.24114005,0.20816305,0.25176895,0.46459264,0.3561109,0.12626447,0.20067042,0.19607055,0.33323389,0.4918257,0.47777051,0.2608512,0.3724497,0.5044176,0.32988316,0.0788427,0.28644359,REST
0.23635635,0.14823747,0.02460898,-0.132229,-0.07553434,-0.15970699,-0.0845235,0.33374909,0.40708724,0.1128545,0.21039885,0.11488886,0.10780319,0.10663462,-0.00488487,0.01699466,-0.01972632,0.07764249,0.38128933,0.16584761,0.10163699,0.22851714,0.23665762,0.20773961,0.30300951,0.11546613,0.13494359,0.19431677,0.28209639,0.22774614,0.19349237,0.3087725,0.35096607,0.36560968,0.3633754,0.24491371,0.21290305,0.25428692,0.46703413,0.35229462,0.12466358,0.19877215,0.19347645,0.33118829,0.49179497,0.47887886,0.26462051,0.37510949,0.50520462,0.33017832,0.07718362,0.28383696,REST
0.23888747,0.15015481,0.02746465,-0.13020736,-0.07407477,-0.16056564,-0.08380061,0.33745423,0.40742165,0.11304857,0.21154676,0.11546025,0.10968927,0.1085246,-0.00192564,0.01848297,-0.01929766,0.08027071,0.38228768,0.16472194,0.10082323,0.22685616,0.23554483,0.20915031,0.30509442,0.11841323,0.13597561,0.19700103,0.28213355,0.22362383,0.19121298,0.30433634,0.34685782,0.36518547,0.36420336,0.24855174,0.21768922,0.25682423,0.46931085,0.34838781,0.12301156,0.19681196,0.19088218,0.32911557,0.49176261,0.47997546,0.26812679,0.37784302,0.50628018,0.33046651,0.07566424,0.28119972,REST
0.24132356,0.1520033,0.03032254,-0.1282278,-0.07263409,-0.161314,-0.08301739,0.34104976,0.40755752,0.11315078,0.21264422,0.11596085,0.11151814,0.11031649,0.00091253,0.02000848,-0.01879898,0.0827818,0.38310474,0.16338103,0.09995892,0.22503611,0.23430319,0.21047379,0.30702695,0.12122389,0.13690695,0.19957982,0.28206038,0.21935911,0.18873328,0.29976374,0.34257367,0.36462465,0.3649596,0.25185996,0.22233684,0.25926456,0.47130564,0.34438124,0.12128275,0.19476369,0.18826587,0.3269664,0.4916192,0.48092082,0.27115619,0.38052112,0.50754905,0.33067304,0.07424685,0.27851117,REST
0.24363744,0.15377626,0.03311853,-0.12633778,-0.07124444,-0.16197591,-0.08224629,0.34445691,0.4074862,0.1131259,0.21363033,0.11634244,0.11321961,0.11194073,0.00355815,0.02151425,-0.01829686,0.08506396,0.3837283,0.16180257,0.09901015,0.22303028,0.23288228,0.21162787,0.30870238,0.12378789,0.13765258,0.20191488,0.28182778,0.21492539,0.18603957,0.29505196,0.3380926,0.36385912,0.36555383,0.25464496,0.22665164,0.26149276,0.47292009,0.34026384,0.11945245,0.19259848,0.18560544,0.32469332,0.4912681,0.48158079,0.27350065,0.38301122,0.50891632,0.33073124,0.07289002,0.27574944,REST
0.24580519,0.15546931,0.03578742,-0.12458382,-0.06993666,-0.16257738,-0.08156407,0.34759459,0.40719977,0.11293921,0.21444331,0.11655684,0.11472469,0.11333206,0.00594664,0.02294268,-0.01785882,0.08700787,0.38414839,0.15996671,0.09794104,0.22081485,0.23123473,0.21253708,0.31002364,0.12600149,0.13812801,0.20387338,0.28138712,0.21029504,0.18312043,0.29019767,0.33339313,0.36282885,0.36590391,0.25672251,0.23043774,0.26339689,0.47406757,0.33601964,0.11749372,0.19028488,0.18287787,0.32224947,0.49062446,0.48183021,0.27496681,0.38518128,0.51028663,0.3305783,0.07154581,0.2728878,REST
0.24780655,0.15708128,0.03826686,-0.12300848,-0.06873777,-0.16314609,-0.08105004,0.35038617,0.40669215,0.11256013,0.21502553,0.11655957,0.11596984,0.11443422,0.0080247,0.02423947,-0.01754975,0.0885139,0.38435921,0.15785745,0.09671556,0.21837132,0.22932066,0.21313824,0.31090885,0.12777495,0.1382554,0.20533693,0.28069419,0.20544133,0.17996779,0.28519982,0.32845467,0.36148638,0.36594197,0.25793123,0.2335096,0.26487607,0.47468066,0.33162954,0.1153785,0.18779173,0.18006127,0.31959182,0.48962164,0.48156211,0.27539086,0.38690868,0.5115695,0.33016017,0.07016273,0.2698983,REST
0.24962696,0.15861379,0.04049995,-0.12164774,-0.06766926,-0.16370867,-0.08077672,0.35276645,0.40596148,0.11196528,0.21532668,0.11631227,0.11690073,0.11520434,0.0097541,0.02535746,-0.01742664,0.08949845,0.38436019,0.1554635,0.09529962,0.21568926,0.22710977,0.2133854,0.31129825,0.1290389,0.13797019,0.20621006,0.27971235,0.20034026,0.17657717,0.28005886,0.32326126,0.35980046,0.3656204,0.25814581,0.23570733,0.26584995,0.47471651,0.3270748,0.11308079,0.18508999,0.17713618,0.31668392,0.48821634,0.48069587,0.27464584,0.38809061,0.51268589,0.32943526,0.0686893,0.26675314,REST
0.25125846,0.16007166,0.0424376,-0.12053057,-0.06674805,-0.16429202,-0.08080894,0.35468245,0.4050101,0.11113827,0.21530616,0.1157849,0.11747481,0.11561448,0.01111226,0.02625724,-0.01753785,0.08989868,0.38415614,0.15277794,0.09366157,0.21276444,0.22458246,0.21325046,0.31115648,0.12974817,0.13722575,0.20642391,0.27841383,0.19497,0.17294641,0.27477694,0.31780121,0.35775548,0.36491299,0.25728634,0.23690462,0.26626167,0.47415367,0.32233635,0.11057476,0.18215486,0.17408681,0.31349629,0.48638907,0.47918251,0.27265343,0.38864979,0.51356977,0.32837328,0.06707392,0.26342601,REST
0.25269863,0.16146208,0.04404269,-0.11967517,-0.06598308,-0.16491885,-0.08119726,0.3561005,0.40384737,0.11007577,0.2149376,0.1149588,0.11766633,0.11565652,0.01209655,0.02691325,-0.01791599,0.08967839,0.3837584,0.14980167,0.09177729,0.20960374,0.22173339,0.21272962,0.31048062,0.12988836,0.13599885,0.20594467,0.27678409,0.18931527,0.1690789,0.26936173,0.31207275,0.35535711,0.36382186,0.25532845,0.23702079,0.26608586,0.4730022,0.31740004,0.1078411,0.17896895,0.17090397,0.3100107,0.48415148,0.4770118,0.26939034,0.38854298,0.51417768,0.3269625,0.0652722,0.25989687,REST
0.25395119,0.16279413,0.04528929,-0.11909049,-0.06537839,-0.16561,-0.08197659,0.357007,0.40248686,0.10878224,0.21420729,0.11382535,0.11746447,0.11533906,0.0127207,0.02731152,-0.01858015,0.08882812,0.38318205,0.14653836,0.08962741,0.20622009,0.21856853,0.21183838,0.30929521,0.12947372,0.13429083,0.20477143,0.27481923,0.18336356,0.1649788,0.2638202,0.30607983,0.35262564,0.36237171,0.25230375,0.23602475,0.26532695,0.47129205,0.31225404,0.104862,0.17552096,0.16758294,0.30621687,0.48153839,0.47420946,0.26489034,0.38776177,0.51448351,0.32520321,0.0632444,0.25614893,REST
0.25502586,0.16407813,0.04616281,-0.11877621,-0.06493346,-0.16638562,-0.08316544,0.35740626,0.40094486,0.10726836,0.21311417,0.11238597,0.11687309,0.1146861,0.01301282,0.02744927,-0.0195361,0.08736578,0.38244453,0.14299336,0.08719853,0.20262982,0.21510354,0.21060847,0.30764917,0.12854624,0.13212897,0.2029354,0.27252522,0.17710705,0.16065061,0.25815681,0.29983348,0.34959248,0.36060667,0.24830064,0.23393816,0.26401877,0.46906722,0.30688834,0.10162044,0.17180683,0.16412343,0.30211022,0.47860339,0.47083595,0.2592448,0.38633391,0.51447767,0.32310396,0.06095532,0.25216904,REST
0.25593665,0.16532448,0.04666358,-0.1187199,-0.06464043,-0.16725871,-0.08475994,0.35732618,0.39924222,0.10555696,0.21167342,0.11065468,0.11591501,0.11374037,0.01301873,0.02733963,-0.02076964,0.08533908,0.38156709,0.13917755,0.08448872,0.19885792,0.21136644,0.20909268,0.30562124,0.127178,0.12956774,0.2005039,0.26992205,0.17054626,0.15610248,0.25238001,0.29335329,0.34630492,0.35859451,0.24346375,0.23083845,0.26222748,0.46639651,0.30130103,0.09810756,0.16783226,0.16053279,0.29769748,0.47542384,0.46698833,0.25260347,0.38432559,0.51417428,0.32068968,0.05838264,0.24795343,REST
0.25670108,0.16654275,0.04680356,-0.11890081,-0.06448759,-0.168238,-0.08673693,0.3568117,0.39739925,0.10367503,0.20991075,0.10865428,0.1146264,0.11255651,0.01279397,0.02700674,-0.02225217,0.0828201,0.38057053,0.13510194,0.08150373,0.19493014,0.2073922,0.20735534,0.30330804,0.12546249,0.1266854,0.19757152,0.2670384,0.16368614,0.15134193,0.24649596,0.28666431,0.3428165,0.3564162,0.23798403,0.22685385,0.26004508,0.46335822,0.29549414,0.09431591,0.16360995,0.15682241,0.29299009,0.47208872,0.46278986,0.24515861,0.38183722,0.51360399,0.31799176,0.05551262,0.24350385,REST
0.2573384,0.16774067,0.04660473,-0.11929114,-0.06446059,-0.16932856,-0.08905469,0.35592261,0.39543489,0.10165258,0.20786195,0.10641539,0.11305466,0.11119807,0.01240186,0.02648396,-0.02394232,0.07990173,0.37947369,0.13077733,0.07825795,0.19087169,0.20322046,0.20546846,0.30081922,0.12351024,0.12358034,0.19425496,0.2639102,0.15653737,0.14637637,0.24050632,0.27979556,0.33918369,0.35416099,0.23208806,0.22215632,0.25758383,0.46003574,0.28947282,0.09023998,0.15915962,0.15300724,0.28800404,0.46869311,0.45838407,0.23714098,0.37899742,0.51281101,0.31504673,0.05234044,0.23882754,REST
0.25786829,0.16892365,0.04609944,-0.11985628,-0.06454163,-0.17052872,-0.09165404,0.35473174,0.39336517,0.09952217,0.20557113,0.10397533,0.11125746,0.1097352,0.01191031,0.02581412,-0.02578541,0.07669414,0.37829337,0.12621574,0.07477602,0.18670776,0.19889475,0.20350929,0.29827255,0.12144401,0.12036733,0.19068854,0.26058033,0.14911771,0.14121501,0.23441036,0.27277908,0.33546463,0.35192263,0.22602725,0.21695435,0.25497144,0.45651743,0.28324747,0.08587838,0.15450794,0.14910659,0.2827594,0.4653351,0.45392779,0.22880988,0.37595722,0.51185256,0.31189623,0.04887226,0.23393813,REST
0.25830922,0.17009397,0.04532819,-0.12055694,-0.06471036,-0.171829,-0.09446216,0.35332072,0.39120328,0.09731798,0.20308787,0.10137694,0.10929973,0.1082411,0.01138883,0.02504701,-0.02771576,0.07331917,0.3770431,0.12143066,0.07109267,0.18246184,0.19446091,0.20155694,0.29578799,0.11939231,0.11717124,0.18701775,0.25709677,0.14145325,0.13586953,0.22820652,0.26564837,0.33171737,0.3497943,0.22006392,0.21148218,0.25234455,0.45289406,0.27683309,0.08123473,0.14968659,0.14514291,0.27728105,0.46211135,0.44958305,0.2204397,0.37288231,0.51079589,0.30858636,0.04512643,0.22885631,REST
0.25867853,0.17125054,0.04433665,-0.12135239,-0.0649464,-0.17321502,-0.09739412,0.35177094,0.38895535,0.09507103,0.2004634,0.09866464,0.10724859,0.10678616,0.01090256,0.02423506,-0.02966169,0.06990327,0.37573105,0.11643488,0.06724977,0.17815313,0.18996206,0.19968544,0.29347777,0.11748034,0.11411954,0.18338983,0.25350875,0.13357581,0.1303526,0.22188963,0.25843507,0.32799399,0.34786046,0.21445432,0.20598574,0.24983931,0.44925189,0.27024758,0.07631544,0.14473127,0.14113954,0.27159482,0.45910853,0.44550544,0.21230474,0.36994198,0.50971293,0.3051635,0.04113022,0.22360636,REST
0.2589905,0.17238884,0.04317196,-0.12220311,-0.065231,-0.17466877,-0.10036045,0.35016328,0.38661999,0.09280501,0.19774665,0.09588173,0.10516913,0.10543267,0.0105079,0.02342905,-0.03155157,0.0665705,0.37435886,0.1112396,0.06329384,0.17379326,0.1854367,0.19795789,0.29143775,0.11582262,0.1113352,0.17994472,0.24986348,0.12552184,0.12467755,0.21544853,0.25116622,0.32433602,0.34618983,0.20943366,0.20070966,0.24758218,0.44566411,0.26350912,0.07112785,0.13967799,0.13711873,0.26572546,0.45639572,0.44183478,0.20466737,0.36729896,0.50867325,0.30166954,0.03691698,0.21821439,REST
0.25925604,0.17350166,0.04188583,-0.12306812,-0.06554222,-0.1761625,-0.10326693,0.34857526,0.38419273,0.09054387,0.19498695,0.09307339,0.10312629,0.10423815,0.01025563,0.02268226,-0.03330838,0.06344098,0.37292641,0.10586137,0.05927974,0.16939366,0.18092237,0.19643122,0.28975141,0.11452323,0.10893337,0.17681625,0.24620992,0.11733741,0.11886411,0.20887555,0.24386829,0.32078174,0.34484017,0.20520887,0.19588953,0.2456903,0.44220495,0.25664172,0.06568723,0.13456607,0.13310523,0.25970256,0.45403185,0.43869448,0.19776946,0.36510584,0.50775039,0.29815045,0.03253134,0.21271233,REST
0.2594817,0.17457721,0.04052721,-0.12391155,-0.06586077,-0.1776654,-0.10602266,0.34707409,0.38166183,0.08830538,0.1922278,0.09028029,0.10117684,0.10324715,0.01018366,0.02204214,-0.03486096,0.06062175,0.37142798,0.10031796,0.05526464,0.16496046,0.17645,0.19514818,0.28847811,0.11366508,0.10701083,0.1741202,0.24259251,0.10907281,0.11293513,0.20216285,0.23656189,0.31735918,0.34384549,0.20193951,0.19173992,0.24425615,0.43893558,0.24966981,0.06001308,0.12943278,0.12912197,0.25355539,0.45205417,0.43617821,0.19182143,0.3634955,0.50701374,0.29464766,0.02802426,0.20713282,REST
0.25967157,0.17560308,0.0391429,-0.12470294,-0.06617067,-0.17914478,-0.10854479,0.34571359,0.37901127,0.08609843,0.18950483,0.08753695,0.09936915,0.10248947,0.01031512,0.02154841,-0.03614718,0.05820258,0.36985382,0.09462823,0.05130487,0.16049336,0.17204268,0.19413441,0.28764966,0.11330634,0.1056419,0.17194933,0.23904933,0.10078066,0.10691578,0.19530046,0.22926155,0.31408349,0.34322035,0.19973411,0.18843274,0.24334782,0.43590137,0.24261677,0.05412777,0.12431297,0.1251891,0.24731214,0.4504759,0.43434495,0.18698102,0.36256397,0.50651866,0.29119685,0.02344867,0.20150805,REST
0.25982672,0.17656603,0.03777705,-0.12541541,-0.06645523,-0.18056315,-0.11075712,0.34453449,0.37622306,0.08393036,0.18684815,0.0848748,0.09774204,0.10198352,0.01066342,0.02123615,-0.03711006,0.056255,0.368193,0.08881631,0.04745606,0.155992,0.16772023,0.19340418,0.28727683,0.11348321,0.10487875,0.17037691,0.23561431,0.09251846,0.10083779,0.18828443,0.22197714,0.31096455,0.34296197,0.19864923,0.1861001,0.24301636,0.43314511,0.23550721,0.04805833,0.11923964,0.12132463,0.24100293,0.44929686,0.43322542,0.18335712,0.36237469,0.50631195,0.2878367,0.01886138,0.19587028,REST
0.25994626,0.17745337,0.03646891,-0.12602924,-0.06670083,-0.18188277,-0.11259864,0.34356171,0.37327787,0.08180419,0.18427953,0.08231881,0.09632335,0.10173399,0.01122876,0.0211302,-0.03770406,0.05482808,0.36643285,0.08291018,0.04377086,0.15145409,0.16349658,0.19295807,0.28734636,0.11420523,0.1047456,0.16945045,0.23231453,0.08434361,0.09473658,0.181114,0.21471593,0.30800474,0.34304985,0.19868661,0.18483001,0.24328029,0.43069819,0.22836605,0.04183591,0.11424197,0.11754425,0.23465885,0.44849801,0.43281502,0.18101957,0.36295548,0.5064311,0.28460175,0.01431992,0.19025104,REST
0.26002622,0.17825122,0.03525178,-0.12653129,-0.06689611,-0.1830664,-0.11402347,0.34280452,0.37015855,0.07972016,0.18181455,0.07988706,0.09512947,0.10173157,0.01199879,0.02124828,-0.03789861,0.05394774,0.36456129,0.0769419,0.04029571,0.14687717,0.1593807,0.19278373,0.28782114,0.11545999,0.10523468,0.16919054,0.22917083,0.07631387,0.08865093,0.17379487,0.20748124,0.30520034,0.34344175,0.19978118,0.18466251,0.24412328,0.4285807,0.22121757,0.03549588,0.10934445,0.11386085,0.22831199,0.44804215,0.43307152,0.17998302,0.36429617,0.50689876,0.28152245,0.00988018,0.18468007,REST
0.26006225,0.17894727,0.03415253,-0.12691453,-0.06703208,-0.18408024,-0.11500333,0.34225935,0.36685154,0.07767583,0.17946176,0.07759157,0.09416556,0.10195632,0.01295161,0.02159887,-0.03767695,0.05361741,0.36256832,0.07094698,0.03706894,0.14225923,0.15537737,0.19285809,0.2886461,0.11721306,0.10631166,0.16959344,0.22619702,0.06848346,0.0826214,0.16633806,0.20027301,0.302542,0.34408197,0.2018209,0.18559122,0.24550311,0.42680112,0.2140847,0.0290767,0.10456719,0.11028446,0.22199458,0.44787836,0.4339239,0.18021403,0.36634958,0.50772333,0.2786231,0.00559353,0.17918392,REST
0.26004919,0.17953098,0.03319315,-0.1271767,-0.06710163,-0.18489318,-0.11552783,0.34191161,0.36335075,0.07567086,0.17722522,0.07543924,0.09342788,0.10238121,0.01405936,0.02218289,-0.03703443,0.05382046,0.36044839,0.06496576,0.03412103,0.13760234,0.15148945,0.19315283,0.28975523,0.11941229,0.10791725,0.17063527,0.22340214,0.06090344,0.07669065,0.15876295,0.19309233,0.30002004,0.34490779,0.20465463,0.18756437,0.24735516,0.42536351,0.20699109,0.0226213,0.09992649,0.10682435,0.21574092,0.44794905,0.43527871,0.18163297,0.36903632,0.50890177,0.27592584,0.001509,0.17378865,REST
0.25998244,0.17999442,0.03238834,-0.12732233,-0.06710187,-0.18548128,-0.11560301,0.34173575,0.35965645,0.07370325,0.17510329,0.07342985,0.09290272,0.10297134,0.01528669,0.02299137,-0.03598195,0.05452052,0.35819921,0.05903971,0.03147091,0.13290998,0.14771666,0.19363256,0.29107213,0.1219891,0.10997057,0.17227143,0.22078802,0.05361627,0.07089953,0.15109421,0.185941,0.29762101,0.34584963,0.20810066,0.19048925,0.24959512,0.42425883,0.19995892,0.01617337,0.09543382,0.10348634,0.20958394,0.44818744,0.43702298,0.18412027,0.37224829,0.51041573,0.27344415,-0.00233333,0.16851549,REST
0.25985813,0.1803332,0.03174637,-0.12736064,-0.06703346,-0.18582936,-0.11525179,0.34169951,0.35577708,0.07177169,0.17309062,0.07155833,0.09256875,0.10368834,0.01659537,0.02400764,-0.03454333,0.05566576,0.35582289,0.05321019,0.02912599,0.12818804,0.14405631,0.19425815,0.29251707,0.12486465,0.11237592,0.17444165,0.2183506,0.04665705,0.06528571,0.14336252,0.17882253,0.29532924,0.34683701,0.21195905,0.19424073,0.25212592,0.42346737,0.19300763,0.00977533,0.09109606,0.10027432,0.20355396,0.44852328,0.43903255,0.18752566,0.3758572,0.51223379,0.27118221,-0.0059028,0.16338252,REST
0.2596744,0.18054615,0.03127046,-0.12730373,-0.06689923,-0.18592967,-0.11451048,0.34176818,0.351731,0.06987844,0.17118064,0.06981566,0.09240067,0.10449442,0.01794706,0.02520979,-0.03275221,0.057193,0.35332736,0.04751885,0.02708426,0.12344678,0.14050572,0.19499236,0.29401508,0.12795517,0.11502885,0.17707556,0.21608239,0.04005161,0.05988309,0.13560519,0.17174357,0.29313147,0.34780583,0.21602933,0.19867152,0.2548461,0.42296514,0.186157,0.00347019,0.08691686,0.09719175,0.19768099,0.44889066,0.44118202,0.19167562,0.37972417,0.51431704,0.26913929,-0.00917588,0.15840583,REST
0.25943121,0.18063527,0.03095885,-0.12716785,-0.06670677,-0.18578428,-0.11342704,0.34190533,0.34754464,0.06802654,0.16936442,0.06818828,0.09236872,0.10535229,0.01930322,0.02656922,-0.03065218,0.05903001,0.35072461,0.04200355,0.02533226,0.11869814,0.13706061,0.19579823,0.29549679,0.13117443,0.11782118,0.1800933,0.21397103,0.03381492,0.05471853,0.12786095,0.16471443,0.29101375,0.34869862,0.22011939,0.20361808,0.25765294,0.42271808,0.17942531,-0.00270342,0.08289618,0.09424045,0.19199103,0.44922593,0.44334882,0.19638176,0.38370574,0.51661599,0.26730493,-0.01213963,0.15359785,REST
0.25913,0.18060562,0.03080408,-0.12697212,-0.06646726,-0.18540566,-0.11205883,0.34207428,0.34325102,0.06622021,0.16763169,0.06665929,0.09244107,0.10622773,0.02062791,0.02805294,-0.02829429,0.06109975,0.34803048,0.03669752,0.02384684,0.11395531,0.13371532,0.1966413,0.29690248,0.13443819,0.12064741,0.18341066,0.21200055,0.0279503,0.04981115,0.12017142,0.15774819,0.28896213,0.34946799,0.22405688,0.20890933,0.26044855,0.42268357,0.17282847,-0.0087113,0.07903036,0.0914211,0.18650551,0.44947115,0.44542012,0.20145035,0.38766205,0.51907313,0.26565921,-0.01479152,0.14896777,REST
0.25877389,0.18046527,0.0307951,-0.12673694,-0.06619569,-0.18481594,-0.11046809,0.34224159,0.33888882,0.06446398,0.1659718,0.06520922,0.09258546,0.10709111,0.02188774,0.02962449,-0.02573491,0.06332404,0.34526384,0.03162791,0.02259647,0.1092324,0.13046312,0.19749078,0.29818457,0.13766786,0.12340979,0.18694168,0.21015239,0.0224513,0.04517183,0.11257766,0.15086232,0.28696314,0.35007861,0.22769676,0.21437728,0.26314405,0.42281133,0.16638061,-0.01452465,0.07531277,0.08873346,0.18124108,0.44957599,0.4472973,0.20669191,0.39146465,0.52162462,0.26417369,-0.01713876,0.14452127,JUNK
0.25836733,0.18022479,0.03091645,-0.12648457,-0.06591117,-0.18404752,-0.10872249,0.34237733,0.3345001,0.06275967,0.16437246,0.06381606,0.0927693,0.10791691,0.02305255,0.0312441,-0.02303481,0.06562576,0.34244448,0.02681311,0.02154183,0.10454114,0.12729509,0.19831763,0.29930651,0.14079145,0.12602422,0.19060038,0.20840451,0.0173008,0.04080152,0.10511681,0.14407587,0.28500113,0.35050607,0.23092747,0.21986035,0.2656644,0.42304003,0.16009313,-0.02012252,0.07173444,0.08617569,0.17620713,0.44949648,0.44889888,0.21192609,0.39499921,0.52420014,0.26280895,-0.01919985,0.14026009,JUNK
0.25791597,0.17989664,0.03115133,-0.12623592,-0.06563396,-0.18313792,-0.1068872,0.34245792,0.33013052,0.06111352,0.16282356,0.06245809,0.09296413,0.10868781,0.02409888,0.03287358,-0.02025217,0.06793382,0.33959493,0.02226646,0.02064236,0.09989592,0.12420385,0.19910088,0.30024937,0.14374897,0.12842356,0.19430742,0.20673637,0.01247581,0.03669515,0.09782723,0.13741261,0.28306472,0.35074246,0.23367539,0.22520986,0.26795244,0.42331171,0.15397808,-0.02548788,0.06828617,0.08374693,0.17140998,0.44920397,0.45016605,0.21698827,0.39817148,0.52673137,0.26152447,-0.02099739,0.13618642,JUNK
0.25742498,0.17949386,0.03147935,-0.12601358,-0.06538805,-0.18213229,-0.10502534,0.342462,0.3258234,0.05952768,0.1613128,0.06111134,0.09314218,0.10938922,0.02500454,0.03447284,-0.01744599,0.07018241,0.33673543,0.01799135,0.0198536,0.09530681,0.12117871,0.19982024,0.30100229,0.14648856,0.13055693,0.19798569,0.20512499,0.0079449,0.03283843,0.09074075,0.13089469,0.28113943,0.35078743,0.23590055,0.23029532,0.26996586,0.42355973,0.14804301,-0.03061274,0.06495572,0.08144353,0.16684803,0.44867325,0.45105687,0.22173169,0.40090737,0.52914524,0.26027176,-0.02256228,0.13229777,JUNK
0.25690085,0.17903122,0.03187765,-0.12584002,-0.06519993,-0.18108118,-0.10319804,0.34237325,0.32161847,0.05800031,0.15982616,0.05975107,0.09327725,0.11000983,0.02575021,0.03600175,-0.01467408,0.07231256,0.333884,0.01398165,0.01912974,0.09077875,0.1182051,0.20045599,0.30156195,0.14896809,0.13239248,0.20156282,0.20354608,0.00367109,0.02920921,0.08388041,0.12454177,0.27920783,0.35064861,0.23759478,0.23500253,0.27167696,0.42371199,0.14229196,-0.03549871,0.06173012,0.07925982,0.16251172,0.44788778,0.45154759,0.22603256,0.4031544,0.53136784,0.25899675,-0.02393417,0.12858765,JUNK
0.25634831,0.17852338,0.03232445,-0.12573409,-0.06509322,-0.18003263,-0.10145693,0.34217954,0.3175534,0.05653201,0.15835166,0.05835467,0.0933491,0.11054488,0.02632314,0.03742642,-0.01198561,0.07427572,0.33105794,0.01022744,0.01843062,0.08631737,0.11527073,0.200995,0.30193716,0.15115947,0.13391733,0.20497647,0.20197898,-0.00038267,0.02578336,0.07726836,0.11837433,0.27725697,0.35034475,0.23877923,0.23924191,0.27307531,0.42370632,0.13672996,-0.04014989,0.05859729,0.07719041,0.15838982,0.44684431,0.45163471,0.22979467,0.40488389,0.533333,0.25765124,-0.02515223,0.12505014,JUNK
0.25577155,0.17798397,0.03279655,-0.12571484,-0.06509264,-0.17903596,-0.09984863,0.34186965,0.31365761,0.05511786,0.15687497,0.05689925,0.09333863,0.11098945,0.02671156,0.03871413,-0.00942645,0.07603053,0.32826915,0.00671067,0.01771742,0.08192276,0.11235985,0.20142283,0.30213708,0.15304257,0.13513218,0.2081684,0.20040229,-0.00425512,0.02253188,0.07091779,0.11240798,0.27527085,0.34989458,0.23949136,0.24294288,0.27415839,0.42347881,0.13135727,-0.04457961,0.05554407,0.07522649,0.15446462,0.4455424,0.45132479,0.23294729,0.40608281,0.53497499,0.2561864,-0.02625967,0.12167522,JUNK
0.25517201,0.17742485,0.03327307,-0.12579711,-0.06521868,-0.1781344,-0.0984099,0.34143648,0.309955,0.05375385,0.15538402,0.05536523,0.09323166,0.11134215,0.02690805,0.03983893,-0.00703381,0.07754599,0.32552692,0.00341104,0.01695868,0.07759503,0.10945839,0.20172948,0.3021754,0.15460892,0.13605079,0.21108998,0.19879846,-0.00798116,0.01942643,0.06483842,0.10665418,0.27323741,0.34932059,0.23978245,0.24605744,0.27493307,0.42297888,0.12617442,-0.0488019,0.05255844,0.07335854,0.1507179,0.44399107,0.4506366,0.23544735,0.40675569,0.53623772,0.25456268,-0.02729689,0.11845415,JUNK
0.25455022,0.17685594,0.03373305,-0.12599374,-0.06548952,-0.17736678,-0.09717123,0.34087333,0.30646005,0.0524311,0.15386569,0.05373455,0.09301554,0.11159998,0.02690621,0.0407788,-0.00484006,0.0787985,0.32283509,0.00030366,0.01612745,0.07332917,0.10655006,0.20190266,0.30206132,0.15585704,0.13669524,0.21369766,0.19715047,-0.01159405,0.01643797,0.05903082,0.10111763,0.27114251,0.3486397,0.23970549,0.24855632,0.27540779,0.42215809,0.12117777,-0.05283714,0.04962827,0.07157397,0.1471273,0.44219959,0.44959247,0.23727676,0.40691742,0.5370692,0.25274348,-0.02830617,0.11537375,JUNK
0.25390428,0.17628448,0.03416088,-0.12631109,-0.0659148,-0.17675947,-0.09615032,0.34017748,0.3031829,0.05114679,0.15231119,0.05199477,0.09268429,0.11176465,0.02670657,0.0415226,-0.00286484,0.07977563,0.32019663,-0.00263237,0.01520857,0.06912462,0.10362419,0.20193753,0.30180791,0.15679753,0.13709468,0.21596031,0.19544816,-0.01511774,0.0135441,0.05349775,0.09580082,0.26898065,0.34787077,0.23931421,0.25043243,0.27559578,0.42099166,0.11636548,-0.05670169,0.04674537,0.06986141,0.14367484,0.44018888,0.44822225,0.23844264,0.40659568,0.53743458,0.25070867,-0.02932148,0.11242398,JUNK
0.25323102,0.17571492,0.03454354,-0.12675211,-0.06649912,-0.17632967,-0.09535719,0.33934432,0.30012599,0.04989748,0.15071285,0.05013717,0.09223394,0.11183649,0.02631135,0.04206501,-0.001121,0.08047161,0.31761044,-0.00541731,0.01419402,0.06497902,0.10067074,0.20182934,0.30142272,0.15744637,0.13727932,0.21785343,0.19368349,-0.01857076,0.01072621,0.04823602,0.09069905,0.26674783,0.34702533,0.23865223,0.25169411,0.27550659,0.41946441,0.11173341,-0.06041329,0.04390305,0.0682077,0.1403423,0.43798074,0.44655406,0.23897079,0.40582266,0.53730959,0.24844602,-0.0303735,0.10959405,JUNK
0.2525259,0.17514917,0.0348715,-0.12731473,-0.06723974,-0.17608355,-0.09479302,0.33837214,0.29728681,0.04868155,0.14906624,0.04815806,0.09166416,0.11181653,0.02572697,0.04240843,0.00038653,0.08088816,0.31507349,-0.00806813,0.013084,0.06089132,0.09768309,0.20157565,0.30090976,0.15782601,0.13727885,0.21936099,0.19185214,-0.02196498,0.00797152,0.0432393,0.08580326,0.26444384,0.34610859,0.23775257,0.25236595,0.27514634,0.41757545,0.10727566,-0.06398726,0.04109729,0.06659964,0.13711385,0.43559906,0.44461495,0.23890372,0.40463522,0.53668398,0.2459528,-0.03148844,0.10687321,JUNK
0.25178403,0.17458604,0.03514143,-0.12798929,-0.0681237,-0.17601246,-0.0944485,0.33726397,0.29466099,0.04750457,0.14737323,0.04606118,0.09098013,0.11171005,0.02496759,0.04256582,0.00166407,0.08103545,0.31258327,-0.01059386,0.01188915,0.05686622,0.09466124,0.20118155,0.30027527,0.15796737,0.13712165,0.2204788,0.18995582,-0.02530123,0.00527608,0.03850322,0.08110248,0.26207763,0.34512469,0.2366394,0.25248891,0.27452064,0.4153468,0.10298834,-0.06743341,0.03832842,0.06502638,0.13398036,0.43307528,0.44243312,0.23829766,0.40307567,0.53556824,0.24324101,-0.03268304,0.10425404,JUNK
0.25099948,0.1740212,0.0353547,-0.12876043,-0.06913005,-0.1760962,-0.09430626,0.33602548,0.29224211,0.04637583,0.14564072,0.0438564,0.09019096,0.11152525,0.02405315,0.04255766,0.00272599,0.08093027,0.3101373,-0.01299715,0.0106275,0.05291238,0.09161025,0.20065762,0.29952535,0.15790653,0.13683236,0.22121277,0.18800072,-0.02857441,0.00264312,0.03402605,0.07658345,0.25966439,0.34407449,0.23532744,0.25211599,0.27363318,0.41281691,0.09886713,-0.07075588,0.03559998,0.06347967,0.13093749,0.43044409,0.44003603,0.23721594,0.4011893,0.53399122,0.24033244,-0.03396644,0.10173152,JUNK
0.25016785,0.17344807,0.03551642,-0.12960766,-0.07023075,-0.1763045,-0.09434211,0.33466613,0.29002213,0.04530804,0.14388047,0.04155935,0.08930883,0.11127312,0.02300875,0.04241013,0.00359294,0.08059482,0.30773357,-0.01527471,0.009322,0.04904168,0.0885397,0.20001918,0.29866675,0.15768304,0.13643199,0.22157776,0.1859958,-0.03177357,0.00008167,0.0298054,0.0722326,0.25722376,0.34295636,0.23382579,0.25130984,0.27248758,0.41003543,0.09490773,-0.07395437,0.03291917,0.06195365,0.12798455,0.42774138,0.43745095,0.23572387,0.39902365,0.53199899,0.23725449,-0.03534219,0.0993024,JUNK
0.24928537,0.17285857,0.03563706,-0.13050359,-0.07138892,-0.17659645,-0.09452443,0.33320189,0.28799576,0.04432128,0.14211103,0.03919268,0.08835114,0.11097129,0.0218683,0.04215702,0.00429492,0.08005771,0.30537346,-0.01741509,0.00800261,0.04527211,0.08546709,0.19929008,0.2977131,0.15734144,0.13594021,0.22160077,0.18395486,-0.03488149,-0.00239238,0.02584086,0.06803796,0.25478294,0.34177238,0.23214495,0.25014198,0.27109352,0.40706798,0.09110712,-0.07702105,0.03029773,0.06044756,0.12512688,0.42500859,0.4347094,0.23388444,0.39663094,0.52965814,0.234042,-0.03680569,0.09696741,JUNK
0.24835119,0.17224345,0.03573131,-0.13141595,-0.07256199,-0.1769238,-0.09481473,0.33165401,0.28616032,0.04344032,0.14035645,0.03678431,0.08733904,0.11064334,0.02067267,0.04183659,0.00486827,0.07935282,0.30306107,-0.01940032,0.0067037,0.04162629,0.08241527,0.19850172,0.2966851,0.15692933,0.13537611,0.22131923,0.181895,-0.03787683,-0.0047579,0.02213596,0.0639912,0.25237453,0.34052959,0.23030198,0.24868919,0.26946881,0.40398967,0.0874636,-0.07994203,0.02775138,0.05896585,0.12237484,0.42229137,0.43184832,0.23175463,0.39406791,0.527053,0.23073341,-0.0383459,0.0947311,JUNK
0.24736769,0.17159359,0.03581608,-0.13230917,-0.07370348,-0.17723441,-0.09517048,0.33005071,0.2845161,0.04269332,0.13864487,0.03436648,0.08629709,0.11031872,0.01946814,0.04148898,0.00535409,0.0785182,0.30080378,-0.02120764,0.00546219,0.03813015,0.07941187,0.19769199,0.29561132,0.15649523,0.13475989,0.22078018,0.17983535,-0.04073589,-0.00699063,0.01869639,0.06008823,0.25003475,0.33924189,0.22832584,0.24702922,0.26764348,0.40088102,0.08397685,-0.08269966,0.02529912,0.05751865,0.11974197,0.41963798,0.42891163,0.22937877,0.39139548,0.52428156,0.22736757,-0.03994638,0.09260094,JUNK
0.24633984,0.17090099,0.0359105,-0.13314608,-0.07476541,-0.17747533,-0.09554478,0.32842639,0.28306645,0.04211055,0.13700789,0.03197447,0.08525206,0.11003234,0.01830613,0.04115475,0.00579696,0.07759523,0.29861188,-0.0228114,0.00431546,0.03481193,0.07648776,0.19690436,0.29452905,0.15608774,0.13411485,0.22003891,0.1777966,-0.04343475,-0.00906531,0.0155291,0.05633061,0.2478019,0.33793211,0.22626141,0.24523719,0.26566204,0.39782354,0.08064814,-0.08527263,0.02296234,0.05612161,0.11724427,0.41709897,0.42595139,0.22678784,0.38867754,0.52145177,0.22398201,-0.04158626,0.09058692,JUNK
0.24527679,0.17015973,0.03603635,-0.13388707,-0.07569849,-0.17759411,-0.09588973,0.32682055,0.28181913,0.04172397,0.13547973,0.02964656,0.08423366,0.10982561,0.0172425,0.04087503,0.00624521,0.07662901,0.29649961,-0.02418335,0.0033014,0.03170275,0.07367857,0.19618803,0.29348645,0.15575677,0.13347058,0.21915931,0.1758015,-0.0459474,-0.01095598,0.01264596,0.05272763,0.24571623,0.33663529,0.22417416,0.24338426,0.26358759,0.39489964,0.07748161,-0.08763633,0.02076515,0.05479646,0.11490046,0.41472894,0.4230302,0.22400059,0.38598189,0.51867843,0.22061306,-0.04324035,0.08870235,ADDITION
0.2441909,0.16936633,0.036216,-0.13449325,-0.07645537,-0.17754194,-0.09615543,0.32527664,0.28078464,0.04156466,0.13409652,0.02742159,0.08327365,0.10974432,0.01633542,0.04068879,0.0067486,0.07566699,0.29448348,-0.02529524,0.0024558,0.02883466,0.07102177,0.19559649,0.29254049,0.15555176,0.13286294,0.2182118,0.17387414,-0.0482493,-0.01263765,0.01006088,0.0492954,0.24381885,0.33539876,0.22214906,0.24153361,0.26150054,0.39218929,0.07448467,-0.0897641,0.01873317,0.05357012,0.11273124,0.41258579,0.42021966,0.22102444,0.38337693,0.51607734,0.21729635,-0.04487932,0.08696368,ADDITION
0.24309784,0.1685209,0.03647144,-0.13492844,-0.07699405,-0.17727752,-0.09629249,0.32384193,0.27997527,0.04165925,0.13289276,0.0253372,0.08240395,0.10983527,0.01564148,0.0406311,0.00735543,0.07475699,0.29258099,-0.02612252,0.00181023,0.02623761,0.06855427,0.19518316,0.2917532,0.15551955,0.13233393,0.21726963,0.17203818,-0.05031791,-0.01408877,0.0077888,0.04605594,0.24214774,0.33427942,0.22028734,0.2397363,0.25949574,0.38976195,0.07166675,-0.09163147,0.0168917,0.05247254,0.11075702,0.41072652,0.41759747,0.21785708,0.38092819,0.51375651,0.21406387,-0.04647326,0.0853878,ADDITION
0.24201755,0.16762839,0.0368231,-0.13516144,-0.07728028,-0.17677009,-0.09625721,0.32256156,0.27940387,0.04202734,0.131899,0.02342758,0.08165429,0.11014307,0.01521211,0.04073074,0.00810947,0.07394525,0.29080936,-0.02664624,0.00139061,0.02393727,0.06631042,0.19499668,0.29118627,0.15570292,0.13193065,0.21640475,0.17031537,-0.05213463,-0.01529284,0.00584343,0.04303661,0.24073422,0.33334005,0.21869954,0.23802951,0.25767723,0.38767144,0.06903753,-0.09321918,0.01526463,0.0515349,0.10899559,0.40920427,0.41524291,0.21449156,0.37869367,0.51180762,0.21094207,-0.04799449,0.08398977,ADDITION
