CH1,CH2,CH3,CH4,CH5,CH6,CH7,CH8,CH9,CH10,CH11,CH12,CH13,CH14,CH15,CH16,CH17,CH18,CH19,CH20,CH21,CH22,CH23,CH24,CH25,CH26,CH27,CH28,CH29,CH30,CH31,CH32,CH33,CH34,CH35,CH36,CH37,CH38,CH39,CH40,CH41,CH42,CH43,CH44,CH45,CH46,CH47,CH48,CH49,CH50,CH51,CH52,Mark
0.0354361,0.1038964,0.38055354,0.29291368,0.20120852,0.17828779,0.12279584,0.25464985,0.12022237,0.08115107,0.00806523,0.16408193,0.17775549,0.07023702,0.04393969,0.30068308,-0.26276541,0.09875485,0.1521786,-0.00929819,0.02876167,0.02556435,0.17057012,0.04849122,0.13840684,0.06471632,-0.16678004,-0.11479933,0.13830188,0.0289746,0.03219895,-0.02941427,-0.00091146,0.06690282,0.10396217,0.0088976,0.15678515,-0.09222994,0.13925891,-0.0022809,-0.01317946,0.12755468,-0.0194084,-0.00576143,0.03408614,0.12598503,0.15333682,0.13403849,0.17973523,0.01181751,-0.01318063,0.08649949,JUNK
0.03821697,0.11027274,0.39988634,0.30094564,0.20831023,0.18796475,0.13852881,0.27850577,0.12672894,0.07864609,0.00704641,0.17583816,0.18427964,0.07458048,0.0461756,0.31430241,-0.27120513,0.10486914,0.151521,-0.01317949,0.0209557,0.03289111,0.18389668,0.05225191,0.13865787,0.06399982,-0.1691286,-0.12245556,0.13986056,0.02947354,0.02510536,-0.02627563,0.0056942,0.07236448,0.10204666,0.00738241,0.15980504,-0.09634993,0.1392177,0.00033541,-0.01146347,0.12943771,-0.01767219,0.00086195,0.03470495,0.12779891,0.15111913,0.13397089,0.18250218,0.01094905,-0.00939765,0.08931515,JUNK
0.04093958,0.11651136,0.41845277,0.30815327,0.21507767,0.19733731,0.15435718,0.30215502,0.13276637,0.07539383,0.00566492,0.18721433,0.19097322,0.07815632,0.04820222,0.3272298,-0.27870789,0.11034714,0.15023793,-0.0175435,0.01283301,0.03985473,0.19704315,0.05545731,0.13784745,0.06293479,-0.17079337,-0.12996009,0.14017361,0.02938296,0.01757262,-0.02328115,0.01220138,0.07750852,0.09870201,0.00489426,0.1618783,-0.10042705,0.13772842,0.00235366,-0.01010882,0.13048756,-0.01642863,0.00710572,0.034486,0.12819877,0.1474853,0.13275962,0.18347681,0.00909989,-0.0061928,0.0914518,JUNK
0.04344636,0.12230594,0.43540624,0.31422833,0.22131915,0.20617655,0.16956258,0.32474944,0.13797469,0.07154319,0.00398614,0.19783476,0.19750366,0.08099066,0.0500949,0.33948919,-0.28500408,0.11504377,0.14840566,-0.02213888,0.00470407,0.04628149,0.20950493,0.05817743,0.13612163,0.06178531,-0.17153199,-0.13701521,0.13936704,0.02889607,0.00992453,-0.02034918,0.01853842,0.08239529,0.09416141,0.0015939,0.1631338,-0.10438304,0.13502063,0.00391958,-0.00911413,0.13082369,-0.01556339,0.01290951,0.03352488,0.12726854,0.14256971,0.13051705,0.18263863,0.00649295,-0.00353813,0.09297147,JUNK
0.04556695,0.12732428,0.44984001,0.31883404,0.22680703,0.21421799,0.18337381,0.34538051,0.1419913,0.06724131,0.00209517,0.2072994,0.20347451,0.08311751,0.05190567,0.35103378,-0.28982395,0.11878677,0.14607127,-0.02669759,-0.00313207,0.05200391,0.22073655,0.06049084,0.13362305,0.06078842,-0.17113195,-0.14331353,0.13757557,0.02821959,0.00249432,-0.01738335,0.0246451,0.08707685,0.08870421,-0.00233079,0.16368474,-0.10814144,0.13133851,0.00519388,-0.00844757,0.1305714,-0.01493222,0.01823393,0.03193384,0.12511301,0.13652945,0.12736054,0.17997894,0.00337759,-0.00137283,0.09394741,JUNK
0.04712935,0.13122912,0.46084601,0.32163221,0.23129413,0.22117707,0.19500974,0.36313045,0.14447369,0.06263503,0.00009704,0.21520676,0.20845278,0.08457681,0.05366272,0.36174688,-0.2929211,0.12139044,0.14325847,-0.03094437,-0.01039415,0.05687162,0.23018493,0.06247932,0.13049546,0.06014633,-0.16943061,-0.14855424,0.13494392,0.02756591,-0.0043822,-0.01427152,0.03047165,0.09159343,0.08265076,-0.00666405,0.1636287,-0.11162859,0.12693904,0.00634641,-0.00804537,0.12986271,-0.01436644,0.02306555,0.0298453,0.12186648,0.1295511,0.12341653,0.1755172,0.00002199,0.00039584,0.09446725,JUNK
0.04797104,0.13369951,0.46758044,0.32231152,0.23453063,0.22676489,0.20372215,0.37711698,0.14512359,0.05786402,-0.00189137,0.221177,0.21199593,0.08540712,0.05536389,0.37144631,-0.29409939,0.12266372,0.13997087,-0.03461206,-0.01683383,0.0607569,0.23731986,0.06421533,0.12687322,0.06001056,-0.16633776,-0.15247412,0.13161838,0.02714066,-0.01038262,-0.01090198,0.03597542,0.09596332,0.07634267,-0.01117983,0.16304117,-0.11478939,0.12207554,0.00754224,-0.00781623,0.12883204,-0.01368485,0.02740956,0.02740133,0.11768404,0.1218458,0.11881543,0.16930442,-0.00330365,0.00188469,0.09462829,JUNK
0.04795053,0.13445251,0.46932432,0.32061687,0.23628402,0.23070857,0.20884359,0.3865501,0.14370945,0.05306039,-0.00374672,0.22487712,0.21368264,0.08564769,0.05697803,0.37990072,-0.29323253,0.1224276,0.13620165,-0.03745313,-0.02224378,0.06356233,0.24166991,0.06575739,0.12288577,0.06047917,-0.16184773,-0.15486193,0.12774685,0.0271325,-0.01521056,-0.00716673,0.04111881,0.10018131,0.07013158,-0.01564495,0.16198061,-0.11758719,0.1169937,0.00893362,-0.00764482,0.12761416,-0.01270709,0.03128835,0.02475113,0.11274643,0.11365301,0.11369471,0.16143338,-0.00633924,0.00322852,0.09453694,JUNK
0.04695676,0.13326329,0.46553689,0.3163735,0.23635516,0.23276752,0.20982552,0.3907752,0.1400824,0.04833961,-0.00535279,0.22604057,0.21314056,0.08532872,0.05844676,0.38684326,-0.29028821,0.12052197,0.13193783,-0.03925662,-0.02647313,0.06522,0.24284878,0.06713852,0.11864402,0.06158525,-0.15605353,-0.15558676,0.1234673,0.02769906,-0.01861298,-0.00297743,0.04586372,0.10421146,0.06435259,-0.01984238,0.160482,-0.12002136,0.11191216,0.0106445,-0.00740227,0.12633532,-0.01126846,0.03473122,0.02203563,0.10724507,0.10522731,0.10819013,0.15203382,-0.00885449,0.00456874,0.09430099,JUNK
0.04491714,0.12998074,0.45589826,0.30950525,0.23459502,0.23275214,0.2062764,0.389314,0.13418882,0.04380595,-0.00660184,0.22448657,0.21007472,0.08447815,0.05969638,0.39199749,-0.28533182,0.11682708,0.12716959,-0.03985538,-0.0294241,0.06570073,0.24058378,0.06836882,0.11425181,0.06330588,-0.14914109,-0.15459952,0.11891364,0.02896351,-0.02038702,0.00173477,0.05017215,0.10799413,0.05931746,-0.02356773,0.15856868,-0.12211697,0.10702699,0.01277106,-0.00695129,0.12511501,-0.00922633,0.03777559,0.01939151,0.10139012,0.09684009,0.10244224,0.14128476,-0.01065245,0.00604864,0.09403084,JUNK
0.0418032,0.12453958,0.44033757,0.30004564,0.23091543,0.23053741,0.19798765,0.3818965,0.12607576,0.03954817,-0.00740218,0.22013198,0.20428815,0.08312005,0.06064293,0.39509836,-0.27853119,0.11127344,0.12189426,-0.03913607,-0.03105599,0.06501527,0.23473425,0.06943282,0.10980144,0.06556382,-0.14138368,-0.1519403,0.11421149,0.03100833,-0.02039064,0.00701447,0.05400608,0.11144691,0.05529632,-0.02664261,0.15625249,-0.1239293,0.10250353,0.01537574,-0.00615616,0.1240611,-0.00646884,0.04046242,0.01694311,0.09540008,0.08876684,0.09659147,0.12941253,-0.01157877,0.00780402,0.09383552,JUNK
0.0376322,0.11696587,0.4190414,0.2881411,0.22529715,0.22607294,0.18494797,0.36847815,0.11588956,0.0356372,-0.00768735,0.21299843,0.19569519,0.08127421,0.06120052,0.39591569,-0.27015263,0.1038507,0.11612006,-0.03704628,-0.03138828,0.06321035,0.22530052,0.0702909,0.10537332,0.06823453,-0.13312811,-0.14773977,0.10947461,0.03387038,-0.0185523,0.01287378,0.05732546,0.11446955,0.05250381,-0.02892332,0.15353981,-0.12554127,0.09847089,0.01848252,-0.00489239,0.12326495,-0.00292548,0.04282973,0.01479311,0.08949329,0.0812766,0.09077419,0.11668082,-0.0115305,0.00995492,0.09381713,JUNK
0.03246701,0.10737643,0.39244655,0.27404431,0.21779017,0.21938823,0.16734749,0.349244,0.10386872,0.03212654,-0.0074158,0.20321059,0.1843297,0.07895906,0.06129528,0.3942751,-0.26054427,0.09461436,0.10986651,-0.03359612,-0.03049254,0.06036986,0.21242534,0.07088412,0.10103908,0.07115956,-0.12477116,-0.1422063,0.10480609,0.03754216,-0.01487134,0.01929948,0.06009132,0.11695299,0.05109213,-0.03030238,0.15043533,-0.12705447,0.09502443,0.02208185,-0.00305336,0.12280068,0.0014327,0.04491296,0.01302379,0.08388336,0.07461952,0.08512068,0.10338781,-0.01045543,0.01260177,0.094069,JUNK
0.02641315,0.09597456,0.36121497,0.25810659,0.20851476,0.21059236,0.14556484,0.32460085,0.09032929,0.02905016,-0.00657835,0.19099149,0.17034476,0.07618993,0.06086768,0.39007136,-0.2501196,0.0836845,0.10316882,-0.02885766,-0.02849109,0.05660686,0.19638664,0.07113918,0.09685544,0.07415501,-0.11673878,-0.13561833,0.10029345,0.04197076,-0.00942146,0.02624418,0.06226548,0.11878588,0.05114012,-0.03071758,0.14694537,-0.12858936,0.09221892,0.02612832,-0.0005592,0.12272122,0.00658952,0.04674062,0.01168803,0.07876635,0.06901418,0.07974918,0.08984557,-0.00835678,0.01581687,0.09466937,JUNK
0.0196125,0.08303764,0.32619536,0.24075665,0.19765434,0.19986908,0.12014646,0.2951594,0.07564764,0.02642633,-0.00519423,0.17664951,0.15400553,0.07298491,0.05988472,0.38328111,-0.23933102,0.07124525,0.09607653,-0.02295653,-0.02554331,0.05206073,0.17758246,0.07097752,0.09287024,0.0770292,-0.10945617,-0.12830117,0.09601097,0.04706721,-0.00234194,0.03363933,0.06381672,0.11986651,0.05265683,-0.03014636,0.14308459,-0.13027053,0.09007578,0.03055098,0.0026412,0.12305878,0.01249,0.04833694,0.01081435,0.07431927,0.06463929,0.07476538,0.07637471,-0.00528561,0.01964387,0.09568042,JUNK
0.01223407,0.06890142,0.288369,0.22247384,0.18544331,0.1874657,0.09177324,0.2616916,0.06023601,0.02425175,-0.00331547,0.16055934,0.1356706,0.06936073,0.0583403,0.37396485,-0.22864319,0.05753144,0.08864688,-0.01606981,-0.02184264,0.04688536,0.15650432,0.07031893,0.08911335,0.07958996,-0.10332479,-0.12061264,0.0920117,0.05270763,0.00616488,0.04138936,0.06472097,0.12010592,0.05557632,-0.02861441,0.13887225,-0.13222736,0.0885776,0.03525314,0.0065625,0.12382104,0.0190398,0.04971745,0.01039764,0.07068263,0.06161748,0.07025208,0.06327939,-0.00134153,0.02409395,0.09714402,JUNK
0.00446377,0.05394087,0.24879237,0.20376348,0.17215469,0.17368022,0.0612196,0.2250901,0.04451986,0.02250734,-0.00101925,0.14314169,0.11577282,0.06533684,0.05625752,0.36226618,-0.21850692,0.04281971,0.08094327,-0.00841203,-0.01759977,0.0412438,0.1337107,0.06909215,0.08560189,0.08166089,-0.09869356,-0.11291563,0.08833116,0.05874405,0.01584749,0.04938635,0.06496604,0.11943849,0.05976915,-0.02618591,0.13433813,-0.13457911,0.08767736,0.04012172,0.0111857,0.1249937,0.026116,0.05089251,0.01040705,0.06796126,0.060013,0.06627087,0.05083736,0.00333925,0.02914884,0.09908167,JUNK
-0.00350571,0.03854962,0.20853437,0.18512712,0.15808438,0.15884411,0.02930936,0.18631737,0.02891343,0.02116013,0.00159713,0.12483885,0.09479467,0.06093642,0.05369076,0.34840533,-0.20932899,0.02741404,0.07303181,-0.00022137,-0.01303166,0.03530089,0.10979477,0.06724069,0.08233962,0.08309162,-0.09583812,-0.10555661,0.08498628,0.06501456,0.02642048,0.05751296,0.0645545,0.11782749,0.06505132,-0.02295855,0.12951986,-0.13742922,0.08730328,0.04503727,0.01645942,0.12654382,0.03357541,0.05186966,0.01078882,0.06621946,0.05982814,0.06285831,0.03928498,0.00859317,0.03476222,0.10149401,JUNK
-0.01148563,0.02311833,0.16861644,0.16703422,0.14353411,0.14330316,-0.00313204,0.14635356,0.01379694,0.02016109,0.00442068,0.10609073,0.07323832,0.0561822,0.05071707,0.33266318,-0.20145324,0.01162569,0.06497556,0.00825072,-0.00835477,0.02921079,0.0853508,0.06472486,0.07931119,0.08376177,-0.09494975,-0.09885118,0.08197103,0.07134833,0.0375755,0.06564499,0.06350316,0.11526453,0.07119243,-0.01906373,0.12446002,-0.14086583,0.08735849,0.04987567,0.02230256,0.12841843,0.04126157,0.05265104,0.01146428,0.06547196,0.06099882,0.06002066,0.02880027,0.01423577,0.04086151,0.10435878,JUNK
-0.01930147,0.00801432,0.12995742,0.14989829,0.12879641,0.12740067,-0.03532144,0.10614529,-0.00050229,0.01945202,0.00733293,0.08731245,0.05159933,0.05109979,0.04743677,0.31536782,-0.19514139,-0.00423935,0.0568329,0.01675547,-0.00377053,0.02311377,0.06094404,0.06152866,0.07648969,0.08359125,-0.09612236,-0.09306233,0.0792622,0.07757848,0.04900023,0.0736632,0.06184672,0.11177374,0.07793564,-0.01465119,0.11920835,-0.14495109,0.08773388,0.05451943,0.02861128,0.13055114,0.0490159,0.05323733,0.0123403,0.0656912,0.06340401,0.05773888,0.01950072,0.02007572,0.04735495,0.1076346,JUNK
-0.02680025,-0.00643501,0.09333272,0.13405998,0.11414135,0.11145888,-0.06655809,0.0665602,-0.01372306,0.01896757,0.01021631,0.06887448,0.03034154,0.04571476,0.0439609,0.29687339,-0.19056399,-0.01989885,0.04865472,0.02505921,0.00054232,0.01712922,0.03708352,0.05765907,0.07383276,0.08253883,-0.0993543,-0.08839256,0.07681845,0.08354833,0.06039305,0.08145657,0.05963479,0.10740848,0.08500946,-0.00988614,0.1138157,-0.14972454,0.08830945,0.05886132,0.03526484,0.13286588,0.0566862,0.05362857,0.01331388,0.06680556,0.06686998,0.0559677,0.01143661,0.02592327,0.05413593,0.11126284,PASSTHOUGHT
-0.03385687,-0.01995611,0.05934178,0.11977256,0.09980523,0.09576515,-0.0962548,0.02834958,-0.02568035,0.0186386,0.01296187,0.051088,0.00987442,0.04005395,0.04040526,0.27754137,-0.18779583,-0.03510633,0.04048282,0.0329544,0.00443366,0.0113517,0.01419922,0.05314666,0.07128726,0.08060361,-0.1045517,-0.08497595,0.07458401,0.08911885,0.07147729,0.08892617,0.05693195,0.1022485,0.09214481,-0.00493792,0.10833485,-0.15520021,0.08896311,0.06280923,0.04213333,0.13528056,0.06413392,0.05382474,0.01427772,0.06870684,0.07118408,0.05464026,0.00459269,0.0315998,0.06108941,0.11517053,PASSTHOUGHT
-0.04037804,-0.03233832,0.02839239,0.1071972,0.08598297,0.08056112,-0.12395935,-0.00787998,-0.03626708,0.01839852,0.01547739,0.03419459,-0.00946276,0.03414686,0.0368823,0.25772423,-0.18681721,-0.04965938,0.03235121,0.04027012,0.00779025,0.00585069,-0.00737085,0.04804527,0.0687947,0.07782365,-0.1115385,-0.08287384,0.07249488,0.09417643,0.08201412,0.09599187,0.05381545,0.09639683,0.09909176,0.00003131,0.10281822,-0.16136487,0.08957937,0.0662917,0.04908597,0.13771357,0.07124247,0.05382964,0.01513075,0.07126062,0.07611,0.05367519,-0.00110308,0.0369485,0.06809884,0.11927496,PASSTHOUGHT
-0.04630367,-0.04343862,0.00069739,0.09640248,0.07282306,0.06603421,-0.14936806,-0.04168536,-0.04545306,0.01818192,0.01768906,0.01836082,-0.02741393,0.02801932,0.0334916,0.23774548,-0.18752751,-0.06341048,0.02428469,0.04687534,0.01053194,0.00066599,-0.02739108,0.04242497,0.06628855,0.07426661,-0.12007617,-0.08208453,0.07047757,0.09863211,0.09180813,0.10258717,0.05036928,0.08996987,0.10562692,0.0048671,0.09731352,-0.16818887,0.09004872,0.06925526,0.05599622,0.14008492,0.07791694,0.05364609,0.01577787,0.07430838,0.08139851,0.0529777,-0.00577697,0.04183603,0.07504994,0.12348589,PASSTHOUGHT
-0.05160614,-0.05318175,-0.02371385,0.08737026,0.06042633,0.05231524,-0.17232537,-0.07278805,-0.05327803,0.01793267,0.01954928,0.00367852,-0.04381027,0.02169916,0.03031617,0.2178888,-0.18975541,-0.07626539,0.01630251,0.0526841,0.0126189,-0.00418639,-0.04572759,0.03637069,0.06370445,0.07002771,-0.12987989,-0.08254496,0.06845878,0.10242753,0.10071675,0.10866735,0.04668269,0.08309411,0.11156813,0.00943665,0.09186473,-0.1756222,0.09027876,0.07166969,0.06274974,0.14232384,0.08409089,0.05328111,0.01614204,0.07768429,0.08680557,0.05245024,-0.00958975,0.04616195,0.08183769,0.12771179,PASSTHOUGHT
-0.05628712,-0.06155626,-0.04497403,0.08000721,0.04884746,0.03947874,-0.19281492,-0.10107391,-0.05984008,0.01760245,0.02103589,-0.00983037,-0.05857147,0.01521328,0.02741638,0.19838735,-0.19327864,-0.0881843,0.00841911,0.05765363,0.01404364,-0.00871429,-0.06234346,0.02997494,0.06098069,0.06521934,-0.14064123,-0.08414557,0.06636669,0.10553124,0.10864864,0.11420545,0.04284273,0.07589632,0.11677808,0.01362926,0.08650984,-0.1836036,0.09019377,0.07352389,0.06924771,0.14436869,0.08972364,0.0527421,0.01616317,0.0812205,0.09210462,0.05199583,-0.01272774,0.04985775,0.08836881,0.13186212,PASSTHOUGHT
-0.06133297,-0.06985389,-0.06423998,0.07675139,0.0399529,0.02842687,-0.21635984,-0.13020395,-0.06706334,0.01874299,0.02215067,-0.02229135,-0.07321291,0.00961622,0.02593166,0.18583249,-0.20332244,-0.10081476,0.00309089,0.06507257,0.01575619,-0.01287314,-0.07871699,0.02391655,0.06031694,0.06318901,-0.15493838,-0.09032419,0.06635856,0.11168449,0.11982755,0.12180355,0.03998506,0.07040033,0.12438302,0.01853732,0.08522781,-0.19730736,0.09281096,0.07762781,0.07767196,0.15099902,0.09741135,0.0533948,0.01721072,0.08793524,0.10113679,0.05404776,-0.01448672,0.05517821,0.09738651,0.13996567,PASSTHOUGHT
-0.06605361,-0.07731339,-0.08206042,0.07418502,0.03116833,0.01774486,-0.2384077,-0.15771131,-0.07365294,0.01967845,0.02308309,-0.03429645,-0.08704279,0.00373229,0.02482406,0.17318384,-0.21401268,-0.11280535,-0.00271646,0.07175598,0.01692177,-0.01680502,-0.09425045,0.01758758,0.05934336,0.06063577,-0.16969073,-0.09710493,0.06617924,0.1173078,0.13006385,0.12930676,0.03704365,0.06463295,0.13134432,0.02326583,0.08382479,-0.21149653,0.09515774,0.08146944,0.08593304,0.15730108,0.1049015,0.0540276,0.01794851,0.09473631,0.10971193,0.05595938,-0.01590355,0.06016364,0.106392,0.14794511,PASSTHOUGHT
-0.07049313,-0.08402068,-0.0988535,0.07202646,0.02240211,0.00736722,-0.25910032,-0.18370427,-0.07976908,0.02031594,0.02386534,-0.04594789,-0.10017286,-0.00242254,0.02407455,0.16039951,-0.22497047,-0.12422217,-0.00910602,0.0776739,0.0175107,-0.02053639,-0.10906123,0.01109044,0.05794236,0.05759677,-0.18456678,-0.10426793,0.06571037,0.12236296,0.13926181,0.13671789,0.03412341,0.05868714,0.13757223,0.0277427,0.08223098,-0.22603887,0.0971165,0.08504456,0.09397259,0.16314821,0.11219515,0.05467989,0.01833236,0.10141625,0.11757182,0.05757476,-0.01724819,0.06477454,0.11532753,0.15566395,PASSTHOUGHT
-0.07470433,-0.09008703,-0.11507615,0.06998228,0.013546,-0.00280661,-0.27864602,-0.20837507,-0.08557974,0.02056966,0.02454487,-0.05737756,-0.11275938,-0.00884172,0.02362473,0.14737362,-0.23583043,-0.13517648,-0.01616961,0.08282288,0.01750892,-0.02410722,-0.12330904,0.00451046,0.05599525,0.05409538,-0.19927961,-0.11160149,0.06483103,0.12682083,0.14736822,0.14404127,0.03131349,0.05263111,0.14300816,0.03190542,0.08036085,-0.24081342,0.0985686,0.0883462,0.10175061,0.16842446,0.1193032,0.05538159,0.01833105,0.10777435,0.12449748,0.0587442,-0.01879082,0.06898133,0.12414188,0.16299032,PASSTHOUGHT
-0.0787405,-0.0956355,-0.13117576,0.0677732,0.00448991,-0.01289803,-0.29729113,-0.23197703,-0.09124287,0.02036699,0.02518068,-0.06872985,-0.1249821,-0.01552561,0.02338816,0.13395178,-0.24626772,-0.14580889,-0.02397729,0.08722228,0.01691662,-0.02756671,-0.13717318,-0.00208725,0.0533955,0.05014477,-0.21360001,-0.11891379,0.06342658,0.1306614,0.15437059,0.15127935,0.02868342,0.04650607,0.14762679,0.03570797,0.07812583,-0.25570983,0.09940327,0.09136362,0.10924537,0.17302893,0.1262389,0.05615016,0.01792747,0.1136322,0.13032609,0.0593368,-0.0207838,0.07276313,0.13278973,0.16980305,PASSTHOUGHT
-0.08265068,-0.10078817,-0.14755344,0.06515283,-0.00486828,-0.02303559,-0.31529203,-0.25479183,-0.09689474,0.01965015,0.02583722,-0.08014777,-0.13702506,-0.0224801,0.02325787,0.11995205,-0.25601324,-0.15627727,-0.03257047,0.09090848,0.01574489,-0.03096956,-0.15083522,-0.00866256,0.05005297,0.04574681,-0.22736856,-0.1260481,0.06139365,0.13387054,0.16029179,0.1584312,0.02627617,0.04032296,0.15143001,0.03911725,0.07543828,-0.27063757,0.09952004,0.09407964,0.11644961,0.17688097,0.13301428,0.05698615,0.01711495,0.11883922,0.13495488,0.05924486,-0.02344659,0.07610436,0.1412293,0.1759952,PASSTHOUGHT
-0.08647452,-0.10565651,-0.16453145,0.06192438,-0.01461281,-0.03334362,-0.33289263,-0.27710325,-0.10264036,0.01837824,0.02657879,-0.09176118,-0.14906009,-0.02971845,0.02311245,0.10518167,-0.26487008,-0.16674384,-0.04195643,0.09392806,0.01401496,-0.03437408,-0.16446379,-0.01520306,0.0458978,0.04089318,-0.2405007,-0.13289434,0.05864431,0.13643801,0.16518484,0.16548662,0.02410612,0.0340622,0.15444027,0.04210925,0.07221659,-0.28553075,0.09883101,0.09647024,0.12336548,0.17992118,0.13963252,0.05786949,0.01589472,0.12327561,0.13834026,0.05838791,-0.02695622,0.0789924,0.1494205,0.18147688,PASSTHOUGHT
-0.09023853,-0.11033152,-0.18233219,0.05795375,-0.02480058,-0.04392963,-0.35030434,-0.29917619,-0.1085462,0.01653385,0.02746572,-0.10367539,-0.16122989,-0.0372547,0.02283401,0.08945882,-0.27271917,-0.17735805,-0.05210172,0.09633484,0.01176167,-0.03783534,-0.17819723,-0.02171837,0.0408912,0.03557371,-0.25298113,-0.13938706,0.05511588,0.13835889,0.16912852,0.17243251,0.02215954,0.0276801,0.15669967,0.04467562,0.06839629,-0.3003414,0.09727113,0.09850792,0.13000181,0.18211414,0.14609192,0.05876176,0.01427809,0.12686424,0.1405016,0.05672048,-0.03143151,0.08141971,0.15732461,0.18618108,PASSTHOUGHT
-0.09395614,-0.11488104,-0.20107089,0.05317062,-0.03545932,-0.05487869,-0.36769542,-0.32124013,-0.11464102,0.01411711,0.02854704,-0.11596665,-0.1736411,-0.04510375,0.02230829,0.07263183,-0.27951884,-0.1882503,-0.06293519,0.09818374,0.00902729,-0.0414069,-0.192141,-0.02824187,0.0350206,0.02977667,-0.26485789,-0.14551176,0.05076824,0.13963173,0.17221987,0.17924647,0.02039374,0.02110931,0.15825903,0.04681192,0.06393137,-0.31504881,0.09479361,0.10016018,0.13636772,0.18344805,0.15237723,0.05960261,0.01227647,0.12956101,0.14150921,0.05422781,-0.03694036,0.08337946,0.16490276,0.1900619,PASSTHOUGHT
-0.09762718,-0.11934859,-0.22075972,0.04756937,-0.04658476,-0.06624594,-0.3851831,-0.34348053,-0.1209206,0.01115136,0.02986013,-0.1286802,-0.18635726,-0.05327529,0.0214442,0.05459396,-0.28529865,-0.19952025,-0.0743496,0.09953152,0.00586858,-0.04513658,-0.20636052,-0.03481909,0.02830803,0.02349994,-0.27622312,-0.15128998,0.04559272,0.14026284,0.17457168,0.18590122,0.01874341,0.01427071,0.1591789,0.04852699,0.05880138,-0.32964569,0.0913806,0.10139773,0.1424709,0.18393768,0.15846682,0.0603167,0.0099066,0.13136354,0.141481,0.05093081,-0.04349234,0.08487194,0.17211719,0.19309856,PASSTHOUGHT
-0.10124033,-0.12375541,-0.24132314,0.041199,-0.05814287,-0.07805676,-0.40283817,-0.36604077,-0.12735604,0.00768036,0.03142793,-0.14183082,-0.19939835,-0.06177168,0.02017369,0.03529463,-0.29014668,-0.21123494,-0.08620737,0.10043417,0.00235303,-0.04906761,-0.22088669,-0.0415046,0.02080726,0.0167544,-0.28720182,-0.15677695,0.0396093,0.1402664,0.17630494,0.19237034,0.01712394,0.0070776,0.15952475,0.04983626,0.05301473,-0.34413972,0.08704177,0.10219355,0.14831287,0.1836205,0.16433226,0.06081405,0.00718314,0.13230264,0.14056961,0.04688095,-0.05104978,0.08590193,0.17892882,0.19529277,PASSTHOUGHT
-0.10477855,-0.12810731,-0.26262662,0.03414467,-0.07008064,-0.09031165,-0.42069152,-0.38901615,-0.13390228,0.00376003,0.03325376,-0.15541239,-0.21275239,-0.07059439,0.01845761,0.01474029,-0.29419464,-0.22343066,-0.09835448,0.10094262,-0.00144625,-0.0532422,-0.23572664,-0.04835831,0.01259379,0.00956389,-0.29793149,-0.16205128,0.03286094,0.13966295,0.1775414,0.19862255,0.01543508,-0.00055942,0.15935887,0.05075618,0.04660251,-0.35855389,0.08180977,0.10252661,0.15388761,0.18255024,0.16993751,0.06099305,0.00411175,0.13242985,0.13894458,0.04215118,-0.0595386,0.0864787,0.18529893,0.19666433,PASSTHOUGHT
-0.10822267,-0.13240105,-0.28450337,0.02651864,-0.08232922,-0.10298873,-0.4387486,-0.41247368,-0.14050935,-0.00053874,0.03532645,-0.16940285,-0.22637902,-0.07973292,0.01628963,-0.00700709,-0.29759243,-0.23611253,-0.11062419,0.10110804,-0.00544472,-0.05769837,-0.25086993,-0.05543148,0.00376709,0.00197217,-0.30854028,-0.16719316,0.02541585,0.13848437,0.17840503,0.20462959,0.01357442,-0.00872061,0.1587456,0.05131311,0.03962166,-0.3729102,0.07574489,0.10238741,0.15918246,0.18079861,0.17524983,0.0607496,0.00069593,0.13182217,0.13678505,0.03683553,-0.06885454,0.08662217,0.19119346,0.19725288,PASSTHOUGHT
-0.11155777,-0.1366332,-0.30678883,0.01843938,-0.09481554,-0.11605314,-0.45700628,-0.43646982,-0.14713593,-0.00513601,0.03762162,-0.18377529,-0.24022403,-0.08916928,0.01369198,-0.02983829,-0.30049416,-0.24926278,-0.12285148,0.100981,-0.00955006,-0.06247415,-0.26630357,-0.06276551,-0.00556147,-0.00596004,-0.31913814,-0.17227879,0.01735999,0.13677314,0.17901662,0.21036619,0.01144065,-0.01747507,0.15774719,0.05153571,0.03214548,-0.38723251,0.06892862,0.10177843,0.16417852,0.17844911,0.18024029,0.05997982,-0.00306749,0.13056628,0.13426363,0.03103854,-0.07887764,0.08636325,0.1965844,0.19711499,PASSTHOUGHT
-0.1147773,-0.14080846,-0.32935071,0.01001527,-0.10747148,-0.12946542,-0.47546834,-0.46105814,-0.15375869,-0.00994741,0.04010518,-0.19850641,-0.25423428,-0.09887926,0.01071295,-0.05360753,-0.30304191,-0.26284647,-0.13488297,0.10061421,-0.01366462,-0.06760869,-0.28202274,-0.07038613,-0.01527258,-0.01415501,-0.32980156,-0.1773672,0.00879308,0.13458382,0.17949344,0.21581526,0.00893955,-0.02687528,0.15642636,0.05145751,0.02426159,-0.40154201,0.06146247,0.10071634,0.16885249,0.1755935,0.184889,0.05858685,-0.00718854,0.12875469,0.13153799,0.02486957,-0.08948514,0.08574504,0.20145197,0.19632035,PASSTHOUGHT
-0.11788546,-0.14494607,-0.35210884,0.00133294,-0.12024113,-0.14318821,-0.49415877,-0.48630401,-0.16037717,-0.01488106,0.04274379,-0.21358405,-0.2683658,-0.1088268,0.00742622,-0.07814533,-0.30534729,-0.27681491,-0.14658262,0.10006829,-0.01768035,-0.07313563,-0.29803804,-0.07829759,-0.02523676,-0.02251483,-0.34056604,-0.18248397,-0.0001698,0.1319868,0.17995328,0.22097214,0.00599518,-0.03695045,0.15485676,0.05112671,0.01607,-0.41584232,0.05347375,0.09923863,0.1731834,0.17233105,0.18919456,0.05649306,-0.01167097,0.12649049,0.12875044,0.01844418,-0.10054774,0.08483092,0.20578986,0.19495089,PASSTHOUGHT
-0.12089977,-0.14908342,-0.37505409,-0.00755298,-0.13308761,-0.1571956,-0.513134,-0.51229388,-0.16701968,-0.01985222,0.04550006,-0.22901385,-0.28259787,-0.11897799,0.00391315,-0.10327784,-0.30749354,-0.29112282,-0.15784359,0.09940697,-0.02149612,-0.07909414,-0.31438884,-0.08649058,-0.03533761,-0.03093849,-0.3514328,-0.18763351,-0.00941643,0.12905839,0.18050361,0.22583573,0.00254602,-0.04771517,0.15311031,0.05058769,0.00766915,-0.43013734,0.04509334,0.09739109,0.17715178,0.16876112,0.19316675,0.05363138,-0.01652835,0.12386347,0.12601459,0.01186725,-0.11195624,0.08369131,0.20960118,0.19309221,PASSTHOUGHT
-0.12385008,-0.15327638,-0.39824831,-0.01661964,-0.14599513,-0.17147522,-0.53248405,-0.53913814,-0.173738,-0.02477377,0.04834656,-0.24481896,-0.29693499,-0.12929167,0.00026237,-0.1288376,-0.3095237,-0.30572397,-0.16858767,0.09870412,-0.02500639,-0.08551645,-0.33113721,-0.09493376,-0.04545947,-0.03931603,-0.36236399,-0.19278118,-0.018828,0.12588811,0.18125223,0.23041713,-0.00144784,-0.05916008,0.15127361,0.04990121,-0.00084129,-0.44441283,0.03646841,0.0952379,0.18074955,0.16498472,0.19683644,0.04996192,-0.02176136,0.12096897,0.12342738,0.00524283,-0.1236055,0.08241512,0.21290669,0.19083849,PASSTHOUGHT
-0.12677714,-0.15759715,-0.42181584,-0.0258744,-0.15897007,-0.1860314,-0.55233121,-0.56696403,-0.18060279,-0.02956508,0.0512642,-0.26103923,-0.31141093,-0.13972807,-0.00344244,-0.1546815,-0.31144837,-0.3205817,-0.17876984,0.09803839,-0.02811379,-0.09243206,-0.34836996,-0.10358308,-0.05550271,-0.04754326,-0.37330019,-0.19786987,-0.02829255,0.12256938,0.18229754,0.23473532,-0.00600359,-0.07125969,0.14943936,0.04913213,-0.00936957,-0.45864779,0.02774728,0.09285054,0.18397875,0.16109769,0.20025109,0.04546804,-0.02736462,0.11789462,0.12106447,-0.00133537,-0.13540535,0.08109989,0.21574152,0.18828365,PASSTHOUGHT
-0.12972815,-0.16212849,-0.44592598,-0.03534712,-0.17203744,-0.20088372,-0.5728215,-0.59590715,-0.18769564,-0.03415483,0.05424298,-0.2777257,-0.32608628,-0.15025115,-0.00712911,-0.18069999,-0.31325531,-0.3356711,-0.18837798,0.09748999,-0.03073596,-0.09986604,-0.36619014,-0.11238683,-0.06538727,-0.05553032,-0.38417253,-0.20282921,-0.03770948,0.11919399,0.18372612,0.23881134,-0.01112124,-0.08397688,0.1477046,0.04834731,-0.01783662,-0.47282019,0.01907159,0.09030221,0.18685326,0.15718682,0.20346749,0.04015608,-0.03332623,0.1147196,0.11898302,-0.0077862,-0.14728077,0.0798454,0.21815327,0.18551883,PASSTHOUGHT
-0.13275144,-0.16695546,-0.47076449,-0.04507779,-0.18523514,-0.21606185,-0.59410512,-0.62609082,-0.1950963,-0.03847902,0.05728861,-0.29493266,-0.34103811,-0.16082668,-0.01073966,-0.20682091,-0.31491783,-0.35097352,-0.19742747,0.09713919,-0.03280398,-0.10783026,-0.38470247,-0.12128837,-0.07504628,-0.06320313,-0.39491528,-0.20757915,-0.04698628,0.11585185,0.18561393,0.24267082,-0.01678212,-0.09726223,0.14617443,0.04762238,-0.02617562,-0.48690221,0.01057965,0.08766922,0.18940255,0.15333252,0.20655562,0.03405991,-0.03961507,0.11152507,0.11723167,-0.01403543,-0.15915684,0.07875492,0.22020307,0.18263295,PASSTHOUGHT
-0.1358895,-0.17215365,-0.49649808,-0.05510034,-0.19860518,-0.23159745,-0.61631775,-0.65761286,-0.20287007,-0.04248277,0.06041874,-0.31270534,-0.35634893,-0.17142394,-0.01423591,-0.23300911,-0.31641299,-0.36647362,-0.20595522,0.09705926,-0.03427051,-0.11632277,-0.4039982,-0.13023251,-0.08442929,-0.07051124,-0.40548098,-0.21204601,-0.05604164,0.11262289,0.18801945,0.2463391,-0.02295372,-0.11105906,0.14495522,0.04703584,-0.03433315,-0.50086677,0.00239817,0.08502288,0.19166933,0.14960313,0.20958742,0.02723675,-0.04618406,0.10839232,0.11585532,-0.02001673,-0.17095773,0.07792571,0.22196124,0.17970738,PASSTHOUGHT
-0.13917199,-0.17777728,-0.52323753,-0.06542446,-0.2121826,-0.24751462,-0.63955373,-0.69051588,-0.21104957,-0.04611719,0.06366394,-0.33106619,-0.37208989,-0.18201268,-0.01759419,-0.25926062,-0.31773105,-0.38214907,-0.21400885,0.09731336,-0.03510869,-0.12531973,-0.42413384,-0.13916679,-0.09349407,-0.07742757,-0.41585144,-0.21616991,-0.06480045,0.10957593,0.19098242,0.24983872,-0.02959084,-0.12530245,0.14415465,0.0466728,-0.04226304,-0.51468587,-0.00535534,0.08242862,0.19370896,0.14605863,0.21263586,0.01976734,-0.05296267,0.10541252,0.11490574,-0.02566549,-0.18259208,0.07744765,0.22350548,0.176818,PASSTHOUGHT
-0.14260994,-0.18384826,-0.55100465,-0.07602091,-0.22598618,-0.26382023,-0.66384578,-0.72476119,-0.21962468,-0.04934509,0.06705908,-0.35000405,-0.38830647,-0.19256823,-0.02080999,-0.28559521,-0.3188926,-0.39796847,-0.221641,0.09794434,-0.03532211,-0.13477676,-0.44511807,-0.14805019,-0.10221441,-0.08395721,-0.42605132,-0.21992549,-0.07320034,0.10675947,0.19451419,0.25318769,-0.03664278,-0.13992618,0.14386746,0.04660987,-0.04993124,-0.52834249,-0.01258579,0.07993647,0.19558325,0.14274351,0.21576187,0.01174835,-0.05986688,0.10267649,0.11443777,-0.0309229,-0.19395724,0.07739014,0.22491391,0.17403011,PASSTHOUGHT
-0.14619017,-0.19034615,-0.57970226,-0.08680886,-0.24000853,-0.28049237,-0.68914026,-0.76020825,-0.22853248,-0.05213424,0.07064509,-0.36946207,-0.40500298,-0.20306101,-0.023889,-0.31203821,-0.31995338,-0.41387513,-0.22889666,0.09897531,-0.03493711,-0.14462075,-0.46689296,-0.15684968,-0.1105636,-0.09012704,-0.43614548,-0.22331901,-0.08118111,0.10420636,0.19860195,0.25639808,-0.04405328,-0.15485775,0.14417884,0.04692562,-0.0573042,-0.54182029,-0.01921127,0.0775873,0.19736047,0.13969374,0.21901517,0.00329438,-0.06679002,0.10028979,0.11452002,-0.03572638,-0.20492162,0.07780535,0.22626416,0.17140128,PASSTHOUGHT
-0.14987174,-0.19720182,-0.60909456,-0.0976474,-0.2542094,-0.29747468,-0.71528327,-0.79659849,-0.23765215,-0.05446855,0.07445429,-0.3893317,-0.4221296,-0.21346977,-0.02684821,-0.33861431,-0.32101771,-0.42979196,-0.23581265,0.10039689,-0.03401795,-0.15475897,-0.48932698,-0.1655519,-0.11853177,-0.09599712,-0.44625241,-0.22641163,-0.08869968,0.10191954,0.20319407,0.25946423,-0.05176911,-0.17002831,0.14514163,0.04767505,-0.06435825,-0.55512297,-0.02518226,0.07539731,0.19910313,0.13692521,0.22241984,-0.00547685,-0.07362416,0.09835093,0.11521955,-0.04002308,-0.21534236,0.07871025,0.22762084,0.16897251,PASSTHOUGHT
-0.15358467,-0.20429341,-0.63880008,-0.10833153,-0.26850861,-0.31466633,-0.74201,-0.83355057,-0.24680398,-0.05633303,0.07851666,-0.40944642,-0.43957025,-0.22376297,-0.02969887,-0.36532208,-0.32222754,-0.44560167,-0.24240477,0.10217245,-0.03264494,-0.16506712,-0.51220274,-0.17414884,-0.1260985,-0.10163779,-0.4565208,-0.22929721,-0.09571055,0.0998855,0.20821184,0.26238021,-0.05973246,-0.18535893,0.14678915,0.0489116,-0.07106031,-0.56825286,-0.03046012,0.07337317,0.20086876,0.13444661,0.22598243,-0.01443505,-0.08024199,0.09697516,0.11661494,-0.04375296,-0.22504215,0.08010045,0.22904056,0.16677673,PASSTHOUGHT
-0.15723206,-0.21144913,-0.66829944,-0.11860009,-0.28278679,-0.33192286,-0.76894885,-0.87056738,-0.25575697,-0.05773041,0.08284325,-0.42958596,-0.45714447,-0.23390932,-0.03244963,-0.39212605,-0.32376844,-0.46115896,-0.24867119,0.10422964,-0.03093199,-0.17540456,-0.53522593,-0.18264799,-0.13325438,-0.10713917,-0.46713224,-0.23212065,-0.10218332,0.09806281,0.21353672,0.26512367,-0.06789196,-0.20077161,0.14911193,0.05065759,-0.07737852,-0.58123088,-0.03504045,0.07149838,0.2026995,0.13224773,0.22967862,-0.0234565,-0.08652736,0.09626301,0.11877499,-0.04686755,-0.23384258,0.08193272,0.23056011,0.16482952,PASSTHOUGHT
-0.16069347,-0.21845204,-0.69695657,-0.12814495,-0.296886,-0.3490549,-0.79562855,-0.90703982,-0.26423955,-0.05866772,0.08743261,-0.44948003,-0.47460473,-0.24386922,-0.03509371,-0.41894433,-0.32584926,-0.47627997,-0.25458616,0.10646831,-0.02900577,-0.18560836,-0.55802763,-0.19105864,-0.13998137,-0.11259048,-0.47827458,-0.23505241,-0.10808764,0.09639461,0.21902281,0.26767105,-0.07619454,-0.21617714,0.15206943,0.05292117,-0.08327102,-0.59407562,-0.03893334,0.06974787,0.20462149,0.13030994,0.23346293,-0.03241396,-0.09236254,0.09631503,0.12176175,-0.04931992,-0.24155028,0.0841386,0.23220076,0.16313702,PASSTHOUGHT
-0.16383153,-0.22505037,-0.72404987,-0.13662621,-0.31061569,-0.36583513,-0.82149988,-0.94227618,-0.27195188,-0.05916656,0.0922604,-0.46881995,-0.49164829,-0.25359914,-0.03761214,-0.44564167,-0.32868955,-0.49075615,-0.26010397,0.10875992,-0.02701174,-0.19550718,-0.58018458,-0.19939394,-0.14626776,-0.11808175,-0.49013123,-0.2382884,-0.11340487,0.09480571,0.22449398,0.26998824,-0.08458747,-0.23148046,0.15557857,0.05567865,-0.08869334,-0.60681289,-0.04217622,0.06808142,0.2066395,0.12860025,0.23726474,-0.04119053,-0.09764832,0.09720985,0.12561378,-0.05107747,-0.2479855,0.08661804,0.23396176,0.16169022,PASSTHOUGHT
-0.16649945,-0.2309712,-0.74881667,-0.14369255,-0.32376105,-0.38200635,-0.84596193,-0.9755308,-0.27858531,-0.05925719,0.09728242,-0.48727265,-0.50792933,-0.26304743,-0.0399659,-0.47202802,-0.33250108,-0.50435776,-0.26516074,0.11095716,-0.02510051,-0.20492503,-0.60123527,-0.20766136,-0.15210058,-0.12369006,-0.50285804,-0.24202794,-0.11812305,0.09321163,0.22975537,0.2720387,-0.09301416,-0.24657512,0.15952165,0.05888309,-0.09359394,-0.61946434,-0.04482438,0.06645317,0.20873682,0.12707682,0.24099541,-0.0496757,-0.10230317,0.09900628,0.13034271,-0.05212033,-0.25298715,0.08924854,0.23582329,0.16046765,PASSTHOUGHT
-0.1685515,-0.23593704,-0.7705043,-0.14900711,-0.33609688,-0.39729726,-0.86839968,-1.00605202,-0.28384501,-0.05898496,0.10243164,-0.5045011,-0.52307993,-0.27216086,-0.04210197,-0.49786726,-0.3374719,-0.51685256,-0.26968423,0.11289795,-0.02342782,-0.2136939,-0.62071049,-0.21586399,-0.15747981,-0.12948132,-0.5165717,-0.24646939,-0.12224647,0.09152015,0.23459832,0.27378044,-0.10141565,-0.26134831,0.16374214,0.06245153,-0.09792375,-0.63205624,-0.04695952,0.06480972,0.21087354,0.12568687,0.24455196,-0.05777352,-0.10627629,0.10172364,0.13591719,-0.05245265,-0.25643554,0.09188607,0.23774493,0.15943518,PASSTHOUGHT
-0.16985223,-0.23968475,-0.78842205,-0.1522717,-0.34739938,-0.41143548,-0.88821948,-1.03311419,-0.28746983,-0.05840461,0.10762566,-0.52018279,-0.53673148,-0.28088132,-0.04395522,-0.52288264,-0.34374544,-0.52801347,-0.27359837,0.1144186,-0.02214172,-0.22165839,-0.63815856,-0.22399142,-0.16241002,-0.13549697,-0.5313282,-0.25178397,-0.1257904,0.08964144,0.23881356,0.27517503,-0.1097264,-0.27567759,0.16806002,0.0662792,-0.10163271,-0.6446048,-0.04867672,0.06309938,0.21299101,0.1243724,0.2478261,-0.06539998,-0.10954515,0.10534701,0.14226565,-0.05209924,-0.25825897,0.09437742,0.23967074,0.15854865,PASSTHOUGHT
-0.17028661,-0.24198265,-0.80199081,-0.15325043,-0.35746178,-0.42416474,-0.90488881,-1.05606389,-0.28925204,-0.0575821,0.11276931,-0.53403074,-0.54853976,-0.28915027,-0.04545381,-0.54677385,-0.35140574,-0.53763753,-0.27683249,0.11536235,-0.02137692,-0.22868696,-0.65317458,-0.23202041,-0.16690896,-0.14175525,-0.54711479,-0.25810701,-0.12878594,0.08749274,0.24220204,0.27618977,-0.11787296,-0.28943589,0.17227609,0.07023596,-0.10467844,-0.65712035,-0.05008591,0.06127348,0.21501492,0.12307172,0.25071144,-0.07248513,-0.11211962,0.10981692,0.14926821,-0.05111214,-0.25844559,0.09656706,0.24153212,0.1577543,PASSTHOUGHT
-0.16976814,-0.24264728,-0.81078881,-0.15178828,-0.36610666,-0.43526107,-0.91797322,-1.07436562,-0.28905344,-0.05658974,0.11776096,-0.54581082,-0.55820769,-0.29691121,-0.04652361,-0.56923282,-0.36046505,-0.54555666,-0.27932671,0.11559067,-0.02124665,-0.23467699,-0.66542602,-0.23991126,-0.17100514,-0.14824702,-0.56384486,-0.26552311,-0.13127829,0.08500434,0.24458615,0.27679637,-0.12577583,-0.30249232,0.17618552,0.0741758,-0.1070275,-0.6696012,-0.0513056,0.05929132,0.21686155,0.12172326,0.25310975,-0.07897235,-0.11404132,0.11503223,0.15676254,-0.04956774,-0.25705051,0.09830523,0.24325338,0.15699293,PASSTHOUGHT
-0.16824526,-0.24155676,-0.81458175,-0.14782597,-0.37319887,-0.44454786,-0.92716599,-1.0876379,-0.28681687,-0.05550539,0.12250146,-0.55535817,-0.56550634,-0.30411205,-0.04709506,-0.58996493,-0.37085754,-0.55165356,-0.28103906,0.11499374,-0.02183617,-0.23956083,-0.67467493,-0.24760936,-0.17474161,-0.15493771,-0.58135784,-0.27405977,-0.13332757,0.08212557,0.24582349,0.276981,-0.13334663,-0.31471756,0.17958899,0.07794175,-0.10866173,-0.68203533,-0.05245819,0.05712453,0.21844462,0.12026987,0.25494018,-0.08481833,-0.1153773,0.12085067,0.16454613,-0.04756655,-0.25419435,0.09945901,0.2447575,0.15620288,JUNK
-0.16570586,-0.23865962,-0.81334633,-0.14140581,-0.37865204,-0.45190734,-0.9323135,-1.09566844,-0.28257179,-0.05441064,0.12689629,-0.56258625,-0.57029241,-0.31070995,-0.04711778,-0.60870808,-0.38244131,-0.55587173,-0.28194901,0.11349735,-0.02320446,-0.24331175,-0.68079543,-0.25504783,-0.1781777,-0.16177134,-0.59942931,-0.28368711,-0.13501011,0.07882603,0.24581128,0.27673373,-0.14049381,-0.32599056,0.182302,0.0813712,-0.10957924,-0.69440299,-0.05366901,0.05475364,0.21968083,0.11865907,0.25614157,-0.08999471,-0.11622257,0.12709175,0.17238684,-0.04523133,-0.25006855,0.09991518,0.24596851,0.15532021,JUNK
-0.16217905,-0.23398091,-0.80727601,-0.1326752,-0.38243711,-0.4572888,-0.93342483,-1.09843802,-0.27643505,-0.05338316,0.13086849,-0.56749499,-0.5725196,-0.31667182,-0.04656098,-0.62525094,-0.39500117,-0.55822039,-0.28206161,0.11107019,-0.02537154,-0.24594165,-0.68378103,-0.26214948,-0.18138255,-0.16867128,-0.61777967,-0.2943131,-0.13641159,0.07510249,0.24450047,0.27606302,-0.14712273,-0.33620134,0.18417042,0.08430977,-0.10979746,-0.70667261,-0.05505407,0.0521763,0.2204988,0.11685035,0.25668228,-0.09448361,-0.11668333,0.13355054,0.18003447,-0.04269891,-0.24491404,0.09959407,0.24682106,0.15428676,JUNK
-0.15773576,-0.22762638,-0.79679579,-0.1218905,-0.38459435,-0.46071848,-0.93068689,-1.09615004,-0.26861477,-0.05250001,0.13435599,-0.57018197,-0.57226217,-0.32197705,-0.04541507,-0.63944972,-0.408254,-0.5587858,-0.28141186,0.10772292,-0.02832665,-0.24750982,-0.68376303,-0.26883027,-0.1844379,-0.1755463,-0.63608778,-0.30578849,-0.13763353,0.07097373,0.2418925,0.27498651,-0.15314525,-0.34525985,0.18507186,0.08660942,-0.10935756,-0.71881086,-0.05672779,0.04940138,0.22083943,0.11481148,0.2565577,-0.09828474,-0.11688511,0.13999248,0.18722388,-0.04012267,-0.23903732,0.0984458,0.24726139,0.15304835,JUNK
-0.1524877,-0.21977632,-0.782516,-0.10939523,-0.3852137,-0.46229213,-0.92444849,-1.08917582,-0.25938791,-0.05182377,0.13732697,-0.57082152,-0.56968719,-0.32662064,-0.04370736,-0.65123004,-0.4218739,-0.55771554,-0.28006494,0.10351584,-0.0320136,-0.24810736,-0.68098629,-0.27501181,-0.18743157,-0.18229316,-0.65400916,-0.31791431,-0.13877721,0.06648574,0.2380503,0.27354646,-0.15847714,-0.35309905,0.18493252,0.08814961,-0.10831503,-0.73076981,-0.05878123,0.04645527,0.22066833,0.1125287,0.25580242,-0.10140351,-0.11694314,0.14618763,0.19370604,-0.03765114,-0.2327598,0.09646769,0.24725527,0.1515616,JUNK
-0.14657269,-0.2106708,-0.76517284,-0.09558777,-0.38444069,-0.46217754,-0.91519773,-1.07805479,-0.24908227,-0.05141364,0.13977094,-0.56965673,-0.56503987,-0.3306281,-0.04150343,-0.66061342,-0.43551251,-0.55522513,-0.27810046,0.098556,-0.03636071,-0.24785383,-0.67578614,-0.28062737,-0.19046256,-0.18882154,-0.67121553,-0.33046862,-0.13994543,0.06170734,0.23309471,0.27177134,-0.16304328,-0.35968259,0.18372919,0.08883309,-0.10675205,-0.74250782,-0.06128782,0.04336764,0.21997908,0.11000431,0.25445986,-0.10386125,-0.11697455,0.15190761,0.19926532,-0.03543342,-0.22642028,0.09368119,0.2467815,0.14979386,JUNK
-0.14014609,-0.20058501,-0.74558657,-0.08089144,-0.38245174,-0.46058223,-0.90351236,-1.06344926,-0.23804741,-0.05130539,0.14171313,-0.56698173,-0.55864924,-0.33402467,-0.03889587,-0.66769314,-0.44883871,-0.55157685,-0.27560866,0.09298018,-0.04126391,-0.24688649,-0.66857505,-0.28561798,-0.19361603,-0.19504386,-0.68742436,-0.34322739,-0.14123282,0.05672219,0.22718525,0.26971546,-0.1667922,-0.36499852,0.18148634,0.0885987,-0.10475878,-0.75399536,-0.06429796,0.04018374,0.21878837,0.10725526,0.25260258,-0.10568617,-0.1170695,0.15695336,0.20372817,-0.0335951,-0.22033377,0.09015439,0.24584292,0.14772578,JUNK
-0.13337682,-0.18982963,-0.72462398,-0.06575096,-0.37945935,-0.45775881,-0.89003879,-1.04611516,-0.22664523,-0.05151676,0.14320014,-0.56312525,-0.55090356,-0.3368504,-0.03600059,-0.67263401,-0.46153647,-0.54705983,-0.27269033,0.08695073,-0.04659682,-0.24536262,-0.65982014,-0.28994194,-0.19696663,-0.20088086,-0.70238853,-0.35595432,-0.14271867,0.05162796,0.22052251,0.26743421,-0.16969557,-0.36907157,0.17827597,0.08742079,-0.10243402,-0.76520002,-0.06783433,0.03695174,0.21713705,0.10431328,0.25032559,-0.106914,-0.11729883,0.16115782,0.20697005,-0.03224166,-0.21478939,0.0859855,0.24446315,0.14535517,JUNK
-0.12643462,-0.17872721,-0.70314425,-0.05060306,-0.37569529,-0.45398653,-0.8754558,-1.02685213,-0.21522711,-0.05204493,0.14429969,-0.55843365,-0.54222554,-0.33915353,-0.03294915,-0.67566144,-0.47332704,-0.54197675,-0.26945347,0.08064713,-0.05221685,-0.24344207,-0.65001178,-0.29357755,-0.20056862,-0.2062657,-0.71592045,-0.3684223,-0.14446507,0.04653186,0.21333595,0.26498967,-0.17174818,-0.37195829,0.17421722,0.08531471,-0.09987792,-0.77608985,-0.07188949,0.03372589,0.21509023,0.10122351,0.24773936,-0.10758357,-0.1177068,0.16440195,0.20892777,-0.03144879,-0.21002667,0.08130023,0.2426853,0.14269623,JUNK
-0.1194812,-0.16759421,-0.68194479,-0.03584272,-0.37139425,-0.44955283,-0.86042821,-1.00646448,-0.2041122,-0.05287014,0.14509386,-0.55324781,-0.5330416,-0.34098941,-0.02988484,-0.67704606,-0.48398986,-0.53663033,-0.2660003,0.07425599,-0.05797622,-0.2412827,-0.63963693,-0.2965211,-0.20445679,-0.2111505,-0.72790521,-0.38043326,-0.14651221,0.04154278,0.20586754,0.26244539,-0.17297165,-0.37374219,0.16946295,0.08233179,-0.09718814,-0.78664225,-0.07643116,0.03056156,0.21272974,0.09804028,0.24495837,-0.10774321,-0.11830958,0.16661774,0.20960245,-0.03125952,-0.20622726,0.07624488,0.24056695,0.1397772,JUNK
-0.11266245,-0.15672246,-0.66171682,-0.02180796,-0.36678165,-0.44473833,-0.84557247,-0.98571229,-0.19357195,-0.05395416,0.14567727,-0.54788417,-0.52376056,-0.34241685,-0.02694917,-0.67708707,-0.49337205,-0.53130424,-0.26242188,0.06796132,-0.06372465,-0.2390262,-0.62914878,-0.29878998,-0.20864348,-0.21550611,-0.73830491,-0.39182416,-0.14887431,0.03676976,0.19836262,0.25986758,-0.17341234,-0.3745251,0.16419122,0.07855956,-0.09445405,-0.79683894,-0.08140108,0.02751795,0.21015096,0.09482677,0.24209923,-0.10744052,-0.11908911,0.16779488,0.20906055,-0.03168077,-0.20350251,0.07098088,0.23818004,0.13663971,JUNK
-0.10610294,-0.14636871,-0.64301562,-0.00876845,-0.36206609,-0.43980047,-0.83142257,-0.96527457,-0.18381754,-0.05524652,0.14614503,-0.54262066,-0.51475465,-0.34349436,-0.02427386,-0.67609322,-0.50139523,-0.52624905,-0.25879678,0.06193196,-0.06932177,-0.23679516,-0.61894822,-0.30042168,-0.21311495,-0.21932238,-0.74715543,-0.40247479,-0.15154074,0.03231377,0.19105417,0.25732192,-0.17313884,-0.37442553,0.15859579,0.07411461,-0.09175287,-0.80666912,-0.08671849,0.02465387,0.20745607,0.09164876,0.23927087,-0.1067265,-0.12000137,0.16797665,0.20742522,-0.03268654,-0.20189241,0.06567425,0.23560569,0.13333745,JUNK
-0.09989978,-0.13674073,-0.62623549,0.00308756,-0.35742688,-0.43496126,-0.81840426,-0.94572037,-0.17499115,-0.0566823,0.14659259,-0.53768295,-0.50633794,-0.34427273,-0.02196768,-0.67436159,-0.50805259,-0.52166593,-0.25518468,0.05631653,-0.07463584,-0.23468068,-0.60936099,-0.30146715,-0.21782777,-0.2226031,-0.75455737,-0.41230446,-0.15447101,0.02826899,0.18415587,0.25487915,-0.17223632,-0.37356737,0.15287749,0.06914248,-0.08914335,-0.81611878,-0.09227952,0.02203023,0.20475046,0.08857499,0.23657419,-0.10564495,-0.12097327,0.16726378,0.20487222,-0.0342156,-0.20136182,0.06049158,0.23293294,0.12993622,JUNK
-0.09412023,-0.12799077,-0.61160094,0.01365764,-0.35300839,-0.43039817,-0.80681813,-0.92748785,-0.16716307,-0.05819116,0.14710312,-0.53323615,-0.49875343,-0.34479558,-0.02011571,-0.67216361,-0.51340377,-0.51770288,-0.25162709,0.0512338,-0.07955664,-0.23274447,-0.60062736,-0.30198866,-0.22271779,-0.22536883,-0.76066768,-0.42127809,-0.15760295,0.02471381,0.1778475,0.25260428,-0.17080364,-0.37207678,0.14722864,0.063802,-0.08666658,-0.82517791,-0.0979702,0.01970294,0.20213401,0.08566917,0.23409484,-0.10423576,-0.12191567,0.16579987,0.20161448,-0.03618104,-0.20181465,0.0555869,0.23025204,0.12650852,JUNK
-0.08880208,-0.12021372,-0.59917277,0.02291869,-0.34891689,-0.42623928,-0.79683536,-0.91086924,-0.16033655,-0.05969927,0.14774626,-0.52938193,-0.49216479,-0.3450954,-0.01876924,-0.66973126,-0.51756644,-0.51444888,-0.24814759,0.0467701,-0.08399411,-0.2310162,-0.59289694,-0.30205378,-0.22770011,-0.22765088,-0.76568192,-0.42939875,-0.16085364,0.02171331,0.17227209,0.25056067,-0.16894667,-0.3700729,0.141826,0.05826139,-0.08434408,-0.83383322,-0.10366835,0.0177263,0.19969799,0.08298956,0.2319027,-0.10253046,-0.12272549,0.16376536,0.19788826,-0.03847428,-0.20310004,0.05109852,0.22765175,0.12313134,JUNK
-0.08395515,-0.11344796,-0.58886319,0.03092056,-0.34521973,-0.42256138,-0.78849941,-0.89601243,-0.15445408,-0.06113487,0.14857291,-0.52615941,-0.48665479,-0.34519383,-0.01794525,-0.66724741,-0.52070165,-0.51193464,-0.24475296,0.04297829,-0.08788225,-0.22949418,-0.5862295,-0.30173087,-0.23267509,-0.22948778,-0.76981699,-0.43670055,-0.16412517,0.01931683,0.16752997,0.24880567,-0.16677114,-0.36766171,0.13682257,0.05268953,-0.08217687,-0.84206706,-0.1092511,0.01615016,0.19752033,0.08058629,0.23005034,-0.10055079,-0.12329433,0.16136569,0.19393937,-0.04097246,-0.20502852,0.04714234,0.22521581,0.11988363,JUNK
-0.07956575,-0.10768022,-0.58046377,0.03777222,-0.34194773,-0.41939247,-0.78173983,-0.88293606,-0.14941019,-0.06243289,0.14961228,-0.52355188,-0.4822298,-0.34510273,-0.01762372,-0.66484129,-0.52299452,-0.5101375,-0.24143738,0.03987852,-0.0911805,-0.2281504,-0.5806039,-0.30108526,-0.23753551,-0.23092175,-0.77329326,-0.44324073,-0.16731182,0.01755659,0.16367897,0.24739122,-0.16437654,-0.36493197,0.13234039,0.04724772,-0.0801489,-0.84985602,-0.1146014,0.01501927,0.19566301,0.07849845,0.2285732,-0.09830866,-0.12351701,0.1588174,0.19000675,-0.04354735,-0.20738846,0.0438078,0.22301893,0.11684211,JUNK
-0.07560111,-0.1028536,-0.57367969,0.04362563,-0.33909863,-0.41671747,-0.7763918,-0.871539,-0.14506401,-0.06353666,0.15087485,-0.52149612,-0.47882676,-0.3448219,-0.0177535,-0.66258788,-0.52464181,-0.50898796,-0.23818448,0.03746286,-0.09386847,-0.22693281,-0.57593042,-0.30017385,-0.24217184,-0.23199511,-0.77631748,-0.44908872,-0.1703043,0.01645112,0.16073939,0.24636589,-0.16185197,-0.36195019,0.12846957,0.04208399,-0.0782291,-0.85716927,-0.11961225,0.01437458,0.19417141,0.0767549,0.22749218,-0.0958027,-0.12329443,0.15633698,0.18631047,-0.04607114,-0.20995805,0.04115807,0.22112624,0.11407911,JUNK
-0.07201552,-0.09887876,-0.56816173,0.04865874,-0.3366448,-0.41448653,-0.77222037,-0.86163431,-0.14125457,-0.06440443,0.15235092,-0.51989436,-0.47632799,-0.3443462,-0.01825362,-0.66051102,-0.52583396,-0.50838286,-0.23497413,0.03569857,-0.09595219,-0.22577527,-0.57206792,-0.29904541,-0.24648029,-0.23274727,-0.77906948,-0.45431912,-0.1730011,0.01600336,0.15869407,0.24576576,-0.15927105,-0.35876164,0.12526548,0.03732685,-0.07637531,-0.86396646,-0.1241944,0.01424861,0.19307354,0.07537142,0.22681016,-0.09302346,-0.12254617,0.15412624,0.18304054,-0.04842607,-0.21252771,0.0392248,0.21958894,0.11165892,JUNK
-0.06875683,-0.09564489,-0.56354803,0.05305821,-0.33453968,-0.41262469,-0.76895106,-0.85296816,-0.13781729,-0.06500816,0.15401442,-0.5186277,-0.47457621,-0.34366542,-0.01902278,-0.65859121,-0.52673787,-0.50819665,-0.23178497,0.03453601,-0.09745441,-0.22460258,-0.56884289,-0.29773712,-0.25036833,-0.2332128,-0.7816903,-0.45900255,-0.17531216,0.01620456,0.15749912,0.24561824,-0.15668942,-0.35538867,0.1227504,0.0330785,-0.07454041,-0.87020904,-0.12827873,0.01466604,0.19238074,0.07435413,0.22651976,-0.08995035,-0.12120964,0.15236291,0.18034317,-0.05051016,-0.21491091,0.03801235,0.21844456,0.10963614,ADDITION
-0.06577159,-0.09303092,-0.55949169,0.05700729,-0.33272395,-0.4110426,-0.76629585,-0.84525263,-0.13459405,-0.06533141,0.15582862,-0.51756853,-0.47339046,-0.34276751,-0.01994705,-0.65677649,-0.52749187,-0.50829226,-0.22859618,0.0339162,-0.09840807,-0.2233361,-0.56606519,-0.29627302,-0.25375727,-0.23341721,-0.78427535,-0.46319702,-0.17716202,0.01703835,0.15709369,0.24594259,-0.15414165,-0.35183081,0.12092067,0.02941884,-0.07266974,-0.8758502,-0.13181566,0.01564541,0.19209142,0.07370205,0.22660568,-0.08655149,-0.11923884,0.15119646,0.17832546,-0.05223732,-0.21694961,0.03750223,0.21771809,0.10805661,ADDITION
-0.06301003,-0.09091512,-0.55569011,0.06067243,-0.33113265,-0.40964544,-0.76397711,-0.83819181,-0.13144539,-0.06537259,0.15774778,-0.5165922,-0.47258189,-0.34164131,-0.0209082,-0.65499192,-0.52819705,-0.50853324,-0.22539224,0.03377671,-0.09885795,-0.2219025,-0.56354707,-0.29466611,-0.25658759,-0.23337871,-0.78687602,-0.46694547,-0.17849566,0.01848063,0.1574038,0.24674763,-0.15164371,-0.34806994,0.11974963,0.02640246,-0.07070834,-0.88084185,-0.13477831,0.01719462,0.19219346,0.07340749,0.22704731,-0.0827901,-0.11661121,0.15074103,0.17705324,-0.05354225,-0.21852441,0.03765252,0.21742055,0.10695432,ADDITION
-0.06042906,-0.08918434,-0.55190194,0.0641957,-0.32970166,-0.40834239,-0.76174951,-0.83150452,-0.12825829,-0.06514104,0.15972471,-0.51558763,-0.47196838,-0.34027985,-0.02179613,-0.65314949,-0.52891356,-0.50879395,-0.22216372,0.03405842,-0.09885229,-0.22023895,-0.56111753,-0.29292053,-0.25882068,-0.23310749,-0.78949988,-0.47027305,-0.17927933,0.02050345,0.15835375,0.24802983,-0.14919375,-0.34407306,0.1191951,0.02406039,-0.06860363,-0.88513798,-0.13716036,0.01931268,0.1926675,0.07345967,0.22781944,-0.0786228,-0.11332128,0.15107475,0.17655244,-0.05437931,-0.21955501,0.03840549,0.21755128,0.10635117,ADDITION
-0.05799418,-0.08773896,-0.54796052,0.06769054,-0.32837114,-0.40705344,-0.75941473,-0.82494348,-0.12494992,-0.06465574,0.16171184,-0.51446444,-0.47138578,-0.3386853,-0.02251077,-0.65116471,-0.52966613,-0.50896811,-0.21891008,0.03470763,-0.09844322,-0.21829902,-0.55863279,-0.29103464,-0.26044148,-0.23260924,-0.7921204,-0.47319058,-0.17950284,0.02307307,0.1598675,0.24977182,-0.14677699,-0.3397986,0.11920294,0.02240103,-0.06630815,-0.88869953,-0.13897571,0.02198569,0.19348927,0.07384359,0.22889596,-0.07400608,-0.10938284,0.15223917,0.17681397,-0.05472401,-0.21999924,0.03968837,0.21809596,0.10625608,ADDITION
-0.05568095,-0.08649775,-0.54377466,0.07123789,-0.32709154,-0.40571591,-0.75683039,-0.81830865,-0.12146779,-0.06394232,0.16366833,-0.51315767,-0.47069758,-0.33686897,-0.02297439,-0.64896184,-0.53044605,-0.50897282,-0.21563859,0.03567908,-0.09768166,-0.21605241,-0.55598497,-0.28900582,-0.26145577,-0.23188566,-0.7946865,-0.47569743,-0.17917855,0.02615339,0.16187556,0.25194669,-0.14436813,-0.33520135,0.1197149,0.02141305,-0.06378167,-0.89149994,-0.14025366,0.0251887,0.19463202,0.07454248,0.23025031,-0.06889823,-0.1048228,0.15424246,0.17779978,-0.05457009,-0.21984635,0.0414204,0.21903083,0.10666672,ADDITION
-0.05347541,-0.08539958,-0.53932297,0.07488981,-0.32582602,-0.40428603,-0.75391281,-0.81145048,-0.11778655,-0.06303257,0.16555972,-0.51163149,-0.46980241,-0.33485353,-0.02312688,-0.64648438,-0.5312196,-0.50875103,-0.21236403,0.03693601,-0.09661789,-0.2134881,-0.5531038,-0.28683212,-0.26189113,-0.23093837,-0.79713058,-0.47778338,-0.17833996,0.02970466,0.16431589,0.2545121,-0.14193609,-0.33023626,0.12067081,0.02106906,-0.06099485,-0.89352715,-0.14103749,0.02888646,0.19606984,0.07553945,0.23185587,-0.06326354,-0.09967866,0.15706271,0.17945017,-0.05392823,-0.21911219,0.0435162,0.22032462,0.10756947,ADDITION
-0.05137007,-0.08440016,-0.53463638,0.07868329,-0.32454365,-0.40273714,-0.75063384,-0.80428046,-0.11390468,-0.06195096,0.16736563,-0.50987279,-0.46862498,-0.33266374,-0.02293493,-0.64369601,-0.53193533,-0.50826734,-0.20909896,0.03845668,-0.09528909,-0.21060719,-0.54995018,-0.28450882,-0.26178476,-0.22976469,-0.79938179,-0.47942919,-0.17702995,0.03368936,0.1671409,0.25742543,-0.13944477,-0.32485664,0.12202083,0.02133821,-0.05792095,-0.89477909,-0.14137135,0.03303523,0.19777992,0.07682399,0.2336929,-0.05706869,-0.09398293,0.16066694,0.1817012,-0.05281431,-0.21782391,0.04589646,0.22194165,0.10894485,ADDITION
-0.04936399,-0.08347223,-0.52978945,0.08263361,-0.32322693,-0.40106192,-0.74701393,-0.79675913,-0.10984057,-0.06072285,0.16907451,-0.50789303,-0.46712491,-0.3303377,-0.02239189,-0.64058292,-0.53254366,-0.50751036,-0.20586112,0.04022516,-0.0937309,-0.20742638,-0.54651898,-0.28204119,-0.26119074,-0.2283669,-0.80138087,-0.48062521,-0.1753058,0.03806725,0.17030923,0.26063517,-0.1368639,-0.31902471,0.12371792,0.02217545,-0.05454455,-0.89528155,-0.14130503,0.03758145,0.19974099,0.0783845,0.23573948,-0.05029149,-0.0877742,0.16499911,0.18448243,-0.05125593,-0.21602157,0.04848358,0.22384034,0.110765,ADDITION
-0.04745819,-0.0825998,-0.52487838,0.08674704,-0.32186624,-0.39926651,-0.74310935,-0.78888625,-0.10562173,-0.05936633,0.17068788,-0.50572002,-0.46528664,-0.32791632,-0.02151115,-0.63715035,-0.53299737,-0.50648308,-0.20266461,0.04223424,-0.09197022,-0.2039683,-0.54282606,-0.27943701,-0.26016378,-0.22674654,-0.80308247,-0.4813621,-0.17322636,0.04280037,0.1737885,0.2640945,-0.13416432,-0.31270567,0.1257287,0.02353884,-0.05085116,-0.89507437,-0.14087985,0.04246949,0.20193626,0.08021379,0.23797885,-0.04291622,-0.08108222,0.1700024,0.18773283,-0.04928046,-0.21374102,0.05121106,0.22597814,0.11299646,ADDITION
-0.04565467,-0.08177403,-0.52000219,0.09102515,-0.32045949,-0.39736879,-0.73900032,-0.7806977,-0.10128044,-0.05789522,0.17221567,-0.50339466,-0.46311387,-0.32544419,-0.02032667,-0.63342446,-0.5332616,-0.50520378,-0.1995215,0.0444786,-0.09003177,-0.20025972,-0.53890532,-0.27671281,-0.25876659,-0.22491278,-0.80446678,-0.481646,-0.17085443,0.04784817,0.17754684,0.26775518,-0.13132259,-0.30587369,0.12802491,0.02538068,-0.04683596,-0.89421993,-0.14013478,0.04763928,0.20435147,0.08230516,0.24039382,-0.03494013,-0.07393236,0.17561248,0.19139788,-0.04691973,-0.21101472,0.05402077,0.22831115,0.11560099,ADDITION
-0.0439541,-0.08098873,-0.5152517,0.09547011,-0.31900978,-0.39539388,-0.73477823,-0.77224874,-0.09684758,-0.05632041,0.1736716,-0.50096428,-0.46062467,-0.32296923,-0.01889048,-0.62944835,-0.53332156,-0.50370121,-0.19644004,0.04695116,-0.08793992,-0.19632918,-0.53480017,-0.27389184,-0.25706729,-0.22288379,-0.80554354,-0.48150158,-0.1682536,0.05316809,0.1815498,0.27157274,-0.12832503,-0.29851112,0.13058001,0.02764901,-0.04250156,-0.89280462,-0.13910602,0.05302772,0.20697337,0.08465191,0.24296598,-0.02637304,-0.06634729,0.18176058,0.19543223,-0.04420907,-0.20787312,0.05686286,0.2307964,0.11853705,ADDITION
-0.04235352,-0.08023629,-0.51069331,0.1000893,-0.31752262,-0.3933678,-0.73053217,-0.76361036,-0.09234649,-0.05463978,0.17508025,-0.49847558,-0.45784026,-0.32052726,-0.01725858,-0.62527275,-0.53317696,-0.50200117,-0.19341913,0.04964578,-0.08570728,-0.19219117,-0.53054905,-0.27099478,-0.2551218,-0.22067682,-0.80634522,-0.48095733,-0.16547303,0.05872383,0.18576552,0.27551997,-0.12515898,-0.29059923,0.13338031,0.03030534,-0.03785165,-0.89091909,-0.13780963,0.05858278,0.20979318,0.08724983,0.24568377,-0.01722518,-0.05832975,0.18839389,0.19980943,-0.04117546,-0.20432469,0.05970826,0.23339953,0.12176744,ADDITION
-0.04084642,-0.07950546,-0.50636488,0.10489189,-0.31600574,-0.39131731,-0.72634196,-0.7548539,-0.08779514,-0.05285487,0.1764612,-0.49597245,-0.45478517,-0.31815341,-0.01549565,-0.62095761,-0.53285497,-0.50013596,-0.19045545,0.0525463,-0.0833567,-0.18785694,-0.52618837,-0.26805001,-0.25299415,-0.21832378,-0.80693519,-0.48006815,-0.16256349,0.06447336,0.19014822,0.27957657,-0.12181899,-0.28213063,0.13640371,0.03329908,-0.03290131,-0.88867742,-0.13626404,0.06425008,0.21279861,0.09008913,0.24853061,-0.00752315,-0.04988982,0.19544916,0.20450491,-0.0378548,-0.20038299,0.06253175,0.23608719,0.12524989,ADDITION
-0.03942204,-0.07877984,-0.50227374,0.1098897,-0.31446725,-0.38926506,-0.72226983,-0.74605191,-0.08320352,-0.05096158,0.17783649,-0.49349174,-0.4514783,-0.31587136,-0.01366356,-0.61656171,-0.53240019,-0.49813235,-0.18753849,0.05563227,-0.08090729,-0.18332249,-0.52174211,-0.26508284,-0.25073776,-0.21585836,-0.80739379,-0.47889411,-0.15956242,0.07037875,0.19464906,0.28373897,-0.1183026,-0.2730996,0.13963127,0.03658684,-0.02767137,-0.88619643,-0.13447452,0.06998748,0.21597911,0.09315918,0.25149181,0.00270311,-0.04102875,0.20287274,0.20950289,-0.03428051,-0.19605057,0.06532345,0.2388351,0.12894796,ADDITION
-0.03806663,-0.07803697,-0.49839574,0.1150953,-0.31291509,-0.38722906,-0.71835643,-0.73726964,-0.07857303,-0.04895753,0.17922394,-0.49106109,-0.44793153,-0.31369564,-0.01182302,-0.6121425,-0.53187275,-0.49601468,-0.1846533,0.05887525,-0.07838225,-0.17857115,-0.51722223,-0.26211727,-0.2484035,-0.21332055,-0.80781543,-0.4775075,-0.15649985,0.07640273,0.19921142,0.28801635,-0.1146082,-0.26350626,0.14303848,0.04012236,-0.02219086,-0.88359743,-0.13244243,0.07576041,0.21932366,0.09644589,0.25455496,0.01341705,-0.0317504,0.21060988,0.21478923,-0.03048957,-0.19133191,0.06808187,0.24162617,0.13282879,ADDITION
-0.03676426,-0.07724965,-0.4946838,0.1205186,-0.31135628,-0.38522208,-0.71462375,-0.72856468,-0.07389946,-0.04684247,0.18063389,-0.48869798,-0.4441503,-0.31163141,-0.01002949,-0.6077522,-0.5313434,-0.49380603,-0.18178238,0.06223913,-0.07580896,-0.17357744,-0.51262826,-0.25917408,-0.24604085,-0.21075612,-0.8083024,-0.47598818,-0.15339987,0.08250813,0.20377222,0.29242727,-0.11073623,-0.25335813,0.14659274,0.04385431,-0.01649792,-0.88100374,-0.13016962,0.08154081,0.22281954,0.09993035,0.25770497,0.02457598,-0.02206705,0.2186013,0.2203456,-0.02652449,-0.1862403,0.07081102,0.2444507,0.13686371,ADDITION
-0.03549895,-0.07638887,-0.49107674,0.1261618,-0.30979708,-0.3832522,-0.71107423,-0.71998,-0.06917515,-0.04462022,0.18207021,-0.4864108,-0.44013333,-0.30967429,-0.00832765,-0.60343581,-0.53088599,-0.49152792,-0.17890853,0.06568253,-0.07321733,-0.16830805,-0.50794894,-0.25626913,-0.24369453,-0.20821294,-0.80895478,-0.47441769,-0.15028103,0.08866063,0.20826717,0.29699969,-0.10668635,-0.24267112,0.15025541,0.0477289,-0.01063951,-0.87853283,-0.12765819,0.08730853,0.22645333,0.10359082,0.26092932,0.03613354,-0.0120006,0.22678387,0.22614703,-0.02243295,-0.18079981,0.07352056,0.24730705,0.14103109,ADDITION
-0.03425611,-0.07542578,-0.4875083,0.13201547,-0.30824342,-0.38132259,-0.70769763,-0.71155393,-0.06439546,-0.04230047,0.18352854,-0.48420066,-0.43587661,-0.30781132,-0.00675686,-0.59923071,-0.53057373,-0.48920301,-0.17601764,0.06915936,-0.07064105,-0.16272949,-0.50316757,-0.25341433,-0.24140769,-0.20574041,-0.80986518,-0.47287464,-0.1471598,0.09482749,0.21263325,0.30176723,-0.10246003,-0.23147389,0.15398031,0.05168732,-0.00467218,-0.87629271,-0.12491556,0.0930479,0.2302108,0.10740081,0.26421395,0.04803934,-0.00158873,0.23508605,0.2321568,-0.01826919,-0.17505164,0.07622163,0.25020021,0.14531438,ADDITION
-0.03302441,-0.07433534,-0.48391703,0.13805625,-0.306701,-0.37943467,-0.70447427,-0.70332259,-0.05956073,-0.0399001,0.18499509,-0.48206347,-0.4313781,-0.30602559,-0.00534966,-0.59516782,-0.53047317,-0.48685852,-0.17310211,0.07262062,-0.06811788,-0.15681477,-0.49826512,-0.25061858,-0.23922297,-0.20338868,-0.81111103,-0.47143522,-0.14405477,0.10097649,0.21681248,0.30675292,-0.09806226,-0.21981226,0.15771401,0.05566492,0.00133829,-0.87438208,-0.12195899,0.09874366,0.23407717,0.11133077,0.26754579,0.06023642,0.00911087,0.24342671,0.23832336,-0.0140961,-0.16905871,0.07892334,0.25313959,0.14970143,ADDITION
-0.03179726,-0.07309923,-0.48025462,0.14424632,-0.30517468,-0.37758943,-0.70138323,-0.69531846,-0.05467801,-0.03744472,0.1864447,-0.47999272,-0.42664015,-0.30430099,-0.00413415,-0.59127587,-0.5306409,-0.48453054,-0.17016342,0.07601356,-0.06569069,-0.15055214,-0.49322531,-0.24789011,-0.2371868,-0.20120962,-0.81275523,-0.47016996,-0.14099129,0.10707179,0.22075275,0.31197104,-0.09350375,-0.20775385,0.16139482,0.05958787,0.00731544,-0.87288898,-0.11882018,0.10437424,0.23803461,0.11534546,0.27090824,0.07265984,0.02001555,0.25171113,0.24457729,-0.00998581,-0.16291028,0.08162756,0.25613594,0.15418358,ADDITION
-0.0305745,-0.07170816,-0.47649297,0.15053277,-0.30366889,-0.37578765,-0.69840562,-0.68757755,-0.04976444,-0.03495976,0.1878489,-0.47798136,-0.42167494,-0.30261439,-0.00313218,-0.58757579,-0.53111643,-0.48225695,-0.16720904,0.07928926,-0.06339362,-0.14394474,-0.48803744,-0.24523042,-0.23533499,-0.19924517,-0.81483078,-0.46913153,-0.13799182,0.11308271,0.22442062,0.31742668,-0.08879838,-0.19538428,0.1649667,0.06338931,0.01318161,-0.87187743,-0.11553504,0.10991895,0.24206753,0.11941295,0.27428788,0.08524378,0.0310307,0.25984639,0.25084099,-0.00600841,-0.15670592,0.08433769,0.25920531,0.15876029,ADDITION
-0.029363,-0.07016473,-0.47262824,0.15684734,-0.30218905,-0.37403393,-0.69552994,-0.68013817,-0.04484833,-0.03248394,0.18916537,-0.47602585,-0.41651106,-0.30095524,-0.00236766,-0.58409029,-0.53192937,-0.48009044,-0.16426048,0.08239609,-0.06127062,-0.13702896,-0.48270676,-0.24264826,-0.23371392,-0.19754159,-0.817357,-0.46837291,-0.13509448,0.11896992,0.22778995,0.32309455,-0.08397512,-0.18282147,0.16836467,0.06698775,0.01884735,-0.87140429,-0.1121641,0.11534031,0.24615704,0.12349361,0.27766377,0.09790656,0.04202791,0.26771986,0.25701624,-0.00224557,-0.15057705,0.08704029,0.26235729,0.16342895,ADDITION
-0.02817584,-0.06848276,-0.46868229,0.16311347,-0.30073914,-0.37233421,-0.69274998,-0.67303532,-0.03996598,-0.03004829,0.19035418,-0.47412455,-0.41118971,-0.29931232,-0.00185709,-0.5808385,-0.53308654,-0.47808102,-0.16134594,0.08529003,-0.05935005,-0.12986337,-0.47724757,-0.24014685,-0.23235241,-0.19612916,-0.82032508,-0.46792051,-0.13233201,0.12470013,0.23085938,0.32893369,-0.07906849,-0.17020097,0.17153981,0.07031922,0.02422987,-0.8714931,-0.10876402,0.12059929,0.25028637,0.12755504,0.28101993,0.11056736,0.05287679,0.27523342,0.26300526,0.00123207,-0.14464863,0.08972407,0.26560283,0.1681935,ADDITION
-0.0270323,-0.06668884,-0.46469855,0.16924809,-0.29932335,-0.37069866,-0.69006974,-0.66631061,-0.03516221,-0.02769211,0.19136593,-0.47228125,-0.40577197,-0.29768574,-0.0016176,-0.57784027,-0.5345853,-0.47628805,-0.15850651,0.08792661,-0.05766543,-0.12254418,-0.47169167,-0.23773767,-0.23128408,-0.19503754,-0.82371235,-0.4677985,-0.12975006,0.13023199,0.23363853,0.33486834,-0.07412925,-0.15768777,0.17444278,0.07331347,0.0292451,-0.87215883,-0.10541064,0.12563853,0.25443643,0.13156201,0.28433341,0.12312929,0.06342291,0.28228015,0.26870126,0.00435136,-0.13906266,0.09236211,0.26894242,0.17305367,ADDITION
-0.02595694,-0.06482042,-0.46073982,0.17516665,-0.29794538,-0.36913949,-0.68749982,-0.66000354,-0.03048851,-0.02544759,0.19215544,-0.4705044,-0.4003329,-0.29608169,-0.00166098,-0.57511514,-0.53640902,-0.4747659,-0.1557904,0.09026814,-0.05623665,-0.11519369,-0.4660826,-0.23543265,-0.23052686,-0.19428183,-0.82747644,-0.46801206,-0.12739059,0.13552642,0.23615757,0.34080458,-0.06921855,-0.14546266,0.17704085,0.07591754,0.0338202,-0.87339091,-0.10217647,0.1303958,0.25858858,0.13548493,0.28758252,0.13549462,0.07351366,0.28876972,0.27400368,0.00705263,-0.13394725,0.09492566,0.27237207,0.17801026,ADDITION
-0.02497867,-0.06292434,-0.4568809,0.18078797,-0.29660928,-0.36767188,-0.6850571,-0.65415418,-0.02599926,-0.02334459,0.19267793,-0.46880788,-0.39496225,-0.29451644,-0.00199977,-0.57268238,-0.53853053,-0.47356659,-0.15325229,0.09227993,-0.05507822,-0.10796108,-0.46047872,-0.2332501,-0.23009245,-0.19386879,-0.83156359,-0.46855804,-0.12529767,0.14054142,0.23845783,0.34662586,-0.06441012,-0.13372181,0.17931166,0.07808652,0.0378921,-0.87516493,-0.09913687,0.13479902,0.26272315,0.13929819,0.2907435,0.14755757,0.08299523,0.29462114,0.2788178,0.00928596,-0.12942022,0.09737898,0.27587777,0.18306129,ADDITION
-0.02412805,-0.061053,-0.45320189,0.18604118,-0.29531726,-0.36630967,-0.68275845,-0.64878941,-0.02174675,-0.0214031,0.19289547,-0.46720794,-0.38975814,-0.29301056,-0.00263636,-0.57055449,-0.54091394,-0.47272927,-0.15094684,0.09393474,-0.05419194,-0.10101254,-0.45494512,-0.23120828,-0.22997308,-0.19378798,-0.83590835,-0.46941492,-0.12350682,0.14523746,0.24059302,0.35220566,-0.05978441,-0.12266313,0.18125282,0.07979894,0.04141755,-0.87743068,-0.09635529,0.13877517,0.26682058,0.14298268,0.29379275,0.15921348,0.09172732,0.29977962,0.28306848,0.01102142,-0.12557402,0.09968601,0.27943805,0.18820094,ADDITION
-0.02343712,-0.05926121,-0.44978112,0.1908678,-0.29407239,-0.36506733,-0.6806218,-0.64393646,-0.01778043,-0.01963799,0.19277483,-0.46572414,-0.38482362,-0.29159331,-0.00356581,-0.56874245,-0.54351866,-0.47228345,-0.14892915,0.09520918,-0.05357258,-0.09452591,-0.44955486,-0.22933087,-0.23015335,-0.19402108,-0.84044051,-0.47055823,-0.12205028,0.14957432,0.24262187,0.35740733,-0.05542717,-0.1124822,0.18287209,0.08104409,0.0443677,-0.88013071,-0.09389068,0.14225028,0.27085945,0.14652376,0.29670653,0.17035761,0.09958357,0.30420634,0.28669369,0.01224227,-0.12247778,0.10180759,0.28302181,0.19341807,ADDITION
-0.02293609,-0.05760264,-0.44668847,0.19522654,-0.29287592,-0.36395603,-0.67865926,-0.639615,-0.01414148,-0.01804991,0.19229642,-0.46437597,-0.3802585,-0.2902928,-0.00476983,-0.56724757,-0.54629737,-0.47223723,-0.1472466,0.09608949,-0.05319945,-0.08867227,-0.44437981,-0.22763699,-0.23059486,-0.19453116,-0.84508544,-0.47194496,-0.12094324,0.15351968,0.24460812,0.3621017,-0.05142161,-0.10335412,0.18419905,0.08184005,0.04674068,-0.88318443,-0.09177922,0.14516267,0.27482021,0.14991672,0.29946503,0.18089564,0.10646936,0.30789691,0.28966132,0.01295767,-0.12016139,0.103712,0.28659317,0.19870043,ADDITION
-0.02265304,-0.05612653,-0.44398108,0.19909306,-0.29173005,-0.36298391,-0.67687798,-0.63583219,-0.01086173,-0.01663342,0.19145124,-0.46318322,-0.37615597,-0.28913897,-0.006222,-0.56606477,-0.54920322,-0.47258374,-0.14593898,0.09656847,-0.05304556,-0.08361048,-0.4394899,-0.22614588,-0.23124982,-0.19527274,-0.84976888,-0.47352898,-0.12019034,0.15704651,0.24661325,0.36617672,-0.0478432,-0.09542974,0.18527374,0.08221919,0.04855351,-0.88650602,-0.09004231,0.14746258,0.27868271,0.15316297,0.3020522,0.19074316,0.11231969,0.31086817,0.29196033,0.01319283,-0.11862219,0.10537283,0.29011032,0.20403096,ADDITION
-0.02261218,-0.05487446,-0.4417018,0.20246109,-0.29063642,-0.36215374,-0.67527735,-0.63257998,-0.00796152,-0.01537366,0.1902432,-0.46216285,-0.37259519,-0.28815678,-0.00788368,-0.56517684,-0.5521878,-0.47329396,-0.14503241,0.09664734,-0.0530763,-0.0794717,-0.43494806,-0.2248704,-0.23205397,-0.1961877,-0.8544184,-0.47525415,-0.11977825,0.16013712,0.24869193,0.36954245,-0.04475479,-0.08882162,0.1861494,0.08223553,0.04984833,-0.88999844,-0.08867868,0.1491202,0.28242812,0.15627077,0.30445698,0.19983381,0.11710447,0.31316462,0.29360899,0.01299309,-0.11782393,0.10677226,0.29352957,0.20938864,ADDITION
-0.02283203,-0.05387757,-0.43987229,0.20534213,-0.28959721,-0.36146238,-0.6738472,-0.6298452,-0.00544744,-0.01424339,0.188696,-0.46132851,-0.36963513,-0.28736094,-0.00969782,-0.56455547,-0.55519921,-0.47431642,-0.14453405,0.09633986,-0.05324202,-0.07634491,-0.43080226,-0.22381239,-0.23292635,-0.19720539,-0.85896355,-0.47705135,-0.11967045,0.16278951,0.25089577,0.37215304,-0.04219619,-0.08359247,0.18689349,0.08196611,0.05069005,-0.89355409,-0.08765855,0.15013701,0.28604239,0.15926066,0.30668029,0.20812868,0.1208418,0.31486103,0.29465488,0.01242573,-0.11768748,0.10791045,0.29681176,0.21475425,ADDITION
-0.02332484,-0.05315401,-0.43849412,0.20776358,-0.28861293,-0.36090088,-0.67257184,-0.62760305,-0.00331231,-0.01321252,0.18684347,-0.46068707,-0.36731237,-0.28675714,-0.01159807,-0.56416094,-0.55818892,-0.47558391,-0.14443219,0.09566955,-0.05349507,-0.07427499,-0.42708653,-0.22296537,-0.23378177,-0.19825202,-0.86334032,-0.47885233,-0.11981679,0.16501209,0.25326163,0.37399599,-0.0401839,-0.07975531,0.18757573,0.08149663,0.05116191,-0.89706922,-0.08693674,0.15053824,0.28951326,0.16215669,0.30872893,0.21561246,0.12358166,0.31604657,0.29516947,0.01156962,-0.11811453,0.10879593,0.29991919,0.22010495,ADDITION
-0.02409511,-0.05270374,-0.43752512,0.20977442,-0.28767398,-0.36044815,-0.6714161,-0.62579584,-0.00152631,-0.01224119,0.18474108,-0.46022832,-0.36562032,-0.28633726,-0.0135131,-0.56393939,-0.56111562,-0.47700554,-0.1446925,0.09467394,-0.05377779,-0.0732436,-0.42380148,-0.2223125,-0.23452421,-0.19924958,-0.8674953,-0.48058581,-0.12014206,0.16683277,0.25582126,0.37511161,-0.03870048,-0.0772654,0.18827675,0.08093295,0.05136501,-0.90043336,-0.08643638,0.1503841,0.29283762,0.16499464,0.31062105,0.22230805,0.12542598,0.31684074,0.29525647,0.01052312,-0.11895804,0.10945927,0.30282542,0.22542314,ADDITION
-0.0251356,-0.05250867,-0.43690372,0.21143597,-0.28677708,-0.36007786,-0.67033458,-0.62437618,-0.00004759,-0.01129302,0.18245141,-0.45993841,-0.36453414,-0.28607839,-0.01535906,-0.56383413,-0.56393826,-0.47848561,-0.14525551,0.09339681,-0.05404336,-0.07318039,-0.42092952,-0.22181976,-0.2350565,-0.20012528,-0.87138808,-0.48218554,-0.12056175,0.16829059,0.25858831,0.37557375,-0.03770253,-0.0760237,0.18907195,0.08037961,0.05140601,-0.90355182,-0.08607335,0.14975818,0.29601517,0.16781144,0.31237522,0.22826453,0.12649903,0.31736246,0.29503188,0.00938492,-0.12007007,0.1099355,0.30551177,0.23069304,ADDITION
-0.02643467,-0.05253792,-0.43657234,0.21280526,-0.28591272,-0.35975039,-0.66927451,-0.62328541,0.00117497,-0.01031922,0.18005648,-0.45979643,-0.36401621,-0.28592458,-0.01704069,-0.56376338,-0.56661254,-0.47991124,-0.14604716,0.09189089,-0.05422686,-0.07395989,-0.41844249,-0.22143355,-0.23526926,-0.20079257,-0.87497288,-0.48357344,-0.12097514,0.16944058,0.26156434,0.37552899,-0.03711825,-0.07587437,0.19003516,0.07995234,0.0514087,-0.90632552,-0.08574548,0.14878297,0.29905042,0.17065024,0.31404033,0.23357157,0.12696755,0.317747,0.2946206,0.00826682,-0.12128145,0.11029089,0.30797955,0.23590536,ADDITION
-0.02797754,-0.05276072,-0.43647847,0.21392334,-0.28508186,-0.35943818,-0.6681999,-0.62247205,0.00218937,-0.00928376,0.17763618,-0.4597784,-0.3640011,-0.2858237,-0.01846671,-0.56364977,-0.5690797,-0.48117307,-0.14698401,0.09022299,-0.05427517,-0.07541406,-0.41629702,-0.22109583,-0.23507367,-0.20117728,-0.87819517,-0.48466554,-0.12128097,0.17035161,0.2647489,0.37514257,-0.03684475,-0.0766263,0.19123206,0.07975505,0.05148762,-0.9086616,-0.08534936,0.14759381,0.30195621,0.17355557,0.31566671,0.23834382,0.12700266,0.31811452,0.29414782,0.00726651,-0.12243995,0.11059043,0.31023845,0.24105595,ADDITION
-0.02974105,-0.05313177,-0.43656263,0.21483578,-0.28427827,-0.35910657,-0.6670773,-0.62187904,0.00305102,-0.00815479,0.17527926,-0.4598546,-0.36440295,-0.28570932,-0.01955345,-0.56341571,-0.57128757,-0.48217243,-0.1479689,0.08846974,-0.05414129,-0.07732856,-0.41443202,-0.22073762,-0.23439014,-0.20121588,-0.88101834,-0.48539343,-0.12137922,0.17110258,0.268132,0.37461609,-0.03675449,-0.07804926,0.19272101,0.07988614,0.05175401,-0.91048545,-0.08478297,0.1463449,0.30475333,0.1765721,0.31730965,0.24271999,0.12678881,0.31858096,0.29374358,0.00647953,-0.12339579,0.11091051,0.31231216,0.24614474,ADDITION
-0.03169687,-0.05359936,-0.43676162,0.21558823,-0.28349155,-0.35871974,-0.6658746,-0.62145442,0.00381901,-0.00690596,0.17307587,-0.45998788,-0.36512098,-0.28550845,-0.02023203,-0.56298715,-0.57319069,-0.48282397,-0.14889282,0.08671427,-0.05378483,-0.07946176,-0.41277531,-0.22028351,-0.23315847,-0.20085965,-0.88341594,-0.48570108,-0.12117448,0.17177866,0.27169943,0.37416855,-0.03670612,-0.07989014,0.19454497,0.08042924,0.05230565,-0.91174185,-0.08395377,0.14519611,0.30746648,0.17974444,0.31902742,0.24685505,0.12651378,0.3192471,0.29353055,0.00599069,-0.1240135,0.11133257,0.31423667,0.25117788,ADDITION
-0.03381174,-0.05410824,-0.43701535,0.21621415,-0.28271037,-0.358244,-0.66456872,-0.62114215,0.00455079,-0.00551904,0.17111085,-0.46013817,-0.36605236,-0.28514588,-0.02044857,-0.56229782,-0.57474816,-0.48305809,-0.14964794,0.08503935,-0.05317594,-0.08155938,-0.41124687,-0.2196611,-0.23133971,-0.20007648,-0.88537061,-0.48554578,-0.12058506,0.17246605,0.27543411,0.37401897,-0.03655209,-0.08189186,0.1967316,0.08144743,0.05322314,-0.91239649,-0.08278456,0.14430156,0.31012538,0.18311201,0.32088029,0.25091699,0.12635171,0.32019269,0.29361671,0.00586908,-0.12418164,0.11193448,0.31605893,0.25616685,ADDITION
-0.03604872,-0.05460562,-0.43727165,0.21673907,-0.28192225,-0.35764796,-0.66314214,-0.62088931,0.00530107,-0.00398399,0.16945763,-0.46026438,-0.36709541,-0.28454685,-0.02016913,-0.5612908,-0.57592565,-0.48282486,-0.15013269,0.08352397,-0.05229613,-0.08337305,-0.40976533,-0.21880051,-0.22891442,-0.19885054,-0.88687301,-0.48489934,-0.11954677,0.17324689,0.27931616,0.37437624,-0.03614742,-0.08380968,0.19929458,0.08298301,0.05456724,-0.91243428,-0.08121589,0.1437986,0.31276155,0.18670648,0.32292616,0.2550725,0.12645352,0.3214758,0.2940914,0.00616649,-0.12381382,0.11278678,0.31783208,0.26112777,JUNK
-0.03836708,-0.05504047,-0.43748417,0.21718447,-0.2811107,-0.35690722,-0.66158617,-0.62064916,0.00611841,-0.00230055,0.16817391,-0.46032584,-0.36815318,-0.283649,-0.01938551,-0.55992579,-0.57670116,-0.48210058,-0.15025634,0.08223855,-0.05114013,-0.08467659,-0.40825069,-0.21764255,-0.22589508,-0.19718926,-0.88792908,-0.48375833,-0.11802123,0.17419267,0.28332263,0.37541714,-0.0353628,-0.08542549,0.20222464,0.08504797,0.05637246,-0.91186708,-0.07921875,0.14379558,0.31540468,0.19054985,0.32521558,0.25947812,0.12693627,0.3231253,0.29501805,0.00691199,-0.12285972,0.11394402,0.31960973,0.2660763,JUNK
-0.04072507,-0.05536998,-0.43761852,0.21756287,-0.28025946,-0.35600457,-0.65989983,-0.6203773,0.00704193,-0.00047977,0.16729598,-0.46028554,-0.36914235,-0.28240538,-0.01811513,-0.5581817,-0.57706571,-0.48088801,-0.14994618,0.08123979,-0.04971696,-0.08528227,-0.40663224,-0.21614319,-0.22232173,-0.19512041,-0.88855743,-0.48214224,-0.11599892,0.1753588,0.28742862,0.37727636,-0.03409214,-0.08656054,0.20549357,0.08762623,0.05864779,-0.9107334,-0.0767927,0.14436699,0.31808022,0.19465159,0.32778835,0.26426664,0.12787741,0.32514155,0.29643181,0.00811162,-0.12130257,0.11544271,0.32144204,0.27102649,JUNK
-0.04308201,-0.05556194,-0.43765244,0.21787924,-0.27935344,-0.3549321,-0.65809286,-0.62003446,0.0080985,0.00145867,0.16683966,-0.46011367,-0.36999661,-0.28078836,-0.0163982,-0.55605757,-0.57702488,-0.47921506,-0.14915259,0.08056797,-0.04804828,-0.08505134,-0.40485227,-0.21427779,-0.21826097,-0.19269109,-0.888789,-0.48009244,-0.11349826,0.1767825,0.29160711,0.38004315,-0.03225966,-0.08708447,0.20905454,0.09067432,0.06137476,-0.90909356,-0.07396566,0.14554688,0.32080674,0.19900835,0.3306717,0.26954183,0.12931119,0.32749668,0.29833627,0.00974792,-0.11915985,0.11729795,0.32337147,0.27598894,JUNK
-0.04539865,-0.05559473,-0.43757427,0.21813659,-0.27837819,-0.35369143,-0.6561814,-0.61958909,0.00930177,0.00348704,0.16679643,-0.45978811,-0.37066972,-0.27879322,-0.01430036,-0.55357194,-0.5765996,-0.47713175,-0.14784877,0.08024523,-0.04616854,-0.08390149,-0.40286866,-0.21204217,-0.21380363,-0.18996514,-0.88866782,-0.47767052,-0.11056421,0.17847878,0.29582813,0.38374934,-0.02982365,-0.08692099,0.2128446,0.09412403,0.06451213,-0.90703136,-0.07079132,0.14732565,0.3235935,0.20360303,0.33387616,0.27537084,0.13122708,0.33013859,0.30070764,0.01178322,-0.11648058,0.11950177,0.32542908,0.28096914,JUNK
-0.04763902,-0.05545841,-0.43738121,0.21833743,-0.27732033,-0.35229385,-0.65418798,-0.61901587,0.01064967,0.00557421,0.16713548,-0.45929688,-0.37113395,-0.27644002,-0.01190568,-0.55076444,-0.5758279,-0.47470778,-0.1460361,0.08027311,-0.04411986,-0.08181147,-0.40065676,-0.20945299,-0.20906171,-0.18702102,-0.88825095,-0.47495937,-0.10726689,0.18044312,0.30006152,0.38837075,-0.02677929,-0.08604974,0.21678673,0.09788513,0.06799607,-0.90465355,-0.06734431,0.14965284,0.32644147,0.20840648,0.33739629,0.28178009,0.13357404,0.33299437,0.3034955,0.01416124,-0.11334045,0.12202516,0.32763222,0.28596497,JUNK
-0.04977122,-0.05515613,-0.43707889,0.21848327,-0.27617007,-0.35076037,-0.65213925,-0.61829293,0.01212716,0.00768307,0.16780363,-0.45863861,-0.37138256,-0.27377343,-0.00931737,-0.5476945,-0.5747695,-0.47202936,-0.14374261,0.08063076,-0.04195501,-0.07882236,-0.39821231,-0.20654978,-0.20416659,-0.1839505,-0.88760781,-0.47206265,-0.10369971,0.18264905,0.30427212,0.39382508,-0.02316024,-0.08450695,0.22079101,0.10184572,0.07174446,-0.90208465,-0.06371863,0.15243748,0.3293409,0.21337651,0.341207,0.28875211,0.1362592,0.33597031,0.30662414,0.01680771,-0.10984042,0.12481515,0.32998168,0.29096535,JUNK
-0.05176983,-0.05470331,-0.4366782,0.21857662,-0.27492395,-0.34912148,-0.65006614,-0.61741388,0.01370449,0.00977119,0.16872643,-0.45782465,-0.37143046,-0.2708647,-0.00665085,-0.54444075,-0.57349813,-0.46919569,-0.14102373,0.08127466,-0.03973735,-0.07503409,-0.39555138,-0.20339549,-0.19926611,-0.18085632,-0.88681811,-0.46910226,-0.09997611,0.18504675,0.30841726,0.39997652,-0.01903519,-0.08238187,0.22475503,0.10587478,0.07565618,-0.89946246,-0.06002398,0.15555313,0.33226973,0.21845829,0.34526506,0.2962231,0.13915347,0.33895418,0.30999243,0.01963121,-0.10610405,0.12779674,0.33245969,0.29594833,JUNK
-0.05361632,-0.05412494,-0.4361957,0.21862154,-0.2735832,-0.34741485,-0.64800125,-0.6163761,0.01534125,0.0117971,0.16981566,-0.45687735,-0.37130824,-0.26780263,-0.00402677,-0.54109496,-0.57210302,-0.46630913,-0.13795567,0.08214321,-0.03753184,-0.07059374,-0.39270821,-0.20006894,-0.1945117,-0.17784327,-0.8859694,-0.46620631,-0.09621678,0.18757106,0.31245103,0.40665203,-0.01450266,-0.07980444,0.22857353,0.1098339,0.07962168,-0.89693516,-0.05637235,0.15885073,0.33519584,0.22358872,0.34951279,0.30409199,0.14210701,0.3418268,0.31348377,0.0225328,-0.10226382,0.13088234,0.33503407,0.3008841,JUNK
-0.05529903,-0.05345388,-0.4356479,0.21862397,-0.27215549,-0.34568253,-0.64597398,-0.6151852,0.01699057,0.01372268,0.17097716,-0.45582879,-0.37105837,-0.26468912,-0.00155956,-0.53775698,-0.57067901,-0.46346694,-0.13463005,0.0831607,-0.03540209,-0.06568119,-0.38972992,-0.19665973,-0.19004741,-0.17501022,-0.88515234,-0.46349609,-0.0925403,0.19014612,0.31632459,0.41365483,-0.00968068,-0.0769325,0.23214638,0.11359217,0.08353241,-0.89464158,-0.05286627,0.16217105,0.33808079,0.22869922,0.35388267,0.3122274,0.14496166,0.34447306,0.31698003,0.02541367,-0.09844711,0.13397928,0.33766115,0.30573672,JUNK
-0.05681427,-0.05272788,-0.43505281,0.21858928,-0.27065665,-0.34396935,-0.64401108,-0.61385781,0.01859855,0.0155071,0.1721109,-0.45471939,-0.37073374,-0.26163638,0.00064298,-0.5345301,-0.56932676,-0.46076137,-0.13115115,0.08423814,-0.03341788,-0.06050074,-0.3866778,-0.19326818,-0.18601398,-0.17245483,-0.88446182,-0.4610948,-0.08906306,0.19268472,0.31998071,0.42076808,-0.00470167,-0.07394499,0.23537305,0.11701544,0.08727448,-0.89272094,-0.04960379,0.1653496,0.34087893,0.23371625,0.35829499,0.32046849,0.1475497,0.34677264,0.32035398,0.02817036,-0.09478513,0.13698831,0.34028554,0.31046224,JUNK
-0.05816457,-0.05198673,-0.43442437,0.21852444,-0.26910731,-0.34231892,-0.64213568,-0.61241949,0.02010979,0.0171198,0.17312539,-0.45359379,-0.37038895,-0.25875199,0.00249085,-0.53151459,-0.56814361,-0.45826682,-0.12762424,0.08528399,-0.03163733,-0.05525744,-0.38361636,-0.18999118,-0.18252864,-0.17025818,-0.88398635,-0.45910421,-0.08588107,0.19510265,0.32336515,0.427784,0.00030087,-0.07101981,0.23816888,0.11998923,0.09074599,-0.89129674,-0.04665793,0.16823737,0.34354389,0.23856905,0.36266965,0.32864633,0.14972185,0.34862152,0.32348719,0.03071104,-0.09138924,0.13982187,0.34285045,0.31501684,JUNK
-0.05935976,-0.05126891,-0.43377635,0.2184342,-0.2675336,-0.34077239,-0.64036608,-0.61089993,0.02147044,0.01853125,0.17393392,-0.45249891,-0.37008068,-0.25613976,0.0039107,-0.52880472,-0.56722063,-0.45604387,-0.12415403,0.08620437,-0.03011936,-0.05015105,-0.38061416,-0.18692389,-0.17969313,-0.1684909,-0.88380808,-0.45761371,-0.08307482,0.19731493,0.32641849,0.43450007,0.00519783,-0.0683295,0.24045719,0.1224091,0.09385401,-0.89047617,-0.04408602,0.17070125,0.34602821,0.24318688,0.36692363,0.33658329,0.15134037,0.34992164,0.32626775,0.03294877,-0.08836205,0.14239874,0.34529641,0.3193548,JUNK
-0.06041537,-0.05061042,-0.43311748,0.21832065,-0.26596618,-0.33936468,-0.6387127,-0.60933489,0.02263026,0.01972244,0.17447032,-0.45148087,-0.36985978,-0.25388569,0.00485402,-0.52647889,-0.56663376,-0.45413044,-0.12083584,0.08691396,-0.02890677,-0.04535367,-0.3777366,-0.18414822,-0.17757677,-0.16720082,-0.88399535,-0.45668173,-0.08069571,0.19924966,0.32908815,0.44074929,0.00987536,-0.06602268,0.24218264,0.12419897,0.09652253,-0.89033848,-0.04191493,0.17264241,0.34828955,0.24750799,0.37098062,0.34411347,0.15230346,0.35059845,0.32860136,0.03481479,-0.08577681,0.14466091,0.34757218,0.3234356,JUNK
-0.06135179,-0.05004121,-0.43245301,0.21818352,-0.26443702,-0.33812195,-0.63718146,-0.6077612,0.0235464,0.02067989,0.17468368,-0.45058194,-0.36977071,-0.25205824,0.00529752,-0.52459943,-0.56644094,-0.45254499,-0.1177505,0.08733749,-0.02803501,-0.04100779,-0.37504208,-0.18173143,-0.17622225,-0.16641745,-0.88460118,-0.45634094,-0.07876952,0.20084587,0.33132455,0.44639453,0.01423959,-0.06421988,0.24330668,0.1253054,0.09869431,-0.89093477,-0.0401496,0.17399403,0.35029173,0.25147808,0.37477103,0.35108504,0.15253961,0.35059494,0.33041325,0.03625558,-0.08368848,0.14656834,0.34963402,0.32722276,JUNK
-0.06219247,-0.0495839,-0.43178433,0.21801922,-0.26297715,-0.33706027,-0.63577133,-0.6062178,0.02418634,0.02140139,0.17454614,-0.44983634,-0.36984688,-0.25070041,0.00524217,-0.52320576,-0.56667697,-0.45128378,-0.11495934,0.08741699,-0.02752295,-0.03721406,-0.37257934,-0.17971948,-0.17563777,-0.16614598,-0.88565898,-0.45659047,-0.07729084,0.20206101,0.33308932,0.45134521,0.01822188,-0.06300393,0.24381456,0.12570651,0.10033605,-0.89228201,-0.03876691,0.17472924,0.35200751,0.25505325,0.37823725,0.3573744,0.15201929,0.34988138,0.33165506,0.03723985,-0.08212277,0.14810811,0.35145271,0.33068934,JUNK
-0.06296367,-0.04925542,-0.43111423,0.21781427,-0.26161838,-0.33618596,-0.63447827,-0.60474145,0.02452799,0.02188876,0.17405134,-0.44927183,-0.370116,-0.24983229,0.00471537,-0.52231419,-0.56735069,-0.45032626,-0.11250522,0.08711112,-0.02737817,-0.03403216,-0.37038708,-0.17814039,-0.17580412,-0.16637217,-0.88718277,-0.45740137,-0.07622974,0.20286976,0.33435541,0.45554879,0.02177867,-0.06242218,0.24370986,0.12540458,0.10143132,-0.89436942,-0.03772539,0.17485946,0.35341933,0.25819993,0.38133341,0.36288673,0.15074836,0.34844643,0.33229765,0.03775299,-0.08108234,0.14928992,0.35301378,0.33381829,JUNK
-0.06369207,-0.04906379,-0.43044412,0.2175528,-0.26038674,-0.33549297,-0.63329208,-0.60336536,0.02456224,0.02215637,0.17321816,-0.44890419,-0.37059292,-0.2494411,0.00376965,-0.52191448,-0.56844062,-0.44963184,-0.11040569,0.08640232,-0.02758905,-0.03147669,-0.36848834,-0.17699547,-0.17666478,-0.1670555,-0.88916135,-0.45870745,-0.07552649,0.20326936,0.3351135,0.45900056,0.02489596,-0.06248076,0.24302393,0.12443785,0.1019906,-0.89714521,-0.03695928,0.17443512,0.35452244,0.26090091,0.38403231,0.36756471,0.14877625,0.34631166,0.33234346,0.03780631,-0.08053973,0.15015131,0.35432121,0.33660549,JUNK
-0.06440435,-0.04901076,-0.4297758,0.2172129,-0.25930402,-0.3349666,-0.63220173,-0.60212022,0.02429014,0.02222132,0.17208119,-0.44874018,-0.37128669,-0.24949475,0.0024702,-0.52197641,-0.56990057,-0.44915235,-0.10865965,0.08529128,-0.02813498,-0.02952951,-0.36689639,-0.17626941,-0.17814639,-0.16814335,-0.89156318,-0.46042714,-0.07510727,0.20327173,0.33536795,0.46172583,0.02757936,-0.06315676,0.24180098,0.12285964,0.10203829,-0.90053236,-0.03639915,0.1735318,0.35532147,0.2631484,0.3863169,0.37138274,0.14617868,0.34351227,0.3318119,0.03742459,-0.0804535,0.15074547,0.35539258,0.33905682,JUNK
-0.06512428,-0.04909248,-0.42911294,0.21677125,-0.25838351,-0.334582,-0.63119274,-0.60102534,0.02372562,0.02210878,0.17069113,-0.4487749,-0.37219888,-0.2499373,0.0008977,-0.5224461,-0.57166046,-0.44882962,-0.10724472,0.0837998,-0.02897999,-0.02814205,-0.36561182,-0.17592557,-0.18015011,-0.1695641,-0.89433628,-0.4624534,-0.07488186,0.20290752,0.33514372,0.46377939,0.02985355,-0.0643981,0.24010609,0.12074976,0.10162168,-0.9044261,-0.03596554,0.17224795,0.35583121,0.26494837,0.38818756,0.37435204,0.14306034,0.34011042,0.33074823,0.0366535,-0.08076229,0.15114284,0.35626006,0.34118843,REST
-0.06587289,-0.04930058,-0.4284614,0.21620499,-0.25762972,-0.33430687,-0.63024968,-0.60009593,0.0228918,0.02185224,0.16911179,-0.44899377,-0.37332457,-0.25069442,-0.00085801,-0.52325052,-0.57362962,-0.44860119,-0.10612141,0.08196859,-0.03007287,-0.0272448,-0.3646234,-0.1759105,-0.18255998,-0.17123364,-0.89740926,-0.46466476,-0.07475111,0.20222262,0.33448604,0.46523926,0.03175691,-0.06613218,0.23802079,0.11820714,0.1008026,-0.90869808,-0.03557636,0.17069684,0.35607564,0.26631841,0.38965738,0.37651521,0.13954833,0.33619052,0.32921794,0.03555572,-0.08138698,0.15142614,0.35696799,0.34302747,REST
-0.06666788,-0.04962464,-0.4278298,0.21549173,-0.25703904,-0.33410618,-0.62935889,-0.59933621,0.02181838,0.02148075,0.16740434,-0.44937548,-0.3746599,-0.25168955,-0.00271484,-0.52430856,-0.57571071,-0.44841298,-0.10524284,0.07984717,-0.03136439,-0.02676878,-0.36391819,-0.17616647,-0.18526441,-0.17307028,-0.90070164,-0.46694764,-0.07462609,0.2012659,0.33344877,0.46618354,0.03332939,-0.06828347,0.23562637,0.11532743,0.09964824,-0.91321772,-0.03516836,0.1689854,0.35608104,0.26728058,0.39074314,0.37792999,0.13576499,0.33183828,0.32729223,0.03419612,-0.08225464,0.15167128,0.35756159,0.34460181,REST
-0.06752249,-0.05005377,-0.4272286,0.21461558,-0.25659835,-0.3339411,-0.62850654,-0.59874225,0.02054238,0.02103293,0.1656359,-0.44989175,-0.37619746,-0.25283605,-0.00459034,-0.52552778,-0.57779562,-0.44821045,-0.10455114,0.0774991,-0.03278868,-0.02664072,-0.36347461,-0.17662375,-0.18813892,-0.17498295,-0.90412122,-0.4691796,-0.07441639,0.20009796,0.3321076,0.46669599,0.03461437,-0.07076848,0.23301961,0.11222419,0.09823891,-0.91783917,-0.03467775,0.1672208,0.35588035,0.26786903,0.39147434,0.37867963,0.13184611,0.32716465,0.32506007,0.03265576,-0.08327523,0.15195924,0.35809186,0.34594804,REST
-0.06844585,-0.05057753,-0.42666969,0.2135659,-0.25628719,-0.33377606,-0.62768221,-0.59830064,0.01910333,0.02053901,0.16386074,-0.45051244,-0.37793311,-0.25405702,-0.00641598,-0.52681953,-0.5797807,-0.44795462,-0.10399087,0.07498743,-0.03428837,-0.026807,-0.36327508,-0.17721841,-0.19107708,-0.17689347,-0.90757585,-0.47126392,-0.07405399,0.19877365,0.33054075,0.46684018,0.03564574,-0.07351718,0.23028778,0.10899531,0.09665103,-0.9224267,-0.03406826,0.16548683,0.35550287,0.26811773,0.39188004,0.3788479,0.12790591,0.32227287,0.32260624,0.03100969,-0.08437393,0.15235126,0.35860127,0.34709668,REST
-0.06944263,-0.05118848,-0.42616823,0.21233897,-0.25607869,-0.33357793,-0.62687659,-0.59799081,0.01754058,0.02003084,0.16212684,-0.45120668,-0.3798641,-0.25528038,-0.00813349,-0.52809572,-0.58156967,-0.44761434,-0.10350852,0.07237737,-0.03580205,-0.02722874,-0.36330146,-0.17788734,-0.19397628,-0.17872697,-0.91097564,-0.473111,-0.07348373,0.19734833,0.32883528,0.46666801,0.03644812,-0.0764685,0.22752048,0.10573915,0.0949635,-0.92685163,-0.03331436,0.16385108,0.35497782,0.26806703,0.3919912,0.37852526,0.12404919,0.31727463,0.32001883,0.02933604,-0.08547305,0.15289819,0.35912639,0.34807789,REST
-0.07051367,-0.05188186,-0.42573911,0.21093784,-0.25594249,-0.33331928,-0.62608141,-0.59779048,0.01589251,0.0195343,0.16046961,-0.45194623,-0.38199022,-0.2564474,-0.00970133,-0.5292778,-0.58307999,-0.4471696,-0.10305788,0.06972898,-0.03727478,-0.02788949,-0.36354053,-0.17857566,-0.19674836,-0.18042052,-0.91423535,-0.47465545,-0.07267004,0.19587088,0.32707775,0.46621138,0.03703557,-0.07957761,0.2248003,0.10254248,0.09324892,-0.930996,-0.0324078,0.16235851,0.35432988,0.2677592,0.39183873,0.37779632,0.12035967,0.3122775,0.31738046,0.02770738,-0.08650267,0.15363273,0.3596921,0.34891525,REST
-0.07165607,-0.05265484,-0.4253954,0.20937403,-0.25584579,-0.33297828,-0.62529039,-0.59767425,0.01419611,0.0190706,0.15891123,-0.45270523,-0.3843132,-0.25751373,-0.01109284,-0.53029847,-0.58424699,-0.44660947,-0.1026006,0.06709482,-0.03865894,-0.02879395,-0.36398229,-0.17923667,-0.19931901,-0.18192284,-0.91728121,-0.47585016,-0.07159509,0.1943814,0.3253493,0.4654803,0.0374103,-0.08281504,0.22220282,0.09948136,0.09157547,-0.93475986,-0.03135384,0.16103061,0.35357848,0.26723555,0.39144981,0.37673652,0.11689826,0.30738461,0.31476852,0.02619068,-0.08739992,0.15456869,0.36031017,0.34962469,REST
-0.07286414,-0.05350716,-0.42514825,0.20766638,-0.25575656,-0.33254141,-0.62449652,-0.59761441,0.01248851,0.01865465,0.15746197,-0.45346355,-0.3868354,-0.25845179,-0.01229492,-0.53110534,-0.58502555,-0.44593257,-0.10210835,0.06451809,-0.0399158,-0.02996322,-0.364622,-0.17983472,-0.20163122,-0.18319751,-0.92005372,-0.47667068,-0.07025902,0.19291027,0.3237212,0.46447,0.03756468,-0.08616569,0.21979314,0.09661689,0.09000163,-0.93806618,-0.03017011,0.15986887,0.35273701,0.26653814,0.39084905,0.37540898,0.11370434,0.30268958,0.31224936,0.02484379,-0.08810788,0.1557022,0.36097828,0.35021421,REST
-0.07413018,-0.05443938,-0.4250066,0.20583753,-0.25564641,-0.33200133,-0.62369323,-0.59758079,0.01080433,0.01829261,0.1561216,-0.45420694,-0.38955835,-0.25924799,-0.01330643,-0.53166139,-0.58538991,-0.44514272,-0.10156278,0.06203097,-0.04101911,-0.03142944,-0.36545947,-0.18034513,-0.2036422,-0.18422112,-0.92250955,-0.47710812,-0.06867582,0.19147779,0.3222501,0.46316561,0.03748559,-0.08962476,0.2176255,0.09399682,0.0885763,-0.94085491,-0.02888112,0.15885998,0.35181245,0.26570508,0.39005539,0.37386292,0.11079483,0.29827401,0.30987906,0.02371484,-0.08857581,0.15701361,0.36168051,0.35068259,REST
-0.07544465,-0.0554519,-0.42497668,0.20391124,-0.25549361,-0.33135733,-0.62287247,-0.59754604,0.00917632,0.01798356,0.15488496,-0.45492759,-0.39248151,-0.25990257,-0.01413341,-0.53194225,-0.58533347,-0.44424647,-0.10095491,0.0596558,-0.04195324,-0.03322572,-0.36649692,-0.18075332,-0.20532027,-0.18498057,-0.9246214,-0.47716483,-0.06686933,0.19009522,0.32097572,0.46154732,0.03715982,-0.09319168,0.21574464,0.09165894,0.08733792,-0.94308758,-0.02751206,0.15798324,0.35080642,0.26477316,0.38908589,0.37213492,0.10817198,0.29420826,0.30770186,0.02284196,-0.0887536,0.15847379,0.3623895,0.35102001,REST
-0.07679596,-0.05654348,-0.42505947,0.20191042,-0.25528377,-0.33061361,-0.62202513,-0.59748858,0.00763659,0.01771604,0.15374213,-0.45562276,-0.3955982,-0.26042861,-0.01478383,-0.5319373,-0.58486468,-0.4432528,-0.10028497,0.05740218,-0.04271913,-0.03537945,-0.36773825,-0.18105485,-0.2066475,-0.18547495,-0.92638057,-0.47685248,-0.06487229,0.18876107,0.31991342,0.45959991,0.03657684,-0.09686585,0.21418093,0.08962678,0.08631458,-0.9447453,-0.02608857,0.15721229,0.34971327,0.26377293,0.3879534,0.37024754,0.10582065,0.29054406,0.30574819,0.02225009,-0.08859847,0.16004343,0.36306703,0.35120842,REST
-0.07817183,-0.05770911,-0.42525211,0.19985418,-0.25501069,-0.32977548,-0.62114006,-0.59739101,0.00621687,0.01747938,0.15269294,-0.45629317,-0.39889345,-0.26083583,-0.01526062,-0.53164083,-0.58399624,-0.44216058,-0.09955418,0.05527665,-0.04331775,-0.0378926,-0.36918178,-0.18124336,-0.20759875,-0.18569948,-0.92778516,-0.47616869,-0.06270739,0.18747543,0.31906492,0.45733097,0.03573969,-0.10063069,0.21296686,0.08793166,0.08553421,-0.94581604,-0.02461635,0.15653527,0.34852716,0.26273707,0.38667512,0.36822286,0.10373326,0.28733313,0.30404752,0.02196478,-0.08805362,0.1616933,0.36367643,0.35122991,REST
-0.07955933,-0.05893981,-0.42554748,0.1977534,-0.25467849,-0.32885042,-0.62020665,-0.59724289,0.00494761,0.01724926,0.15173776,-0.4569428,-0.40234625,-0.26114169,-0.01556506,-0.53105605,-0.58274996,-0.44097057,-0.09876834,0.05327602,-0.04377047,-0.0407477,-0.37082541,-0.18132134,-0.20816432,-0.18566144,-0.92884845,-0.47511661,-0.06040101,0.18622661,0.31840342,0.45475841,0.03466129,-0.10446164,0.21211697,0.08658689,0.08501175,-0.94630623,-0.02310255,0.15594462,0.34723684,0.2616874,0.385263,0.36607105,0.10188781,0.28459883,0.30261382,0.02199499,-0.08707698,0.16339006,0.3641758,0.35105982,REST
-0.08094446,-0.06021957,-0.42593479,0.19561407,-0.25429827,-0.32784286,-0.61921108,-0.59703672,0.00386203,0.01700757,0.15089485,-0.45757425,-0.40592092,-0.26135436,-0.01568819,-0.5301851,-0.58114111,-0.43967,-0.09792718,0.05139938,-0.04409362,-0.0438875,-0.37265667,-0.18128367,-0.20832248,-0.18535879,-0.92958742,-0.47367442,-0.05796096,0.18500809,0.31788999,0.45193753,0.03337537,-0.10830773,0.2116503,0.08561946,0.08476426,-0.94622046,-0.02152721,0.15545633,0.34583274,0.26064768,0.38373673,0.36381149,0.10028256,0.28236803,0.30146399,0.02235374,-0.08560897,0.16512027,0.36453241,0.35067925,REST
-0.08231197,-0.06152582,-0.42639834,0.19343501,-0.25388885,-0.32675567,-0.61813974,-0.59676993,0.00299391,0.01673079,0.15019029,-0.45818928,-0.40957212,-0.26147902,-0.01561615,-0.52903074,-0.57918233,-0.43824476,-0.09702855,0.0496426,-0.04431347,-0.04722451,-0.37465617,-0.18112636,-0.20806041,-0.1847941,-0.93002605,-0.47181332,-0.05539031,0.18380907,0.31746474,0.4489421,0.03193015,-0.11210139,0.21157318,0.085047,0.08480188,-0.94557458,-0.01986588,0.15509899,0.34430325,0.25963214,0.38211536,0.36146003,0.09891655,0.28064772,0.30060661,0.02304475,-0.08359983,0.16687809,0.36471766,0.35006881,REST
-0.08364502,-0.06282891,-0.42692101,0.19120897,-0.2534731,-0.32558778,-0.61697972,-0.59643954,0.00237475,0.01639782,0.149664,-0.45878598,-0.41324306,-0.26151332,-0.01532453,-0.52759212,-0.57687962,-0.43667474,-0.09606477,0.04800371,-0.04445606,-0.05063879,-0.37679514,-0.18083997,-0.20736368,-0.18396559,-0.93019032,-0.46949056,-0.05267986,0.18262093,0.3170563,0.44587246,0.0303892,-0.11575426,0.21188813,0.08489069,0.08513509,-0.94438678,-0.01808072,0.15491773,0.34263653,0.25864953,0.3804203,0.35903901,0.09780095,0.27943882,0.30005088,0.02407098,-0.08100059,0.16867289,0.36471325,0.34921294,REST
-0.08492555,-0.06409363,-0.42748097,0.18892331,-0.25307649,-0.32433558,-0.61572093,-0.59604889,0.00203137,0.01599358,0.14936891,-0.45935881,-0.41686574,-0.26144692,-0.01478557,-0.5258655,-0.57423198,-0.43493739,-0.09502273,0.0464833,-0.04454235,-0.05398158,-0.37903649,-0.18041013,-0.20622031,-0.18286896,-0.93010587,-0.46665227,-0.04981034,0.18143958,0.31658679,0.44285235,0.02882843,-0.11916136,0.21259208,0.08517182,0.08577451,-0.9426828,-0.01612423,0.15497127,0.34082189,0.25770229,0.37867725,0.35657752,0.09696046,0.27873549,0.29980522,0.02543405,-0.07776521,0.17053035,0.36451271,0.34810403,REST
-0.08613334,-0.06527966,-0.42805499,0.18656513,-0.25272155,-0.32298934,-0.61435401,-0.59559494,0.00198561,0.01551452,0.14936994,-0.45989576,-0.42036262,-0.26125744,-0.01396886,-0.52383876,-0.57122749,-0.4330042,-0.09388109,0.04508791,-0.04458287,-0.05708287,-0.38133258,-0.17981319,-0.20461527,-0.18149234,-0.92979193,-0.46323174,-0.04674869,0.18026868,0.31597817,0.44002268,0.02733181,-0.12220323,0.21368256,0.08591934,0.08673652,-0.94047797,-0.013936,0.15532885,0.33885103,0.25678924,0.37691486,0.35411349,0.0964351,0.27853501,0.29988712,0.0271409,-0.07385103,0.17249282,0.36412305,0.34674272,REST
-0.08724676,-0.06634307,-0.42861637,0.18412481,-0.25242627,-0.32153764,-0.61287618,-0.59507287,0.0022499,0.01496414,0.14973377,-0.46037966,-0.42365026,-0.26092046,-0.01284718,-0.52149791,-0.56785452,-0.43085262,-0.0926152,0.04382551,-0.04458273,-0.05976858,-0.38363042,-0.17902367,-0.20254663,-0.17982744,-0.92926723,-0.45917055,-0.04346168,0.17911485,0.3151539,0.4375236,0.02598214,-0.12475915,0.2151469,0.08715318,0.08803568,-0.93780243,-0.01145968,0.15605617,0.3367151,0.25590101,0.37516016,0.35168755,0.0962688,0.27882659,0.30031297,0.02919486,-0.06923174,0.17460953,0.36356097,0.3451353,REST
-0.08824306,-0.06723914,-0.4291372,0.18160075,-0.25219971,-0.31996837,-0.61128938,-0.59447438,0.0028233,0.01435452,0.1505221,-0.46078813,-0.42664251,-0.26041201,-0.01140398,-0.51882857,-0.56410336,-0.42846751,-0.09119886,0.0427045,-0.04454173,-0.06187557,-0.3858752,-0.17801572,-0.20002897,-0.17787167,-0.9285475,-0.45442528,-0.03991951,0.17798732,0.31404093,0.43547866,0.02485182,-0.126716,0.21696159,0.0888826,0.08968595,-0.93469161,-0.0086479,0.1572061,0.33440471,0.25501862,0.37343425,0.34933794,0.09650244,0.27959394,0.30110055,0.03159632,-0.06390677,0.17692894,0.36284953,0.34329179,REST
-0.0890986,-0.06792454,-0.42958626,0.17900291,-0.25203997,-0.31827033,-0.6096006,-0.59378928,0.00369044,0.01371294,0.15179059,-0.46109542,-0.42925224,-0.25970972,-0.00963789,-0.51581913,-0.55997235,-0.42584223,-0.08960658,0.04173525,-0.04444458,-0.06326068,-0.38801107,-0.1767627,-0.19709186,-0.17562707,-0.92764509,-0.4489733,-0.03609674,0.17690207,0.31258181,0.43399271,0.02399987,-0.12797421,0.21909629,0.09110913,0.09170059,-0.93119055,-0.00546036,0.15881568,0.33191156,0.25412032,0.3717562,0.34710234,0.09717946,0.28082374,0.30227023,0.03434626,-0.05789199,0.17950091,0.36201787,0.34122881,REST
-0.0897906,-0.06836025,-0.42993271,0.17635481,-0.25193271,-0.31643647,-0.60782564,-0.59300208,0.00481553,0.01307355,0.15357487,-0.46127442,-0.43139848,-0.25880262,-0.0075717,-0.51246524,-0.55547971,-0.42298546,-0.08781993,0.04092241,-0.04427334,-0.06382119,-0.38998845,-0.1752452,-0.19379207,-0.17311049,-0.9265734,-0.44283089,-0.03198474,0.17587459,0.31072837,0.43312967,0.02345924,-0.12846275,0.22150484,0.09381232,0.09408735,-0.92736381,-0.0018786,0.16088982,0.32922444,0.25317419,0.37013248,0.3450067,0.09832509,0.28249371,0.30383855,0.03743752,-0.0512389,0.18236099,0.36109355,0.33896318,REST
-0.0902985,-0.0685148,-0.4301438,0.17369491,-0.25185236,-0.31446588,-0.60598445,-0.59209597,0.00614255,0.01248195,0.15589166,-0.46130028,-0.43300915,-0.25769064,-0.00525111,-0.50877273,-0.55066347,-0.41991866,-0.08582997,0.04026595,-0.04399893,-0.06350144,-0.391765,-0.1734502,-0.19020751,-0.17035079,-0.92534465,-0.43605256,-0.0275882,0.17492378,0.30845135,0.4329119,0.02323589,-0.12814187,0.22413215,0.09695642,0.09684803,-0.92328423,0.00210093,0.16340385,0.32633278,0.25214604,0.36855993,0.34306526,0.09995346,0.28458256,0.30581912,0.04085899,-0.04402298,0.18553272,0.36010343,0.33651441,REST
-0.09060392,-0.0683656,-0.43018723,0.17108011,-0.25176084,-0.31236652,-0.60410517,-0.59105319,0.00759502,0.01198712,0.15872626,-0.46115145,-0.43402553,-0.25639313,-0.00275156,-0.50476462,-0.54559153,-0.41668171,-0.08364032,0.03975614,-0.04359435,-0.06230653,-0.39331108,-0.17137842,-0.18644907,-0.16739909,-0.92397475,-0.42874742,-0.02293545,0.17406411,0.30573386,0.43330187,0.0233012,-0.12701415,0.22690475,0.1004755,0.09997409,-0.91904557,0.00645268,0.16629128,0.32322446,0.25099465,0.36702031,0.34127134,0.1020497,0.28705677,0.30821618,0.04458763,-0.0363594,0.18901406,0.35906467,0.33389768,REST
-0.09069252,-0.0679011,-0.43002918,0.16858403,-0.25160939,-0.31015626,-0.60221916,-0.58985525,0.00907787,0.01164503,0.16203642,-0.46081236,-0.43440366,-0.25494623,-0.00017547,-0.50048107,-0.54036337,-0.41332656,-0.08126643,0.03937701,-0.0430276,-0.06030167,-0.39461005,-0.16904207,-0.18264905,-0.16432253,-0.92248368,-0.42107162,-0.01807237,0.17331184,0.30257979,0.43420932,0.02359511,-0.12512174,0.22974071,0.10428477,0.10344765,-0.91475338,0.01113231,0.16945294,0.31988877,0.24967815,0.36548325,0.33960101,0.10457958,0.28988224,0.31102732,0.04859383,-0.0283853,0.19278266,0.35798606,0.33112541,REST
-0.09055538,-0.06712217,-0.42963862,0.16629288,-0.25134239,-0.30786368,-0.60036188,-0.58848351,0.01047928,0.01150929,0.16574623,-0.4602761,-0.4341183,-0.25340688,0.00235283,-0.49598235,-0.53511173,-0.40991947,-0.07873979,0.03910115,-0.04227288,-0.05761472,-0.39566091,-0.16646913,-0.17896414,-0.16120806,-0.92089868,-0.41323233,-0.01306779,0.17267887,0.29900688,0.43548441,0.02402492,-0.1225507,0.23254514,0.10827385,0.10723647,-0.91053063,0.01607111,0.17275342,0.31631571,0.24815395,0.36390164,0.33800575,0.10747914,0.29301471,0.31423673,0.05283537,-0.02026631,0.19678813,0.35686406,0.32820496,REST
-0.09019024,-0.06604207,-0.42898467,0.1643035,-0.25089988,-0.30552751,-0.59856987,-0.58692265,0.0116768,0.01163099,0.1697513,-0.45954463,-0.43316391,-0.25184935,0.00468683,-0.49134904,-0.52999914,-0.40653446,-0.0761053,0.03889288,-0.04130896,-0.05443018,-0.39647841,-0.16370067,-0.17556545,-0.15815787,-0.91925174,-0.40547666,-0.00800533,0.17217448,0.29504851,0.4369303,0.02447282,-0.11942467,0.23521765,0.11231399,0.11129921,-0.90650362,0.02118408,0.17603087,0.31249905,0.24638231,0.36221668,0.33641607,0.11066146,0.29640406,0.31781763,0.05726154,-0.01218457,0.2009574,0.3556844,0.32513818,REST
-0.08960439,-0.06468854,-0.42804223,0.16271575,-0.25022227,-0.30319506,-0.59687912,-0.58516723,0.01254346,0.0120585,0.17391899,-0.45863089,-0.43155944,-0.25035957,0.00667129,-0.48667687,-0.52521288,-0.40324795,-0.0734199,0.03870733,-0.04012077,-0.05098167,-0.39709324,-0.16079095,-0.17262767,-0.15528461,-0.91758037,-0.39808035,-0.00297886,0.17180555,0.29075524,0.43830714,0.0247992,-0.115904,0.23765866,0.11626363,0.11558186,-0.90280288,0.02637654,0.17910224,0.30843848,0.2443303,0.36036289,0.3347477,0.11401867,0.29999551,0.32173035,0.06181275,-0.00432824,0.20519733,0.35442424,0.32192662,REST
-0.088812,-0.06309804,-0.42679086,0.16162568,-0.2492554,-0.30092165,-0.59532213,-0.58321464,0.01295273,0.01282485,0.17809592,-0.45755944,-0.42934191,-0.24903412,0.00814913,-0.48207682,-0.52095538,-0.40013793,-0.07075159,0.03849436,-0.03870912,-0.04753345,-0.3975499,-0.15780708,-0.17032893,-0.15271096,-0.91592741,-0.39134064,0.00190734,0.171572,0.28618234,0.4393498,0.02485571,-0.11217181,0.23976558,0.11996707,0.1200165,-0.89955765,0.03154134,0.18177876,0.30414033,0.24196938,0.35826209,0.33289883,0.11742154,0.30372083,0.32591882,0.06641773,0.00310758,0.20939685,0.35304862,0.31856254,REST
-0.08783646,-0.06131712,-0.42521822,0.16111818,-0.24795623,-0.29876557,-0.59392631,-0.58107412,0.01278487,0.0139516,0.18212341,-0.45636421,-0.42656603,-0.24797453,0.00897304,-0.47766593,-0.51743364,-0.39727539,-0.06817408,0.03820578,-0.03708468,-0.04436346,-0.39790416,-0.15482135,-0.16883199,-0.15055592,-0.91433704,-0.38555056,0.00655008,0.17147292,0.28139395,0.43979195,0.02449487,-0.10841838,0.2414443,0.12327392,0.12452932,-0.89688408,0.03657348,0.18388364,0.29961887,0.23928134,0.35583374,0.33075744,0.12073776,0.30750927,0.33031729,0.07100178,0.0099419,0.21343967,0.35151872,0.31503561,REST
-0.08670799,-0.05939804,-0.42331788,0.161263,-0.24629469,-0.29678586,-0.59271151,-0.57876378,0.01193804,0.0154463,0.18584099,-0.4550876,-0.42330056,-0.24727862,0.00901372,-0.47356409,-0.51484698,-0.39472079,-0.06576104,0.03779713,-0.03526904,-0.04174295,-0.39821586,-0.15191075,-0.1682784,-0.1489322,-0.91285336,-0.38098529,0.01085355,0.17150626,0.27646309,0.43937567,0.02358048,-0.10483233,0.24261317,0.12604071,0.12904049,-0.89487821,0.04137335,0.18526065,0.29489982,0.23626126,0.35299906,0.32821438,0.1238368,0.31128567,0.33485007,0.07548738,0.01601312,0.21720941,0.3497957,0.31133318,REST
-0.08546364,-0.05739777,-0.42109403,0.16210572,-0.24425791,-0.29503784,-0.59168917,-0.57630789,0.01033502,0.0173008,0.18909633,-0.45377797,-0.41962889,-0.24703388,0.00817234,-0.46988356,-0.51337409,-0.39251947,-0.06358279,0.03722871,-0.03329637,-0.03992269,-0.39854795,-0.14915165,-0.16877602,-0.14793627,-0.91151738,-0.37788385,0.01473559,0.17166616,0.27146491,0.43787324,0.02199751,-0.10159205,0.24320859,0.12814134,0.13347018,-0.89361244,0.04585406,0.18578222,0.29001993,0.23291406,0.34968597,0.32516551,0.12659486,0.31497362,0.3394351,0.0797983,0.02119146,0.22059712,0.34784445,0.30744553,REST
-0.08414596,-0.0553734,-0.41855791,0.16366753,-0.24184953,-0.29356948,-0.59086227,-0.5737409,0.00792691,0.0194977,0.19175921,-0.45248646,-0.41564092,-0.2473072,0.00638826,-0.46672156,-0.51315844,-0.39069548,-0.0616991,0.03647402,-0.03120459,-0.03911055,-0.39895892,-0.14661132,-0.17038825,-0.14763972,-0.91036147,-0.37642938,0.01813852,0.1719496,0.26647788,0.43510348,0.01966244,-0.09885009,0.24319273,0.12947941,0.13774256,-0.89312309,0.04995095,0.18536384,0.28502816,0.22926073,0.34583801,0.32152608,0.12891045,0.31850418,0.34399089,0.08386689,0.02538958,0.2235129,0.34564018,0.30336872,REST
-0.08280001,-0.05337989,-0.41573098,0.16593997,-0.23909137,-0.29241836,-0.59022242,-0.57110232,0.00469801,0.02200456,0.19372332,-0.45126271,-0.41143107,-0.24814506,0.00364411,-0.46415439,-0.51430124,-0.38925326,-0.0601564,0.0355202,-0.02904039,-0.03946436,-0.39950094,-0.14434685,-0.17313394,-0.14808697,-0.90940952,-0.37674174,0.02102795,0.17235333,0.26157835,0.43093649,0.01652577,-0.0967278,0.24255209,0.12998851,0.1417906,-0.8934148,0.05361959,0.18396907,0.27998406,0.22533259,0.34141248,0.31722975,0.13070358,0.32181233,0.34843835,0.08763398,0.02856064,0.22588815,0.34316945,0.2991029,REST
-0.0814725,-0.05146773,-0.41264367,0.16888385,-0.23602268,-0.29160881,-0.58975351,-0.56843346,0.00066836,0.02477928,0.19491649,-0.45015383,-0.40709263,-0.24956793,-0.00003078,-0.46223259,-0.51685202,-0.38817722,-0.05898653,0.03437024,-0.02685153,-0.04107977,-0.40021616,-0.14240183,-0.17698278,-0.14929011,-0.90867376,-0.37886587,0.02339547,0.17287618,0.2568405,0.42531207,0.01257756,-0.09530786,0.24129993,0.12963901,0.14555739,-0.89445639,0.05683943,0.18161386,0.27495635,0.22117402,0.33638641,0.31223556,0.13192454,0.32484224,0.35270292,0.09105178,0.03070475,0.22768205,0.34043419,0.294655,REST
-0.08020902,-0.04968157,-0.40933758,0.17242877,-0.23269977,-0.29115105,-0.58943188,-0.5657804,-0.00410558,0.02776891,0.19530226,-0.4492012,-0.4027164,-0.25156888,-0.00456225,-0.46097675,-0.52080274,-0.38743305,-0.0582024,0.0330435,-0.02468874,-0.04398686,-0.40113544,-0.14080524,-0.18185776,-0.15122902,-0.90815347,-0.38277075,0.02525913,0.17351453,0.25233093,0.41823593,0.007847,-0.09463196,0.23947461,0.12843736,0.14899868,-0.89617944,0.05961026,0.17836319,0.27001861,0.21683683,0.33075571,0.30653176,0.13255212,0.32754657,0.35671717,0.09408518,0.03186495,0.22888125,0.33745205,0.2900393,REST
-0.07905214,-0.04805679,-0.40585908,0.17648016,-0.2291901,-0.29103982,-0.58922887,-0.56319189,-0.00953615,0.03091745,0.19488476,-0.44843784,-0.39838442,-0.25411248,-0.009833,-0.46037489,-0.52608502,-0.38696894,-0.0577978,0.03157678,-0.0225976,-0.0481479,-0.40227461,-0.13956764,-0.18763486,-0.15384825,-0.90783501,-0.38834688,0.02666316,0.17426592,0.24811043,0.40978345,0.00240143,-0.09469823,0.23714042,0.12643082,0.1520879,-0.89848638,0.06195495,0.17432918,0.26524705,0.21237965,0.32453954,0.30013692,0.1325992,0.32989398,0.36042702,0.09671599,0.03212706,0.22950393,0.3342576,0.28527692,REST
-0.07803817,-0.04661898,-0.40226015,0.18092363,-0.22556877,-0.29125509,-0.58911085,-0.56070763,-0.01550698,0.03416936,0.19370811,-0.44788569,-0.39416531,-0.25713602,-0.0156896,-0.46038145,-0.53257644,-0.38671917,-0.0577479,0.03002339,-0.02061308,-0.05346093,-0.40363392,-0.13868058,-0.19414996,-0.15705989,-0.90769112,-0.39541173,0.02767553,0.17513132,0.2442348,0.40009603,-0.00365744,-0.09546298,0.23438503,0.1237049,0.15481707,-0.9012531,0.06391743,0.16966462,0.26071811,0.20786625,0.31777832,0.29310244,0.13211237,0.33187202,0.36379555,0.09894473,0.03161584,0.22959921,0.33090252,0.28039819,REST
-0.07719628,-0.04538355,-0.39859411,0.18563136,-0.2219141,-0.29176402,-0.58904469,-0.55836779,-0.02188249,0.03746923,0.19184707,-0.44755507,-0.39011493,-0.26055902,-0.02195609,-0.46092352,-0.54010713,-0.38661331,-0.05801447,0.02844721,-0.01876495,-0.05977396,-0.4052,-0.13812117,-0.20121522,-0.16075371,-0.90768462,-0.40373254,0.02837539,0.17610963,0.24074741,0.38936248,-0.01020243,-0.09685016,0.23130807,0.12036981,0.15719329,-0.90434277,0.06555034,0.1645468,0.25650308,0.20336094,0.31052965,0.2855036,0.13115904,0.33347952,0.36679858,0.10078365,0.03047641,0.22923687,0.32744938,0.27543774,REST
-0.07654694,-0.04435569,-0.39491558,0.19047125,-0.21830177,-0.29252341,-0.58899868,-0.55620098,-0.02851532,0.04076933,0.18940425,-0.44744429,-0.38627237,-0.26428282,-0.02844239,-0.46190435,-0.54847348,-0.38657922,-0.05854742,0.02692096,-0.01706913,-0.0668939,-0.40694657,-0.13785191,-0.20862672,-0.16480123,-0.90776908,-0.41303921,0.02885082,0.17720118,0.23768449,0.37781253,-0.01708887,-0.09875603,0.22801837,0.1165564,0.15923902,-0.90761536,0.06691451,0.15916918,0.25266534,0.19892867,0.30286714,0.27744097,0.12982816,0.33473119,0.36942604,0.10225847,0.02886939,0.22850634,0.32397074,0.2704359,REST
-0.07610136,-0.04353185,-0.3912743,0.19531351,-0.21480033,-0.29348412,-0.58894491,-0.55422723,-0.03525405,0.04402876,0.18650083,-0.44754115,-0.38266066,-0.26820356,-0.03495944,-0.4632104,-0.55744946,-0.38655043,-0.05929127,0.02551984,-0.01553095,-0.07460469,-0.40883765,-0.13782625,-0.21617889,-0.16906491,-0.90789497,-0.4230414,0.02918845,0.17840454,0.23507018,0.36569649,-0.0241662,-0.10106049,0.22462605,0.11240923,0.16099025,-0.91093016,0.06807107,0.15372607,0.24925674,0.19462833,0.29487517,0.26903018,0.12821886,0.33565536,0.37168509,0.10340472,0.02695925,0.22750612,0.32054314,0.26543453,JUNK
-0.07586143,-0.04290105,-0.38771632,0.20003796,-0.2114688,-0.29459545,-0.5888617,-0.55245781,-0.04195513,0.0472117,0.18326461,-0.44782564,-0.379289,-0.27222142,-0.04133401,-0.46472296,-0.56680119,-0.38647425,-0.06019223,0.02431406,-0.01414926,-0.08268549,-0.41083419,-0.1379966,-0.22368293,-0.17341273,-0.90801191,-0.43345401,0.02946213,0.17971288,0.23291415,0.35326359,-0.031288,-0.10364031,0.22122946,0.10806723,0.16248301,-0.91416031,0.06906942,0.14839625,0.24631283,0.1905084,0.28664207,0.26039165,0.12642704,0.33628431,0.37358689,0.10425848,0.02489486,0.22633237,0.31723967,0.2604731,JUNK
-0.07581972,-0.04244674,-0.38427919,0.20454107,-0.20835282,-0.29580778,-0.58873522,-0.55089658,-0.04848915,0.05029567,0.17982724,-0.44827065,-0.37615091,-0.2762402,-0.04741192,-0.46632156,-0.57630247,-0.38631019,-0.06119904,0.02336819,-0.01290849,-0.09091939,-0.41289216,-0.13831148,-0.23096588,-0.17771684,-0.90807265,-0.44400796,0.02973483,0.1811202,0.23121831,0.34075943,-0.03831911,-0.10637218,0.21791911,0.10366797,0.16376133,-0.9172014,0.06995438,0.14333877,0.24385443,0.18661115,0.27825987,0.25165203,0.12454876,0.33666331,0.37515366,0.10486152,0.0228118,0.22507991,0.31412923,0.25558951,JUNK
-0.07596119,-0.04214826,-0.38099423,0.20873901,-0.20548315,-0.29707763,-0.58856094,-0.54953873,-0.05474867,0.05326327,0.1763072,-0.44884574,-0.3732301,-0.28018183,-0.05307546,-0.46789768,-0.58574867,-0.38603839,-0.06227079,0.02273211,-0.01179229,-0.09911476,-0.41497117,-0.13872586,-0.23789227,-0.18187107,-0.90803719,-0.45447537,0.03004541,0.18261419,0.22996953,0.32839438,-0.04514479,-0.10914791,0.21476252,0.09932516,0.1648649,-0.91997886,0.07075074,0.13867648,0.24188374,0.18296535,0.26981494,0.24292679,0.12265915,0.33683312,0.37640837,0.10524853,0.02080898,0.22382623,0.31126779,0.25081542,JUNK
-0.07626426,-0.04198351,-0.37788063,0.21257356,-0.20287451,-0.29836974,-0.58834213,-0.54837334,-0.06065155,0.05611004,0.17281105,-0.44951868,-0.37049937,-0.2839826,-0.05824271,-0.46935672,-0.59496701,-0.38565513,-0.06337555,0.02244273,-0.01077348,-0.10710841,-0.41703266,-0.13919808,-0.24435917,-0.18578805,-0.90787327,-0.46467277,0.03041457,0.18418309,0.22914876,0.31634974,-0.05167427,-0.11187449,0.21181005,0.09513548,0.16582969,-0.92244655,0.07147349,0.13449818,0.2403876,0.17959149,0.2613889,0.23432449,0.12082174,0.33684045,0.37737814,0.10545275,0.01895886,0.22263651,0.30869943,0.24617922,JUNK
-0.07670281,-0.04192974,-0.37494957,0.21601085,-0.20052695,-0.29965982,-0.58809036,-0.5473823,-0.06614619,0.05883663,0.16942193,-0.45025879,-0.36792573,-0.28760064,-0.06287374,-0.47062713,-0.60382569,-0.38517612,-0.06449541,0.02251812,-0.00982578,-0.11477724,-0.41904503,-0.13969673,-0.25030699,-0.18940908,-0.90756172,-0.47447842,0.03083824,0.18581119,0.22872584,0.30475968,-0.05784568,-0.11448293,0.20908648,0.09116542,0.16668326,-0.92459458,0.07211927,0.1308502,0.23933789,0.17649925,0.25305152,0.22593471,0.11907397,0.33672523,0.37808737,0.10549759,0.01729394,0.22155292,0.30645064,0.24170084,JUNK
-0.07724737,-0.04196482,-0.37220111,0.21904413,-0.1984262,-0.30093539,-0.58782274,-0.54654402,-0.07121124,0.06145065,0.16619715,-0.451038,-0.36547101,-0.29101676,-0.06697353,-0.47166327,-0.6122399,-0.38463312,-0.06562539,0.02295911,-0.00892295,-0.12204105,-0.42098364,-0.1401999,-0.25571713,-0.19270386,-0.90709269,-0.48382729,0.03129146,0.18748172,0.22866301,0.29371053,-0.06362547,-0.11692914,0.20659378,0.08745276,0.16744509,-0.92643833,0.07267112,0.12773857,0.23869392,0.17368895,0.24486074,0.21782799,0.11743063,0.336523,0.37855873,0.105398,0.01581032,0.22059666,0.30453044,0.23739217,JUNK
-0.07786808,-0.04207025,-0.36962882,0.22168536,-0.19654943,-0.30219653,-0.58756262,-0.5458374,-0.07585393,0.06396114,0.16316757,-0.45183471,-0.36309972,-0.29423496,-0.07058234,-0.47244796,-0.62017304,-0.38407239,-0.06677572,0.02374734,-0.00804333,-0.1288618,-0.42283434,-0.14069906,-0.26061049,-0.19567142,-0.90647089,-0.49271855,0.03172799,0.18917602,0.22891667,0.28324184,-0.06900783,-0.11919528,0.20431069,0.08400384,0.16812149,-0.92802656,0.07309833,0.12513359,0.23840463,0.17115112,0.2368589,0.21005286,0.11588095,0.3362574,0.37880591,0.10515657,0.01446994,0.21976627,0.30293086,0.23325942,JUNK
-0.07853583,-0.04223058,-0.3672179,0.22396693,-0.19486505,-0.30345327,-0.58733457,-0.54523659,-0.08010416,0.06638265,0.16034129,-0.4526324,-0.36077619,-0.29727462,-0.07376634,-0.47298774,-0.62762988,-0.38354573,-0.06796508,0.02485162,-0.00716598,-0.13523741,-0.4245891,-0.14119253,-0.26503363,-0.19833088,-0.90571046,-0.50119239,0.03209236,0.19087805,0.22944206,0.27335444,-0.07400788,-0.12128329,0.20220339,0.08080664,0.16871268,-0.92942321,0.07336823,0.12297982,0.23841442,0.16887234,0.22907774,0.20263889,0.11439931,0.3359507,0.37884226,0.1047714,0.01321255,0.21904546,0.30163008,0.22930203,JUNK
-0.07922496,-0.04243416,-0.3649492,0.22593376,-0.19333847,-0.30472484,-0.58716482,-0.5447166,-0.0840131,0.06872938,0.15770499,-0.45342204,-0.35846972,-0.30016959,-0.07661536,-0.47331527,-0.63465434,-0.38310948,-0.06922093,0.02622827,-0.00627582,-0.1411958,-0.42624825,-0.1416883,-0.26905873,-0.20072289,-0.90483469,-0.50933456,0.03232032,0.19257249,0.23019345,0.26401621,-0.07865919,-0.12321447,0.200224,0.07782588,0.16920753,-0.93070853,0.07344288,0.12120081,0.23866606,0.16683346,0.22153537,0.19559602,0.11294386,0.33561385,0.37867349,0.10423165,0.01195751,0.21840329,0.30059421,0.2255163,JUNK
-0.07991313,-0.04267314,-0.36280069,0.22763865,-0.19193453,-0.30603611,-0.58707803,-0.54425532,-0.08764392,0.07101611,0.15522948,-0.45419994,-0.3561562,-0.30296013,-0.07923046,-0.4734804,-0.64131951,-0.3828153,-0.07057298,0.02782677,-0.00536122,-0.14678527,-0.42781714,-0.1421978,-0.27276745,-0.20289862,-0.90387404,-0.51725394,0.03235079,0.19424833,0.23112769,0.25517368,-0.08300547,-0.12502107,0.19832166,0.07501645,0.1695929,-0.93196607,0.0732899,0.11971151,0.23910519,0.16501661,0.21424168,0.18892035,0.11146617,0.33525372,0.37830454,0.10352469,0.01061685,0.21780248,0.29978243,0.22189677,JUNK
-0.08058317,-0.0429424,-0.36074951,0.22913729,-0.19062011,-0.30741352,-0.58709419,-0.54383188,-0.09106579,0.07326066,0.15287913,-0.4549664,-0.3538166,-0.305684,-0.08170673,-0.47354102,-0.64771509,-0.38270357,-0.07204834,0.02959567,-0.00441007,-0.15206057,-0.42930123,-0.14273101,-0.27623805,-0.20491102,-0.90285975,-0.52506417,0.03213545,0.19590224,0.23220973,0.24676494,-0.08709206,-0.12673852,0.19645156,0.07233401,0.16985729,-0.93327326,0.07289082,0.11843082,0.23968497,0.16340612,0.20720211,0.1826003,0.10992198,0.33487901,0.37774372,0.10264147,0.0091098,0.21720812,0.29915324,0.21844029,JUNK
-0.0812238,-0.04324021,-0.35877475,0.23048092,-0.18936814,-0.30888486,-0.58722931,-0.54342669,-0.09434958,0.07547072,0.15060659,-0.45572668,-0.35144261,-0.30838299,-0.08413538,-0.47356588,-0.65394044,-0.38280872,-0.07367363,0.03147981,-0.00342545,-0.15708673,-0.43071243,-0.14330332,-0.27955338,-0.20681985,-0.90182477,-0.53288287,0.03163159,0.19752875,0.23340236,0.23871797,-0.09096633,-0.12841013,0.19456589,0.06972234,0.16998427,-0.93470204,0.07222702,0.11727864,0.2403634,0.16198304,0.20041119,0.17660865,0.10825825,0.33448213,0.37699181,0.10156644,0.00735094,0.21657975,0.29866156,0.21513978,JUNK
-0.08182938,-0.04356623,-0.35685712,0.2317169,-0.18815696,-0.31047171,-0.58749133,-0.5430215,-0.0975585,0.07766072,0.14837286,-0.45648631,-0.34903023,-0.31108433,-0.08658778,-0.47361651,-0.66009021,-0.3831434,-0.0754628,0.03343371,-0.00240092,-0.16191399,-0.4320569,-0.14391983,-0.28277004,-0.20866901,-0.90079772,-0.54079974,0.03082397,0.19913399,0.23468222,0.23097883,-0.09466454,-0.13006814,0.19263811,0.06714641,0.16997007,-0.93630403,0.07130545,0.11619762,0.24111244,0.16073826,0.1938661,0.17092398,0.10644417,0.33406958,0.3760618,0.10029852,0.00528496,0.21589354,0.29827172,0.21199693,JUNK
-0.08239935,-0.04392052,-0.35497993,0.23288426,-0.18697196,-0.31219053,-0.58788282,-0.5425995,-0.10074484,0.07984061,0.14614102,-0.45725042,-0.34658343,-0.31380662,-0.08911589,-0.47375047,-0.66624737,-0.38370669,-0.07742051,0.03541739,-0.0013355,-0.16658272,-0.43333939,-0.14458205,-0.285932,-0.21049581,-0.89980078,-0.548886,0.02971518,0.20072652,0.2360305,0.22350366,-0.09821149,-0.13173963,0.19065097,0.06457499,0.16981626,-0.93811142,0.07014108,0.11514618,0.24191338,0.159665,0.18756343,0.16552159,0.10445691,0.33364239,0.37496868,0.09884042,0.00287103,0.21513271,0.2979539,0.20901534,JUNK
-0.08293777,-0.04430356,-0.35313135,0.23401311,-0.18580438,-0.31404862,-0.5884006,-0.54214257,-0.10394797,0.08202189,0.14388473,-0.45802134,-0.34411076,-0.31655401,-0.09174352,-0.47401008,-0.67247653,-0.38447964,-0.07954004,0.03740194,-0.00022528,-0.17111571,-0.4345586,-0.14528257,-0.28905872,-0.21232079,-0.89885062,-0.55717528,0.02833109,0.20231999,0.23743588,0.21626973,-0.10161883,-0.13344003,0.18860528,0.06199459,0.16953716,-0.94013757,0.06876518,0.11410438,0.24275945,0.15876099,0.18150152,0.16038242,0.10229069,0.33320835,0.37373653,0.09720585,0.00009432,0.21429455,0.29768917,0.20620413,JUNK
-0.08345248,-0.04471512,-0.351302,0.23512442,-0.18465093,-0.31604484,-0.58903521,-0.5416339,-0.107193,0.0842166,0.14158843,-0.45879832,-0.3416242,-0.31931645,-0.09447186,-0.47442323,-0.67882061,-0.38542932,-0.08180321,0.03936994,0.00093644,-0.17551716,-0.43570998,-0.14600687,-0.29214936,-0.21414968,-0.89795506,-0.56567228,0.02671652,0.20393285,0.23889461,0.20927782,-0.10488303,-0.13517344,0.18651626,0.05940556,0.16915706,-0.94237667,0.06721991,0.11307345,0.24365404,0.15802974,0.17568207,0.15549389,0.09995665,0.33277947,0.3723959,0.09541716,-0.00303561,0.21338931,0.29746935,0.20357658,JUNK
