A-DC1,A-DC2,A-DC3,A-DC4,A-DC5,A-DC6,A-DC7,A-DC8,B-DC1,B-DC2,B-DC3,B-DC4,B-DC5,B-DC6,B-DC7,B-DC8,condition
1499.000,339.600,92.280,25.160,1234.000,253.000,50.050,10.080,196.700,47.170,14.620,4.680,385.200,113.200,39.130,14.480,baseline
1500.000,339.400,92.310,25.160,1235.000,253.600,49.910,10.080,195.700,46.680,14.700,4.686,386.100,113.800,39.230,14.520,baseline
1504.000,341.300,92.900,25.260,1234.000,254.100,50.020,10.130,195.000,47.250,14.590,4.693,385.400,114.100,39.240,14.570,baseline
1505.000,341.700,93.190,25.180,1234.000,253.400,49.920,10.090,197.600,47.250,14.710,4.690,386.700,114.100,39.190,14.460,baseline
1501.000,338.100,92.600,25.090,1228.000,254.000,49.680,10.050,195.600,46.850,14.650,4.661,385.200,113.100,38.890,14.380,baseline
1496.000,340.000,92.190,25.060,1235.000,252.500,49.700,10.020,194.300,46.690,14.580,4.657,384.300,113.000,38.860,14.380,baseline
1499.000,339.000,91.940,25.130,1230.000,252.600,49.840,10.090,195.000,46.810,14.600,4.657,384.000,112.800,38.770,14.400,baseline
1499.000,339.500,92.140,25.080,1237.000,253.000,49.710,10.040,195.800,46.730,14.590,4.663,385.400,113.300,38.980,14.390,baseline
1498.000,340.500,92.530,25.140,1230.000,253.700,49.800,10.060,195.200,46.920,14.620,4.684,386.300,113.300,38.980,14.440,baseline
1500.000,339.300,92.710,25.120,1233.000,253.200,49.760,10.070,193.800,47.000,14.640,4.678,386.500,113.400,39.080,14.460,baseline
1505.000,341.600,92.860,25.220,1230.000,253.600,49.620,10.060,195.900,47.170,14.670,4.674,388.200,114.000,39.370,14.550,baseline
1505.000,341.900,93.000,25.200,1235.000,253.800,49.950,10.050,198.400,47.160,14.610,4.706,387.900,114.100,39.330,14.580,baseline
1507.000,341.300,92.420,25.110,1231.000,253.800,49.800,10.030,197.900,46.920,14.650,4.684,387.000,113.800,39.010,14.470,baseline
1501.000,339.400,92.210,25.040,1235.000,253.100,49.650,10.100,195.400,47.000,14.620,4.678,385.100,113.500,38.910,14.420,baseline
1503.000,340.300,92.130,25.160,1237.000,253.700,49.610,10.060,197.800,46.870,14.530,4.675,386.100,113.600,39.020,14.410,baseline
1504.000,340.100,92.650,25.060,1232.000,253.700,49.820,10.060,197.300,46.830,14.650,4.665,386.600,113.900,39.020,14.430,baseline
1506.000,338.800,92.570,25.140,1237.000,253.400,49.770,10.050,195.200,47.260,14.670,4.683,385.600,113.700,39.050,14.470,baseline
1503.000,341.400,92.760,25.110,1235.000,253.200,49.750,10.050,197.200,46.940,14.630,4.668,386.100,114.100,39.270,14.560,baseline
1505.000,340.900,92.570,25.260,1231.000,254.200,49.830,10.100,196.400,47.120,14.670,4.684,388.300,114.000,39.330,14.550,baseline
1507.000,340.700,93.290,25.350,1232.000,253.800,50.040,10.110,196.400,47.090,14.700,4.695,388.800,114.000,39.310,14.600,baseline
1508.000,341.900,93.200,25.320,1231.000,253.600,49.770,10.070,195.100,47.290,14.660,4.707,388.400,114.400,39.270,14.470,baseline
1504.000,340.300,92.920,25.180,1236.000,253.500,49.860,10.100,195.400,47.020,14.610,4.686,385.900,113.600,39.020,14.450,baseline
1504.000,339.900,92.410,25.140,1234.000,253.000,49.970,10.090,195.000,46.980,14.650,4.665,384.900,113.500,39.020,14.440,baseline
1504.000,339.400,92.790,25.240,1234.000,253.500,50.020,10.090,195.400,46.800,14.630,4.682,387.100,113.900,39.180,14.450,baseline
1505.000,340.800,92.860,25.210,1232.000,253.600,49.930,10.080,194.900,46.890,14.650,4.688,387.300,113.800,39.010,14.480,baseline
1505.000,340.300,92.800,25.220,1232.000,254.000,49.920,10.070,196.300,47.120,14.630,4.683,386.700,114.000,39.170,14.530,baseline
1506.000,339.900,93.230,25.310,1237.000,253.700,49.830,10.080,198.600,47.120,14.620,4.703,388.700,114.400,39.520,14.560,baseline
1509.000,341.800,93.260,25.300,1234.000,254.600,49.910,10.080,196.400,47.270,14.780,4.701,389.700,114.500,39.490,14.620,baseline
1510.000,342.700,93.570,25.400,1236.000,254.400,50.090,10.070,194.400,47.220,14.800,4.717,389.100,114.600,39.360,14.630,baseline
1507.000,342.500,93.150,25.190,1235.000,253.100,49.800,10.070,197.700,47.030,14.700,4.702,387.500,114.000,39.170,14.470,baseline
1504.000,340.200,92.590,25.190,1237.000,254.500,49.810,10.080,195.700,47.030,14.660,4.685,387.000,113.900,39.120,14.490,baseline
1504.000,341.300,92.580,25.270,1237.000,253.500,49.970,10.040,196.700,47.060,14.650,4.675,387.400,113.500,39.030,14.490,baseline
1506.000,339.500,93.420,25.200,1233.000,253.200,49.890,10.120,196.000,47.180,14.720,4.680,387.400,114.200,39.170,14.520,baseline
1504.000,341.400,93.120,25.240,1237.000,254.100,49.880,10.080,196.400,47.000,14.670,4.679,387.600,114.000,39.270,14.510,baseline
1508.000,340.800,93.160,25.310,1235.000,254.100,49.920,10.150,196.800,47.160,14.660,4.710,388.100,114.400,39.310,14.600,baseline
1511.000,340.400,93.690,25.330,1233.000,254.300,50.170,10.100,198.700,47.370,14.670,4.715,389.800,114.400,39.530,14.590,baseline
1513.000,343.300,93.670,25.460,1236.000,254.800,50.150,10.100,196.500,47.580,14.730,4.717,389.700,114.800,39.460,14.640,baseline
1511.000,341.000,93.070,25.280,1236.000,253.400,49.970,10.110,196.700,47.410,14.690,4.686,388.700,114.000,39.150,14.470,baseline
1504.000,340.000,93.060,25.270,1238.000,253.400,49.900,10.100,194.600,47.340,14.720,4.701,387.200,113.900,39.200,14.500,baseline
1505.000,339.800,92.620,25.210,1229.000,254.200,49.830,10.060,195.300,46.990,14.660,4.689,386.600,113.900,39.060,14.510,baseline
1506.000,340.200,93.030,25.330,1232.000,253.300,49.850,10.090,196.600,47.570,14.700,4.705,386.600,114.300,39.320,14.560,baseline
1506.000,341.900,92.970,25.310,1231.000,254.300,50.070,10.130,199.600,47.300,14.690,4.704,387.900,114.000,39.440,14.570,baseline
1508.000,341.600,93.140,25.260,1240.000,254.200,50.140,10.120,197.600,47.330,14.810,4.730,389.200,114.600,39.490,14.670,baseline
1511.000,342.400,93.650,25.460,1234.000,253.800,49.890,10.130,197.800,47.340,14.790,4.751,390.500,115.200,39.550,14.760,baseline
1512.000,343.400,93.810,25.480,1231.000,254.500,50.150,10.140,195.800,47.370,14.820,4.724,390.900,115.300,39.750,14.810,baseline
1511.000,342.600,93.360,25.440,1236.000,253.800,49.990,10.080,197.000,47.800,14.810,4.747,389.000,114.600,39.510,14.650,baseline
1506.000,340.100,92.950,25.260,1238.000,254.000,49.860,10.080,197.100,47.660,14.780,4.722,388.000,114.100,39.270,14.590,baseline
1506.000,340.000,93.210,25.210,1232.000,254.500,49.970,10.100,195.800,47.440,14.760,4.715,387.200,114.100,39.180,14.610,baseline
1507.000,341.100,93.420,25.320,1235.000,253.600,50.080,10.110,196.500,47.290,14.780,4.722,389.300,114.400,39.420,14.590,baseline
1507.000,339.600,93.130,25.250,1231.000,254.200,49.940,10.130,196.300,47.260,14.730,4.709,388.500,114.100,39.380,14.600,baseline
1507.000,341.600,92.910,25.430,1231.000,254.100,49.950,10.140,196.100,47.270,14.770,4.738,388.600,114.700,39.480,14.640,baseline
1509.000,342.700,93.340,25.420,1236.000,254.100,50.040,10.120,198.000,47.350,14.740,4.758,388.700,114.900,39.570,14.700,baseline
1510.000,343.400,93.840,25.490,1236.000,254.700,50.050,10.130,196.600,47.350,14.790,4.734,389.400,114.800,39.560,14.730,baseline
1512.000,343.400,93.700,25.460,1235.000,253.700,49.880,10.130,198.800,47.200,14.770,4.729,390.600,114.400,39.480,14.620,baseline
1505.000,342.300,92.860,25.250,1235.000,253.300,50.120,10.130,197.300,47.160,14.780,4.724,386.800,113.800,39.130,14.490,baseline
1504.000,339.400,93.020,25.160,1235.000,253.500,49.900,10.120,196.000,47.050,14.710,4.706,385.900,113.800,39.090,14.530,baseline
1507.000,341.600,93.230,25.320,1233.000,253.300,50.100,10.150,194.600,47.110,14.680,4.711,386.700,113.900,39.180,14.500,baseline
1506.000,341.900,93.560,25.330,1233.000,253.800,50.120,10.070,195.500,47.250,14.710,4.717,386.500,113.600,39.150,14.530,baseline
1506.000,340.000,93.200,25.350,1230.000,253.500,49.730,10.130,196.100,47.010,14.680,4.716,386.800,113.800,39.170,14.580,baseline
1508.000,341.600,93.270,25.400,1234.000,254.200,50.060,10.140,196.100,47.100,14.750,4.716,386.300,114.100,39.300,14.610,baseline
1510.000,341.000,93.210,25.490,1233.000,253.900,50.040,10.150,195.500,47.130,14.770,4.729,387.500,114.200,39.340,14.630,baseline
1512.000,342.900,93.220,25.560,1234.000,253.600,50.150,10.120,196.500,47.370,14.760,4.736,388.300,114.400,39.420,14.550,baseline
1504.000,341.200,93.020,25.240,1231.000,254.300,49.980,10.100,196.900,47.300,14.700,4.704,385.300,113.500,38.880,14.450,baseline
1499.000,338.500,92.600,25.160,1230.000,252.900,49.750,10.070,195.700,46.760,14.590,4.696,384.100,113.100,38.880,14.400,baseline
1499.000,338.100,92.850,25.100,1232.000,252.000,49.600,10.040,196.600,46.860,14.590,4.693,383.200,112.600,38.530,14.310,baseline
1494.000,338.100,92.340,25.100,1227.000,251.600,49.840,10.060,194.100,46.610,14.520,4.673,381.100,112.600,38.590,14.320,baseline
1495.000,338.200,92.730,25.210,1227.000,252.400,49.790,10.060,190.900,46.650,14.540,4.693,382.700,112.900,38.850,14.420,baseline
1498.000,339.400,93.020,25.350,1231.000,252.700,49.640,10.090,195.100,46.460,14.630,4.696,385.000,113.700,38.980,14.480,baseline
1502.000,341.100,93.220,25.340,1229.000,252.700,49.780,10.120,194.800,47.000,14.650,4.726,386.500,113.800,39.190,14.600,baseline
1507.000,340.700,93.570,25.390,1231.000,253.200,49.930,10.120,195.200,46.870,14.700,4.740,387.100,113.800,39.120,14.510,baseline
1501.000,338.900,92.800,25.240,1227.000,253.300,49.910,10.110,195.400,47.030,14.660,4.699,383.500,112.800,38.890,14.350,baseline
1498.000,339.100,92.420,25.170,1227.000,253.100,49.770,10.060,194.100,46.410,14.640,4.701,382.500,112.500,38.770,14.370,baseline
1497.000,339.300,92.350,25.210,1230.000,252.700,49.800,10.080,192.300,46.740,14.640,4.696,382.800,112.800,38.760,14.330,baseline
1496.000,339.100,92.170,25.180,1232.000,252.900,49.780,10.030,195.700,46.390,14.650,4.683,382.900,112.900,38.830,14.380,baseline
1497.000,339.900,92.760,25.280,1228.000,252.500,49.810,10.080,192.300,46.870,14.600,4.695,382.000,112.900,38.860,14.410,baseline
1500.000,340.300,92.820,25.280,1230.000,252.300,49.820,10.070,195.600,46.690,14.630,4.696,383.100,113.100,38.940,14.430,baseline
1500.000,340.200,93.210,25.350,1229.000,251.800,49.740,10.100,193.800,46.810,14.630,4.681,382.500,112.700,38.820,14.420,baseline
1501.000,339.900,93.100,25.360,1230.000,252.700,49.650,10.080,194.700,46.680,14.580,4.697,383.500,113.200,38.800,14.390,baseline
1498.000,339.700,92.670,25.070,1222.000,251.500,49.550,10.070,193.900,46.480,14.480,4.663,378.800,111.800,38.370,14.270,baseline
1493.000,337.800,92.300,25.140,1228.000,252.300,49.600,10.070,194.800,46.840,14.510,4.651,377.700,111.300,38.320,14.180,baseline
1494.000,338.700,92.240,25.190,1229.000,251.900,49.650,10.060,193.300,46.320,14.500,4.665,377.600,111.700,38.540,14.210,baseline
1496.000,338.900,92.450,25.240,1227.000,252.300,49.570,10.090,192.400,46.340,14.470,4.645,377.800,111.700,38.280,14.270,baseline
1496.000,337.800,92.810,25.240,1229.000,251.900,49.690,10.040,193.300,46.530,14.500,4.678,379.600,112.000,38.690,14.350,baseline
1499.000,339.900,93.210,25.240,1227.000,252.900,49.770,10.050,194.200,46.890,14.540,4.690,381.700,112.800,38.890,14.420,baseline
1501.000,339.000,93.400,25.360,1228.000,251.700,49.650,10.030,193.300,46.720,14.630,4.700,383.100,113.300,39.000,14.470,baseline
1503.000,340.300,92.920,25.400,1227.000,252.200,49.850,10.100,195.900,46.820,14.670,4.715,384.300,113.600,39.200,14.550,baseline
1506.000,341.000,93.480,25.520,1231.000,252.700,49.640,10.030,194.500,47.150,14.700,4.723,384.600,113.400,39.070,14.440,baseline
1499.000,340.000,92.800,25.320,1231.000,252.800,49.810,10.050,196.900,46.910,14.630,4.689,382.700,112.600,38.680,14.400,baseline
1498.000,340.300,92.600,25.410,1233.000,252.600,49.720,10.070,195.400,46.680,14.590,4.706,382.700,112.400,38.790,14.390,baseline
1498.000,340.400,93.000,25.280,1230.000,252.300,49.680,10.060,192.200,46.560,14.600,4.686,383.400,112.900,38.760,14.380,baseline
1500.000,339.600,92.720,25.380,1230.000,252.200,49.670,10.060,196.900,46.640,14.620,4.707,382.800,112.900,38.720,14.420,baseline
1502.000,339.500,93.460,25.350,1230.000,253.300,49.710,10.100,194.900,46.760,14.600,4.712,383.500,112.700,38.890,14.520,baseline
1503.000,340.800,93.130,25.520,1230.000,253.100,49.660,10.090,194.000,47.410,14.650,4.719,384.300,113.600,38.960,14.520,baseline
1505.000,340.700,93.430,25.430,1231.000,253.100,49.740,10.080,195.800,46.990,14.660,4.733,385.400,113.400,39.160,14.540,baseline
1506.000,340.800,93.190,25.510,1234.000,253.300,49.860,10.120,195.000,47.210,14.750,4.741,385.500,114.000,39.250,14.570,baseline
1506.000,340.700,93.380,25.340,1230.000,252.600,49.540,10.080,194.800,46.890,14.710,4.715,383.900,112.900,38.870,14.400,baseline
1504.000,339.200,92.980,25.310,1233.000,252.800,49.790,10.050,195.100,46.750,14.610,4.714,383.100,112.600,38.960,14.400,baseline
1504.000,340.700,92.960,25.330,1231.000,253.300,49.680,10.060,193.100,46.790,14.600,4.692,382.400,112.800,38.810,14.440,baseline
1503.000,339.200,92.770,25.350,1232.000,253.400,49.810,10.040,194.300,47.100,14.640,4.697,381.500,112.900,38.890,14.400,baseline
1502.000,339.600,93.040,25.330,1231.000,252.600,49.730,10.050,195.100,47.040,14.660,4.712,382.900,112.700,38.880,14.500,baseline
1504.000,341.300,93.400,25.360,1237.000,252.600,49.800,10.040,195.500,47.120,14.600,4.705,385.200,113.100,39.040,14.490,baseline
1507.000,341.700,93.020,25.510,1233.000,253.100,49.830,10.100,195.800,46.990,14.660,4.698,384.200,113.700,39.170,14.530,baseline
1509.000,341.300,93.930,25.510,1232.000,253.700,49.940,10.050,194.900,47.300,14.630,4.729,385.200,114.000,39.370,14.590,baseline
1509.000,342.200,93.440,25.550,1231.000,253.000,49.730,10.080,197.600,47.090,14.760,4.722,386.400,114.200,39.360,14.520,baseline
1503.000,339.900,92.870,25.260,1227.000,252.300,49.840,10.040,196.700,47.180,14.710,4.706,384.800,113.400,38.960,14.480,baseline
1502.000,339.000,92.810,25.350,1233.000,253.200,49.680,10.060,195.900,46.890,14.680,4.693,384.500,112.900,38.870,14.480,baseline
1504.000,340.500,93.070,25.390,1232.000,252.900,49.660,10.050,195.900,46.660,14.590,4.715,385.700,113.100,38.930,14.470,baseline
1504.000,339.600,92.800,25.340,1234.000,252.400,49.880,10.050,193.900,47.050,14.660,4.702,384.400,113.200,38.940,14.460,baseline
1503.000,339.500,93.050,25.340,1234.000,253.200,49.960,10.060,194.900,47.050,14.690,4.707,386.000,113.300,39.110,14.530,baseline
1507.000,342.800,93.280,25.430,1230.000,252.700,49.780,10.070,196.700,46.960,14.730,4.721,386.700,113.800,39.410,14.640,baseline
1509.000,341.100,93.580,25.560,1229.000,253.400,49.940,10.100,198.400,47.160,14.710,4.732,387.300,114.400,39.430,14.690,baseline
1511.000,341.900,93.820,25.480,1233.000,252.800,49.920,10.030,196.700,47.590,14.720,4.756,388.200,114.400,39.460,14.750,baseline
1513.000,343.700,93.670,25.510,1234.000,252.800,49.800,10.080,197.900,47.410,14.760,4.737,386.900,114.400,39.370,14.630,baseline
1506.000,341.400,93.460,25.380,1232.000,252.600,49.720,10.090,197.800,47.260,14.660,4.738,385.000,113.300,39.230,14.570,baseline
1505.000,340.200,92.920,25.460,1232.000,252.300,49.900,10.050,197.600,47.190,14.700,4.730,385.900,113.800,39.220,14.640,baseline
1506.000,341.000,93.260,25.330,1233.000,252.000,49.750,10.010,198.200,47.420,14.740,4.752,386.800,114.000,39.350,14.620,baseline
1506.000,341.200,93.100,25.370,1235.000,253.500,49.900,10.070,197.800,47.480,14.770,4.751,386.600,113.800,39.390,14.710,baseline
1508.000,339.900,93.630,25.430,1233.000,253.300,49.870,10.050,196.300,47.410,14.750,4.752,387.700,114.500,39.560,14.780,baseline
1510.000,341.800,93.680,25.590,1229.000,253.200,49.860,10.090,197.400,47.410,14.820,4.794,388.800,114.700,39.690,14.840,baseline
1511.000,342.400,93.650,25.620,1233.000,252.600,50.080,10.070,197.900,47.380,14.810,4.778,388.800,115.000,39.810,14.930,baseline
1514.000,343.700,93.970,25.720,1233.000,253.200,50.040,10.060,197.200,47.680,14.880,4.779,391.800,115.400,39.940,14.940,baseline
1514.000,343.600,93.790,25.540,1235.000,253.300,49.940,10.080,197.500,47.560,14.870,4.748,388.700,114.700,39.650,14.780,baseline
1509.000,342.000,93.080,25.440,1233.000,252.800,50.010,10.050,198.400,47.450,14.850,4.746,387.300,114.500,39.640,14.800,baseline
1510.000,342.000,93.480,25.410,1233.000,253.400,49.760,10.130,197.400,47.250,14.840,4.750,389.700,114.600,39.670,14.830,baseline
1509.000,341.300,93.430,25.410,1233.000,254.000,49.890,10.050,198.400,47.620,14.860,4.771,389.500,114.600,39.770,14.850,baseline
1508.000,341.400,93.760,25.420,1237.000,253.400,49.980,10.100,196.800,47.360,14.840,4.763,388.800,114.900,39.700,14.880,baseline
1511.000,343.500,93.980,25.580,1233.000,254.100,49.880,10.120,198.800,47.690,14.840,4.793,391.500,115.500,39.970,15.030,baseline
1511.000,343.800,94.250,25.600,1233.000,253.700,49.920,10.120,198.900,47.720,14.920,4.788,391.900,115.800,40.110,15.040,baseline
1515.000,343.800,94.180,25.740,1234.000,253.800,49.980,10.070,199.100,47.910,14.900,4.805,393.400,116.100,40.320,15.110,baseline
1518.000,344.400,94.420,25.670,1232.000,252.900,49.980,10.070,199.500,47.730,14.960,4.804,392.600,115.600,39.970,14.940,baseline
1509.000,343.200,93.550,25.480,1237.000,253.200,49.870,10.050,197.700,47.560,14.870,4.795,390.000,115.400,39.730,14.900,baseline
1508.000,341.500,93.830,25.450,1233.000,253.700,50.070,10.100,196.800,47.630,14.810,4.786,389.400,114.800,39.760,14.920,baseline
1509.000,342.400,93.730,25.540,1233.000,253.100,50.030,10.110,197.000,47.810,14.850,4.788,390.600,115.200,40.000,14.940,baseline
1508.000,342.700,93.580,25.490,1234.000,253.400,50.130,10.090,198.600,47.780,14.930,4.774,391.700,115.200,39.950,14.950,baseline
1508.000,341.800,94.120,25.540,1231.000,253.400,50.160,10.080,198.400,47.560,14.860,4.784,391.200,115.400,39.890,15.030,baseline
1511.000,342.800,93.950,25.610,1238.000,253.600,50.130,10.080,198.000,47.640,14.860,4.774,392.800,116.000,40.260,15.060,baseline
1512.000,344.800,94.350,25.710,1234.000,253.700,50.170,10.140,201.200,48.140,14.920,4.799,392.900,116.000,40.290,15.160,baseline
1515.000,343.800,94.350,25.680,1236.000,254.000,50.060,10.080,198.400,47.980,14.900,4.807,393.500,115.300,39.910,14.960,baseline
1508.000,342.300,93.580,25.500,1231.000,253.000,49.900,10.050,198.800,47.860,14.830,4.764,391.300,115.100,39.800,14.920,baseline
1507.000,342.400,93.160,25.520,1233.000,253.100,49.950,10.100,198.900,47.550,14.900,4.792,390.100,115.000,39.900,14.900,baseline
1509.000,342.400,93.570,25.610,1230.000,253.600,50.130,10.110,198.600,47.590,14.860,4.787,390.700,115.300,39.990,14.940,baseline
1507.000,342.400,93.630,25.560,1230.000,253.400,49.960,10.110,198.900,47.630,14.840,4.783,390.100,115.100,39.880,14.970,baseline
1509.000,342.400,93.720,25.650,1234.000,253.600,50.060,10.090,195.600,47.460,14.930,4.810,391.000,115.300,39.930,14.970,baseline
1509.000,344.700,93.680,25.660,1234.000,253.500,50.090,10.130,197.900,47.480,14.830,4.784,390.300,115.500,40.070,15.020,baseline
1513.000,344.000,93.810,25.710,1234.000,254.000,50.100,10.130,196.300,47.280,14.870,4.781,391.400,115.500,40.110,15.040,baseline
1512.000,342.300,93.840,25.580,1236.000,253.900,49.960,10.040,198.100,47.750,14.890,4.800,390.300,115.400,39.740,14.950,baseline
1505.000,341.700,93.760,25.470,1232.000,253.600,49.920,10.080,197.200,47.510,14.790,4.759,389.900,114.600,39.570,14.870,baseline
1506.000,341.200,93.730,25.550,1229.000,253.600,50.010,10.130,197.400,47.420,14.850,4.772,389.100,115.000,39.810,14.910,baseline
1505.000,341.300,93.840,25.580,1229.000,253.500,49.940,10.140,196.700,47.390,14.820,4.774,390.300,115.100,39.830,14.910,baseline
1506.000,340.200,93.940,25.520,1232.000,253.300,50.060,10.120,195.800,47.610,14.760,4.792,390.900,115.100,39.730,14.940,baseline
1508.000,342.500,93.950,25.630,1234.000,253.600,49.970,10.110,197.700,47.740,14.860,4.785,391.000,115.400,39.940,14.970,baseline
1509.000,342.900,93.930,25.750,1236.000,254.300,49.840,10.060,197.900,47.810,14.910,4.777,392.000,115.700,39.990,15.000,baseline
1512.000,342.100,94.340,25.840,1233.000,254.200,50.120,10.140,197.000,47.440,14.810,4.786,392.300,115.900,40.350,15.080,baseline
1514.000,344.400,94.670,25.840,1231.000,253.400,50.320,10.130,198.900,47.750,14.830,4.790,391.900,115.700,40.060,15.000,baseline
1510.000,342.300,93.920,25.560,1232.000,254.300,50.080,10.090,199.500,47.450,14.880,4.776,390.200,115.200,39.730,14.870,baseline
1508.000,342.600,94.210,25.630,1238.000,253.100,50.100,10.110,198.900,47.340,14.860,4.777,391.500,115.100,39.790,14.860,baseline
1509.000,344.700,94.170,25.720,1235.000,253.800,50.170,10.080,198.300,47.380,14.860,4.774,391.800,115.100,39.950,14.940,baseline
1510.000,342.800,94.040,25.710,1236.000,254.300,50.100,10.080,196.800,47.400,14.890,4.766,390.800,115.700,40.000,14.900,baseline
1513.000,345.300,94.150,25.820,1236.000,254.100,50.150,10.110,198.600,47.770,14.850,4.786,393.200,116.400,40.020,15.010,baseline
1515.000,345.000,94.970,25.810,1238.000,254.300,50.270,10.120,198.400,47.890,14.870,4.800,393.700,116.300,40.310,15.090,baseline
1517.000,344.800,95.080,25.860,1237.000,253.600,50.190,10.130,197.900,47.530,14.910,4.813,394.400,116.700,40.390,15.120,baseline
1521.000,345.400,95.150,25.950,1237.000,255.000,50.460,10.210,198.000,47.430,14.860,4.798,396.000,117.100,40.450,15.190,baseline
1523.000,346.000,95.130,25.930,1235.000,254.500,50.220,10.120,197.600,47.860,14.970,4.833,396.000,116.900,40.350,15.100,baseline
1515.000,344.600,94.740,25.830,1239.000,254.400,50.150,10.110,199.000,47.380,14.880,4.788,393.200,116.200,40.190,15.070,baseline
1516.000,344.500,94.860,25.910,1238.000,254.400,50.180,10.110,199.700,47.530,15.040,4.800,394.000,116.400,40.130,15.110,baseline
1520.000,347.400,94.480,25.860,1238.000,254.800,50.130,10.160,198.000,47.700,14.910,4.805,395.700,116.700,40.260,15.070,baseline
1518.000,346.100,94.650,25.920,1240.000,255.000,50.230,10.120,199.200,48.010,14.860,4.813,396.100,116.700,40.510,15.170,baseline
1520.000,346.800,94.790,25.890,1241.000,254.700,50.230,10.160,199.200,47.810,14.990,4.808,396.100,117.400,40.530,15.200,baseline
1524.000,345.900,95.390,26.040,1240.000,254.800,50.590,10.170,199.000,48.100,14.990,4.822,397.400,117.800,40.630,15.270,baseline
1526.000,346.700,95.600,26.060,1243.000,255.200,50.370,10.190,199.400,47.780,15.040,4.830,398.900,118.000,40.970,15.310,baseline
1530.000,347.400,96.020,26.160,1243.000,256.100,50.340,10.170,199.500,47.870,15.020,4.831,399.000,117.800,40.690,15.250,baseline
1525.000,346.100,95.300,25.970,1241.000,255.400,50.400,10.180,200.100,48.300,14.940,4.803,396.100,117.300,40.280,15.120,baseline
1523.000,347.500,94.960,25.970,1241.000,254.800,50.280,10.160,200.600,47.720,14.990,4.828,396.900,117.300,40.590,15.080,baseline
1525.000,345.700,95.600,26.030,1240.000,254.700,50.420,10.180,200.200,48.080,14.930,4.800,398.000,117.500,40.410,15.170,baseline
1526.000,347.600,95.360,26.070,1241.000,255.400,50.360,10.130,201.100,47.920,14.950,4.795,397.200,117.300,40.560,15.170,baseline
1525.000,346.000,95.270,25.970,1236.000,254.800,50.290,10.160,198.800,47.970,14.950,4.812,397.800,117.900,40.770,15.230,baseline
1526.000,346.800,95.890,26.170,1239.000,255.500,50.280,10.170,201.200,47.910,15.030,4.842,399.800,118.200,40.820,15.280,baseline
1527.000,347.500,95.360,26.050,1238.000,254.700,50.430,10.130,200.900,48.210,15.020,4.826,401.100,118.200,40.790,15.250,baseline
1530.000,348.300,95.820,26.140,1244.000,255.200,50.530,10.180,201.800,48.230,14.990,4.839,401.900,118.800,41.020,15.300,baseline
1529.000,347.000,95.620,25.980,1239.000,254.200,50.290,10.170,199.900,47.840,15.020,4.796,400.400,118.000,40.570,15.170,baseline
1522.000,345.600,95.410,25.920,1238.000,254.600,50.290,10.130,201.100,48.250,15.030,4.819,398.300,117.500,40.530,15.190,baseline
1521.000,346.300,95.300,26.130,1235.000,254.400,50.030,10.110,199.600,47.910,14.980,4.850,398.800,117.900,40.770,15.210,baseline
1523.000,345.500,95.940,26.070,1239.000,253.800,50.240,10.160,202.100,47.850,15.010,4.824,399.600,118.100,40.740,15.180,baseline
1526.000,345.500,95.460,26.080,1242.000,254.800,50.160,10.140,200.600,47.710,15.020,4.819,399.700,118.100,40.650,15.210,baseline
1526.000,346.200,95.860,26.050,1241.000,254.700,50.300,10.130,200.900,47.940,14.980,4.828,400.600,118.300,40.830,15.280,baseline
1528.000,346.200,95.520,26.150,1238.000,255.400,50.250,10.160,200.200,48.200,15.030,4.828,401.500,118.700,40.980,15.340,baseline
1530.000,348.400,95.950,26.210,1237.000,254.500,50.420,10.180,200.000,48.110,15.010,4.824,402.000,119.000,40.940,15.410,baseline
1531.000,347.500,95.250,26.140,1238.000,254.900,50.280,10.130,200.700,47.990,15.050,4.847,402.500,118.600,40.920,15.180,baseline
1523.000,344.900,95.050,25.920,1239.000,253.900,50.420,10.150,202.700,48.130,15.040,4.818,400.100,117.900,40.650,15.160,baseline
1524.000,344.700,94.960,25.970,1238.000,254.200,50.140,10.150,199.600,48.240,15.040,4.838,399.900,118.100,40.710,15.150,baseline
1525.000,345.300,95.310,25.960,1238.000,254.100,50.280,10.120,200.600,48.110,15.050,4.823,400.600,118.500,40.800,15.230,baseline
1524.000,345.900,95.370,25.980,1242.000,254.100,50.150,10.110,202.000,48.040,15.000,4.834,402.000,118.500,40.810,15.290,baseline
1526.000,346.700,95.550,25.990,1238.000,254.000,50.260,10.120,202.300,48.510,15.010,4.829,401.900,118.400,41.020,15.340,baseline
1526.000,347.600,95.530,26.080,1240.000,254.100,50.220,10.090,202.200,47.970,15.050,4.858,402.700,119.000,41.010,15.360,baseline
1530.000,347.500,95.800,26.070,1238.000,254.200,50.110,10.100,202.600,48.100,15.060,4.846,403.200,119.100,41.180,15.410,baseline
1530.000,347.200,95.340,26.040,1234.000,254.500,50.250,10.090,200.700,48.320,15.120,4.841,401.600,118.700,41.010,15.230,baseline
1521.000,344.800,95.010,25.770,1231.000,254.000,50.090,10.070,203.000,48.390,15.000,4.823,400.900,118.100,40.530,15.230,baseline
1522.000,345.600,94.540,25.830,1238.000,253.700,50.140,10.110,199.900,48.220,15.010,4.840,400.300,118.200,40.710,15.260,baseline
1522.000,345.600,94.960,25.820,1236.000,253.900,50.030,10.060,198.700,48.050,15.010,4.842,400.300,118.100,40.780,15.280,baseline
1521.000,343.700,94.520,25.800,1235.000,254.300,50.160,10.090,200.600,47.910,15.090,4.833,400.700,118.200,40.840,15.240,baseline
1521.000,344.900,94.650,25.840,1231.000,253.500,49.980,10.080,198.300,48.120,15.040,4.866,400.700,118.600,40.830,15.310,baseline
1520.000,344.800,94.830,25.850,1238.000,253.800,50.020,10.050,198.100,47.980,15.050,4.848,400.000,118.500,40.830,15.340,baseline
1522.000,344.500,94.680,25.900,1235.000,253.300,50.060,10.050,201.400,48.130,15.090,4.858,401.500,118.600,40.990,15.370,baseline
1521.000,346.300,95.050,25.740,1234.000,253.600,49.900,10.020,200.900,48.390,15.070,4.833,401.900,118.400,40.750,15.270,baseline
1515.000,343.300,94.350,25.610,1234.000,251.800,49.800,10.020,200.300,47.890,14.980,4.830,397.700,117.300,40.770,15.210,baseline
1509.000,342.700,94.060,25.550,1230.000,253.300,49.800,10.030,199.800,47.800,14.990,4.843,397.200,117.300,40.500,15.220,baseline
1509.000,341.900,94.310,25.600,1224.000,251.800,49.670,10.030,198.600,47.750,15.010,4.829,397.200,117.200,40.500,15.140,baseline
1508.000,343.000,94.070,25.640,1228.000,252.600,49.560,10.000,200.500,47.700,14.940,4.833,395.900,116.700,40.580,15.110,baseline
1509.000,342.500,94.240,25.700,1229.000,251.800,49.780,10.050,198.800,47.590,14.990,4.805,396.600,117.200,40.400,15.130,baseline
1511.000,342.200,93.900,25.710,1225.000,251.700,49.680,10.020,198.800,48.070,14.990,4.815,396.300,117.300,40.580,15.170,baseline
1511.000,343.700,93.960,25.610,1228.000,251.900,49.710,10.000,199.400,47.530,14.960,4.813,396.500,117.200,40.520,15.160,baseline
1512.000,342.400,94.090,25.680,1228.000,251.700,49.590,9.976,200.900,47.950,14.990,4.828,395.700,117.000,40.350,15.060,baseline
1505.000,342.000,93.490,25.380,1229.000,251.200,49.570,10.010,200.500,47.620,14.840,4.788,393.600,116.200,40.070,14.970,baseline
1502.000,339.100,93.470,25.380,1226.000,251.100,49.530,9.993,198.600,47.530,14.840,4.788,392.900,115.800,40.050,14.930,baseline
1500.000,340.800,93.260,25.300,1225.000,250.600,49.330,9.979,198.600,47.310,14.840,4.796,392.700,116.100,39.990,14.920,baseline
1499.000,339.300,92.860,25.270,1226.000,251.300,49.400,9.953,198.700,47.420,14.860,4.790,391.900,115.700,40.040,14.960,baseline
1499.000,340.600,92.660,25.290,1223.000,250.500,49.340,9.952,198.600,47.380,14.860,4.778,393.500,115.900,39.980,14.940,baseline
1500.000,338.200,92.690,25.380,1223.000,250.700,49.360,9.932,197.400,47.610,14.760,4.787,392.400,116.000,40.060,14.950,baseline
1500.000,338.600,93.310,25.420,1225.000,251.200,49.430,9.943,198.800,47.400,14.860,4.793,394.800,116.200,40.130,14.980,baseline
1502.000,340.900,92.920,25.460,1224.000,250.600,49.360,9.947,198.400,47.490,14.880,4.772,394.500,116.000,39.910,14.980,baseline
1498.000,338.500,92.730,25.260,1222.000,250.200,49.230,9.913,196.200,47.150,14.770,4.760,390.800,115.200,39.690,14.760,baseline
1494.000,337.500,92.420,25.080,1223.000,250.100,49.430,9.881,198.000,47.130,14.810,4.757,390.200,114.900,39.670,14.730,baseline
1492.000,336.300,92.470,25.140,1221.000,250.600,49.330,9.931,197.000,47.030,14.750,4.731,389.800,114.700,39.680,14.740,baseline
1492.000,338.200,92.230,25.130,1220.000,250.700,49.300,9.931,196.200,47.660,14.740,4.743,389.100,114.400,39.620,14.740,baseline
1491.000,337.300,92.280,25.220,1225.000,249.800,49.450,9.876,196.200,47.500,14.670,4.739,388.800,114.500,39.710,14.730,baseline
1494.000,338.600,92.090,25.230,1223.000,250.400,49.270,9.910,196.700,47.190,14.730,4.759,389.300,115.100,39.580,14.770,baseline
1493.000,339.000,92.120,25.230,1224.000,250.600,49.390,9.955,196.500,47.590,14.730,4.741,390.000,114.700,39.730,14.780,baseline
1495.000,338.300,92.050,25.230,1224.000,250.600,49.410,9.915,196.000,46.960,14.720,4.760,390.200,115.300,39.930,14.840,baseline
1497.000,338.300,92.920,25.240,1223.000,250.800,49.070,9.890,198.100,47.300,14.760,4.746,390.900,115.000,39.700,14.740,baseline
1489.000,336.800,92.170,25.100,1221.000,250.600,49.190,9.894,195.600,47.280,14.680,4.717,388.100,114.700,39.560,14.660,baseline
1490.000,336.900,91.900,25.110,1222.000,250.800,49.390,9.924,196.900,46.950,14.730,4.726,387.600,114.300,39.460,14.660,baseline
1492.000,337.600,92.310,25.160,1220.000,250.500,49.420,9.890,196.500,47.220,14.770,4.760,387.200,114.200,39.510,14.660,baseline
1490.000,336.000,92.060,25.230,1221.000,250.600,49.410,9.931,196.500,47.150,14.740,4.720,387.800,114.500,39.460,14.670,baseline
1493.000,338.300,92.550,25.250,1219.000,250.900,49.220,9.922,196.800,47.130,14.700,4.733,387.900,114.600,39.510,14.720,baseline
1492.000,338.100,92.540,25.250,1224.000,250.100,49.500,9.928,196.200,46.910,14.750,4.739,388.400,114.400,39.690,14.770,baseline
1494.000,339.300,92.710,25.330,1225.000,250.900,49.390,9.965,196.900,47.490,14.760,4.735,389.200,115.000,39.770,14.770,baseline
1497.000,338.800,92.820,25.330,1226.000,251.100,49.540,9.938,195.900,47.340,14.780,4.729,389.100,114.800,39.740,14.750,baseline
1493.000,338.500,92.200,25.150,1227.000,251.000,49.250,9.930,196.400,47.330,14.700,4.725,387.500,114.100,39.250,14.610,baseline
1492.000,337.700,91.970,25.180,1222.000,251.000,49.400,9.948,195.300,47.500,14.630,4.713,387.500,113.800,39.230,14.590,baseline
1491.000,336.600,92.260,25.210,1225.000,251.300,49.370,9.943,196.300,47.200,14.710,4.694,386.900,114.100,39.450,14.580,baseline
1493.000,335.500,92.700,25.160,1224.000,251.300,49.470,9.964,195.700,46.890,14.730,4.737,388.700,114.200,39.400,14.660,baseline
1494.000,338.700,92.280,25.190,1224.000,251.400,49.570,9.987,196.500,47.020,14.750,4.725,387.300,114.400,39.370,14.650,baseline
1495.000,338.100,92.740,25.300,1225.000,252.300,49.520,9.956,195.800,47.050,14.720,4.712,388.400,114.600,39.700,14.710,baseline
1497.000,338.000,92.740,25.280,1225.000,251.200,49.510,9.967,197.400,47.260,14.730,4.727,388.200,114.600,39.740,14.730,baseline
1501.000,341.500,92.820,25.430,1225.000,252.200,49.600,9.958,195.700,47.390,14.790,4.719,390.100,115.100,39.680,14.740,baseline
1501.000,338.600,92.610,25.230,1225.000,252.400,49.490,9.886,197.400,47.440,14.810,4.738,387.900,114.500,39.460,14.600,baseline
1496.000,337.400,92.190,25.220,1230.000,251.400,49.510,9.955,196.600,47.120,14.700,4.699,387.300,114.100,39.430,14.590,baseline
1495.000,338.100,92.230,25.170,1227.000,251.900,49.530,9.964,195.100,47.210,14.710,4.692,386.900,113.900,39.320,14.550,baseline
1495.000,338.500,92.730,25.190,1228.000,251.400,49.700,9.979,196.100,46.940,14.690,4.703,387.000,114.100,39.340,14.580,baseline
1496.000,337.300,92.390,25.270,1228.000,251.000,49.670,9.991,196.700,47.400,14.680,4.719,387.000,114.400,39.510,14.560,baseline
1499.000,337.500,92.890,25.300,1228.000,251.600,49.700,9.976,196.900,47.150,14.710,4.727,388.000,114.700,39.490,14.670,baseline
1501.000,337.900,93.070,25.330,1231.000,252.100,49.660,9.979,196.400,47.200,14.780,4.721,389.800,114.700,39.720,14.730,baseline
1503.000,339.300,93.420,25.430,1228.000,252.400,49.700,9.947,196.900,47.540,14.870,4.742,390.400,115.100,39.890,14.870,baseline
1503.000,338.400,92.760,25.360,1229.000,251.300,49.540,9.981,198.400,47.500,14.850,4.751,389.800,114.900,39.720,14.700,baseline
1499.000,338.100,92.460,25.230,1230.000,252.200,49.620,9.935,197.800,47.540,14.760,4.728,387.200,114.400,39.410,14.590,baseline
1499.000,338.300,92.260,25.320,1233.000,251.700,49.410,9.966,197.300,47.160,14.680,4.698,387.600,114.500,39.570,14.530,baseline
1500.000,337.700,92.550,25.240,1229.000,252.600,49.630,9.912,197.900,47.200,14.770,4.694,389.100,114.300,39.420,14.630,baseline
1499.000,337.500,92.400,25.280,1229.000,251.600,49.680,9.917,196.700,47.350,14.680,4.713,388.100,114.500,39.750,14.630,baseline
1501.000,339.100,92.060,25.330,1229.000,252.000,49.600,9.949,197.400,47.650,14.770,4.735,388.600,114.400,40.030,14.830,baseline
1504.000,338.300,92.680,25.440,1231.000,251.900,49.700,9.990,198.400,47.560,14.860,4.753,389.800,115.100,39.830,14.740,baseline
1506.000,340.100,92.810,25.320,1233.000,252.000,49.600,9.926,196.800,47.510,14.800,4.677,388.200,115.700,40.150,14.680,baseline
1506.000,340.000,92.510,25.310,1228.000,251.200,49.510,9.885,198.600,47.500,14.830,4.708,389.200,115.200,39.880,14.640,baseline
1499.000,337.300,92.450,25.190,1227.000,251.200,49.680,9.941,197.700,47.660,14.930,4.709,386.300,115.200,39.630,14.600,baseline
1500.000,336.700,92.800,25.220,1226.000,251.700,49.550,9.903,196.500,47.370,14.860,4.707,387.400,115.300,39.800,14.620,baseline
1500.000,336.800,92.660,25.240,1229.000,251.600,49.450,9.913,198.200,48.040,14.850,4.713,388.700,114.900,39.830,14.630,baseline
1500.000,339.400,92.130,25.160,1229.000,252.600,49.490,9.962,197.600,47.690,14.830,4.728,390.300,115.000,39.860,14.730,baseline
1502.000,337.200,92.760,25.400,1234.000,252.500,49.670,9.948,200.800,47.630,14.860,4.730,389.000,115.200,39.850,14.780,baseline
1504.000,338.900,92.680,25.390,1228.000,252.900,49.650,9.929,198.600,47.370,14.860,4.689,390.000,115.100,39.940,14.850,baseline
1506.000,338.800,92.810,25.400,1230.000,251.100,49.630,9.933,197.100,48.060,14.830,4.734,392.000,115.400,40.070,14.840,baseline
1501.000,338.100,92.490,25.250,1228.000,251.200,49.730,9.940,198.500,47.320,14.870,4.724,388.100,114.200,39.590,14.680,baseline
1501.000,338.800,92.170,25.250,1225.000,251.800,49.640,9.957,197.500,47.520,14.760,4.735,386.600,114.100,39.550,14.660,baseline
1499.000,338.100,92.290,25.290,1228.000,251.200,49.450,9.928,197.900,47.180,14.770,4.704,387.500,114.200,39.550,14.750,baseline
1498.000,338.300,92.620,25.220,1230.000,251.800,49.520,9.899,196.300,47.230,14.750,4.686,388.300,114.600,39.690,14.750,baseline
1499.000,339.000,92.280,25.280,1228.000,251.800,49.660,9.954,197.600,47.180,14.740,4.708,388.900,114.500,39.840,14.800,baseline
1502.000,337.200,92.660,25.380,1231.000,252.300,49.530,9.971,197.300,47.040,14.800,4.732,389.200,115.000,39.740,14.850,baseline
1503.000,339.300,93.020,25.400,1233.000,252.000,49.430,9.965,197.800,47.600,14.790,4.727,390.400,115.400,39.920,14.920,baseline
1505.000,339.100,92.870,25.350,1229.000,251.800,49.550,9.953,195.300,47.900,14.870,4.738,390.900,115.400,39.880,14.810,baseline
1498.000,335.800,91.910,25.160,1226.000,251.300,49.630,9.929,197.000,47.660,14.790,4.715,387.400,114.100,39.470,14.650,baseline
1497.000,337.200,91.830,25.160,1227.000,251.500,49.430,9.982,196.900,47.310,14.780,4.725,387.800,114.400,39.630,14.710,baseline
1498.000,337.900,92.170,25.140,1226.000,252.000,49.680,9.951,199.000,47.140,14.810,4.728,388.200,114.400,39.760,14.800,baseline
1497.000,339.000,91.840,25.150,1228.000,251.900,49.530,9.898,198.300,47.650,14.790,4.726,388.700,115.000,39.780,14.850,baseline
1498.000,338.900,92.120,25.210,1230.000,251.500,49.610,9.914,199.000,47.480,14.730,4.713,388.600,114.800,39.890,14.840,baseline
1499.000,336.200,92.450,25.290,1227.000,251.900,49.630,9.957,199.000,47.370,14.790,4.733,391.500,115.000,39.850,14.850,baseline
1501.000,338.600,92.810,25.370,1229.000,252.200,49.730,10.010,198.800,47.430,14.820,4.742,390.500,115.400,40.100,14.910,baseline
1502.000,337.800,92.230,25.100,1226.000,251.700,49.330,9.884,195.100,47.250,14.790,4.709,388.600,114.500,39.550,14.740,baseline
1493.000,335.800,91.660,25.020,1229.000,251.000,49.260,9.896,197.900,47.080,14.760,4.686,387.500,114.000,39.390,14.630,baseline
1491.000,336.200,91.650,24.970,1226.000,251.500,49.400,9.886,198.900,47.330,14.560,4.658,384.600,113.500,39.260,14.580,baseline
1490.000,335.700,91.680,25.000,1224.000,251.500,49.380,9.915,195.300,46.920,14.560,4.635,384.000,113.100,39.040,14.460,baseline
1490.000,336.400,91.530,25.060,1227.000,250.600,49.420,9.894,194.800,46.480,14.500,4.602,382.800,113.000,39.010,14.490,baseline
1492.000,335.300,91.800,25.120,1228.000,251.500,49.400,9.961,194.100,46.550,14.530,4.623,382.900,113.200,39.200,14.590,baseline
1494.000,337.100,91.940,25.260,1225.000,252.000,49.560,9.946,193.400,46.470,14.540,4.641,384.300,113.600,39.260,14.660,baseline
1496.000,337.800,92.460,25.300,1227.000,250.900,49.410,9.934,194.900,46.740,14.560,4.639,383.900,113.500,39.350,14.620,baseline
1493.000,335.000,91.720,25.020,1224.000,251.600,49.200,9.921,193.900,46.460,14.540,4.635,382.300,113.200,39.110,14.520,baseline
1489.000,335.300,91.280,25.030,1226.000,251.500,49.390,9.894,193.900,46.530,14.500,4.638,383.300,113.200,39.180,14.540,baseline
1488.000,333.900,91.440,25.040,1228.000,251.000,49.280,9.861,195.500,46.620,14.550,4.649,385.600,113.600,39.240,14.570,baseline
1490.000,335.900,91.750,25.030,1224.000,251.000,49.280,9.926,195.600,46.560,14.560,4.661,384.700,113.700,39.320,14.610,baseline
1489.000,333.600,91.740,25.150,1229.000,251.100,49.340,9.915,195.300,46.800,14.620,4.682,385.300,113.600,39.410,14.660,baseline
1492.000,335.100,91.950,25.070,1230.000,250.800,49.280,9.921,196.100,47.000,14.610,4.655,387.600,113.800,39.470,14.730,baseline
1495.000,336.100,92.710,25.260,1225.000,252.200,49.590,9.947,196.400,46.750,14.720,4.698,389.300,114.400,39.820,14.730,baseline
1497.000,337.400,92.850,25.300,1227.000,251.300,49.320,9.943,196.200,47.120,14.620,4.695,388.200,114.900,39.540,14.730,baseline
1491.000,335.400,92.120,25.100,1227.000,251.800,49.320,9.938,196.600,46.720,14.640,4.674,385.500,113.900,39.380,14.640,baseline
1490.000,335.000,91.840,25.010,1225.000,250.700,49.450,9.934,197.200,46.770,14.570,4.668,385.100,113.800,39.260,14.620,baseline
1490.000,334.900,91.790,25.110,1226.000,251.700,49.350,9.954,195.600,47.080,14.640,4.686,386.900,114.100,39.330,14.680,baseline
1491.000,336.200,91.840,25.180,1229.000,250.900,49.510,9.950,195.300,46.830,14.570,4.667,385.200,113.600,39.430,14.660,baseline
1494.000,337.000,92.400,25.170,1228.000,250.900,49.650,9.956,195.600,47.180,14.610,4.675,387.000,114.400,39.530,14.710,baseline
1494.000,336.800,92.300,25.190,1229.000,251.700,49.440,9.970,196.700,47.020,14.660,4.671,388.600,114.400,39.760,14.770,baseline
1495.000,335.600,92.480,25.260,1231.000,252.400,49.500,9.992,195.400,47.020,14.680,4.693,389.500,115.200,39.810,14.840,baseline
1496.000,336.000,92.360,25.220,1232.000,250.700,49.460,9.939,197.000,47.160,14.670,4.713,388.900,114.300,39.390,14.680,baseline
1490.000,334.500,91.680,25.050,1223.000,251.300,49.380,9.932,197.100,47.250,14.680,4.691,385.800,113.800,39.350,14.630,baseline
1489.000,335.300,91.600,25.040,1230.000,251.000,49.360,9.973,195.000,47.110,14.620,4.664,385.600,114.200,39.410,14.690,baseline
1491.000,336.200,92.610,25.140,1225.000,251.500,49.370,9.903,195.900,47.150,14.650,4.671,386.700,114.000,39.440,14.690,baseline
1491.000,334.900,92.300,25.160,1226.000,250.900,49.470,9.973,197.600,47.150,14.680,4.691,387.600,114.200,39.420,14.700,baseline
1493.000,336.800,92.450,25.350,1224.000,250.800,49.460,9.992,197.300,47.090,14.710,4.720,386.900,114.400,39.820,14.910,baseline
1493.000,337.000,92.600,25.410,1221.000,250.500,49.330,9.977,197.000,46.910,14.770,4.769,387.200,114.800,39.860,14.880,baseline
1497.000,336.900,92.590,25.430,1224.000,251.100,49.580,9.980,197.300,46.970,14.680,4.722,388.600,114.800,39.940,14.820,baseline
1492.000,334.500,91.530,25.170,1227.000,251.600,49.470,9.950,196.200,47.380,14.660,4.686,387.000,114.300,39.570,14.670,baseline
1489.000,335.600,91.950,25.080,1227.000,250.700,49.360,9.981,197.200,47.410,14.680,4.704,387.600,114.000,39.490,14.710,baseline
1489.000,334.900,91.920,25.150,1228.000,250.800,49.250,9.933,197.700,46.960,14.710,4.701,387.500,114.600,39.510,14.720,baseline
1490.000,336.900,92.090,25.120,1230.000,251.400,49.390,9.941,195.700,47.310,14.710,4.709,388.200,114.100,39.610,14.700,baseline
1491.000,335.500,92.400,25.160,1227.000,251.800,49.390,9.950,198.200,47.390,14.710,4.701,388.600,114.400,39.660,14.770,baseline
1495.000,337.400,92.150,25.250,1227.000,252.400,49.610,9.986,196.200,47.430,14.720,4.706,388.300,114.600,39.530,14.770,baseline
1497.000,336.900,92.860,25.230,1228.000,251.900,49.520,9.934,198.700,47.380,14.700,4.710,389.500,115.200,39.890,14.820,baseline
1499.000,335.800,92.430,25.350,1228.000,252.300,49.470,9.958,198.500,47.210,14.760,4.700,389.900,115.300,39.780,14.780,baseline
1495.000,335.200,92.000,25.080,1226.000,251.500,49.310,9.968,197.500,47.210,14.660,4.695,388.500,114.300,39.330,14.650,baseline
1491.000,334.800,91.810,25.070,1224.000,251.600,49.340,9.957,196.300,47.140,14.650,4.673,387.200,114.200,39.340,14.620,baseline
1491.000,336.100,92.320,25.000,1229.000,251.200,49.520,9.926,195.700,47.240,14.680,4.697,386.900,114.300,39.520,14.670,baseline
1492.000,335.000,91.940,25.140,1229.000,251.000,49.490,9.936,196.700,47.110,14.650,4.679,387.600,114.100,39.520,14.640,baseline
1492.000,337.200,91.360,25.170,1228.000,251.200,49.500,9.964,198.400,47.460,14.670,4.688,387.100,114.500,39.470,14.670,baseline
1495.000,335.600,92.020,25.160,1225.000,251.600,49.480,9.965,197.500,47.500,14.610,4.687,387.400,114.700,39.550,14.730,baseline
1496.000,336.900,92.410,25.190,1230.000,252.100,49.320,9.932,196.700,47.120,14.690,4.693,389.700,114.700,39.710,14.750,baseline
1498.000,337.900,92.500,25.200,1228.000,251.600,49.410,9.929,197.400,47.150,14.720,4.714,390.500,114.900,39.740,14.740,baseline
1494.000,336.800,92.020,25.090,1228.000,250.900,49.290,9.944,197.700,47.070,14.630,4.694,387.200,114.100,39.330,14.570,baseline
1490.000,334.400,91.740,24.970,1225.000,250.700,49.200,9.947,196.200,46.970,14.670,4.691,385.000,113.600,39.310,14.550,baseline
1490.000,336.200,92.070,24.960,1226.000,251.300,49.450,9.902,196.900,46.900,14.590,4.672,387.800,113.800,39.240,14.590,baseline
1490.000,335.200,91.400,24.990,1229.000,250.400,49.190,9.936,196.500,47.130,14.600,4.679,386.200,113.900,39.360,14.570,baseline
1492.000,333.900,91.970,25.070,1230.000,251.300,49.370,9.937,197.300,47.310,14.650,4.661,386.300,113.800,39.260,14.630,baseline
1492.000,333.500,91.500,25.040,1226.000,250.800,49.420,9.922,194.900,47.220,14.700,4.689,387.400,114.100,39.320,14.610,baseline
1493.000,334.800,92.360,25.120,1225.000,251.400,49.420,9.946,195.700,47.060,14.610,4.702,388.200,114.200,39.630,14.740,baseline
1497.000,336.500,91.980,25.280,1230.000,251.000,49.400,9.903,196.600,47.550,14.640,4.684,388.400,114.500,39.720,14.730,baseline
1494.000,335.700,91.730,24.900,1227.000,250.900,49.190,9.910,196.000,47.320,14.740,4.684,386.500,113.800,39.290,14.580,baseline
1488.000,333.900,91.600,24.910,1224.000,250.900,49.290,9.904,194.500,47.170,14.610,4.666,385.400,113.900,39.240,14.520,baseline
1489.000,334.300,91.450,24.890,1226.000,251.400,49.220,9.947,196.000,47.120,14.570,4.683,385.600,113.800,39.230,14.600,baseline
1489.000,335.400,91.290,24.980,1225.000,250.400,49.180,9.929,197.400,47.040,14.610,4.679,385.100,113.600,39.190,14.530,baseline
1489.000,335.600,91.940,24.960,1224.000,250.800,49.330,9.909,197.600,46.880,14.630,4.699,386.300,113.600,39.490,14.650,baseline
1491.000,334.000,91.880,25.070,1224.000,250.600,49.180,9.912,194.300,47.250,14.660,4.680,387.200,113.800,39.430,14.690,baseline
1492.000,335.900,91.540,25.100,1227.000,250.900,49.320,9.928,196.800,46.920,14.700,4.681,386.800,113.900,39.470,14.710,baseline
1494.000,335.400,91.850,25.080,1226.000,251.000,49.310,9.914,198.600,47.600,14.700,4.701,387.800,114.500,39.530,14.690,baseline
1493.000,334.800,91.890,24.900,1225.000,251.200,49.130,9.888,196.600,47.180,14.690,4.670,385.900,113.700,39.150,14.590,baseline
1487.000,333.300,90.940,24.830,1225.000,250.400,49.090,9.907,197.300,46.810,14.650,4.650,384.000,113.400,39.110,14.540,baseline
1487.000,333.700,91.200,24.860,1225.000,250.500,49.210,9.864,195.700,46.890,14.600,4.678,384.700,113.200,39.100,14.570,baseline
1486.000,334.200,91.160,24.880,1226.000,250.200,49.090,9.901,196.100,47.080,14.620,4.667,385.300,112.900,39.160,14.530,baseline
1486.000,333.900,90.950,24.870,1225.000,250.900,49.220,9.907,196.500,47.010,14.620,4.666,383.300,113.500,39.140,14.550,baseline
1488.000,334.100,91.160,24.850,1225.000,250.400,49.170,9.895,197.900,46.920,14.650,4.671,384.900,113.600,39.180,14.620,baseline
1490.000,334.300,91.430,24.950,1227.000,250.100,49.170,9.950,196.400,46.910,14.670,4.677,386.400,114.100,39.400,14.630,baseline
1492.000,334.500,91.600,25.020,1228.000,250.600,49.100,9.922,195.100,46.940,14.720,4.678,385.700,114.100,39.390,14.650,baseline
1490.000,334.900,91.410,24.840,1225.000,250.700,49.150,9.884,197.100,47.000,14.700,4.663,384.700,113.200,39.040,14.490,baseline
1485.000,332.600,90.990,24.780,1222.000,251.200,49.040,9.900,196.500,46.620,14.590,4.642,383.200,112.700,38.890,14.420,baseline
1485.000,333.600,91.060,24.810,1226.000,250.800,49.130,9.861,195.300,46.910,14.610,4.637,383.400,112.700,38.910,14.490,baseline
1485.000,331.600,91.080,24.720,1223.000,249.900,49.330,9.851,195.600,47.030,14.540,4.652,383.000,112.800,38.930,14.460,baseline
1485.000,332.800,91.280,24.830,1231.000,250.600,49.170,9.886,195.800,46.710,14.610,4.672,384.200,112.900,39.080,14.530,baseline
1496.000,335.500,91.780,25.070,1227.000,250.600,49.450,9.903,194.600,47.230,14.600,4.694,384.800,113.500,39.360,14.780,baseline
1502.000,337.600,92.660,25.400,1215.000,249.300,49.110,9.898,198.300,47.470,14.790,4.761,386.500,114.000,39.690,14.870,baseline
1501.000,337.000,92.890,25.510,1209.000,248.500,49.170,9.925,198.200,47.000,14.820,4.786,387.900,114.700,39.770,14.920,baseline
1496.000,334.700,92.940,25.430,1206.000,247.000,48.750,9.854,196.300,47.380,14.790,4.777,387.300,114.000,39.330,14.760,baseline
1484.000,332.100,92.090,25.160,1205.000,246.400,48.810,9.896,197.200,47.190,14.780,4.772,383.100,112.900,39.250,14.760,baseline
1479.000,329.300,91.920,25.240,1197.000,245.500,48.750,9.898,196.900,47.150,14.750,4.745,383.100,113.100,39.160,14.840,baseline
1480.000,330.800,92.430,25.420,1203.000,246.300,48.820,9.993,194.700,47.290,14.820,4.904,377.600,112.200,39.780,15.640,baseline
1483.000,332.300,92.820,25.580,1205.000,247.400,49.070,10.050,191.900,46.570,14.880,5.069,365.900,110.400,39.870,15.930,baseline
1486.000,332.300,92.830,25.580,1210.000,247.700,48.960,10.010,190.300,45.670,14.780,5.083,360.900,109.700,39.610,15.810,baseline
1487.000,332.100,92.710,25.580,1210.000,246.700,49.000,10.010,186.300,45.290,14.710,5.077,358.600,109.400,39.700,15.930,baseline
1489.000,333.200,93.020,25.610,1210.000,247.800,48.970,10.000,185.800,44.910,14.620,5.017,357.300,108.600,39.570,15.600,baseline
1491.000,332.700,91.820,25.390,1218.000,248.400,48.890,9.948,185.000,44.710,14.360,4.815,364.800,109.900,38.820,15.000,baseline
1489.000,331.100,91.330,25.030,1224.000,248.600,48.920,9.909,189.000,45.360,14.410,4.733,369.600,110.400,38.720,14.710,baseline
1488.000,331.100,91.310,24.990,1225.000,249.400,49.080,9.894,187.900,45.490,14.350,4.697,370.100,109.800,38.440,14.670,baseline
1491.000,332.600,91.460,25.100,1226.000,249.700,48.970,9.861,191.000,45.680,14.320,4.691,370.600,110.400,38.620,14.680,baseline
1492.000,331.600,91.470,25.100,1220.000,249.400,49.140,9.872,189.100,45.850,14.400,4.703,370.200,110.400,38.650,14.700,baseline
1491.000,333.700,91.540,25.170,1221.000,250.000,49.300,9.930,190.700,45.610,14.300,4.706,371.300,110.800,38.720,14.690,baseline
1493.000,333.500,91.740,25.130,1224.000,250.700,49.000,9.897,190.400,45.890,14.360,4.709,373.200,110.900,38.720,14.740,baseline
1496.000,335.000,92.060,25.200,1224.000,251.000,49.230,9.971,192.600,45.850,14.450,4.688,373.300,111.400,38.820,14.730,baseline
1497.000,335.600,92.350,25.300,1226.000,251.500,49.220,9.971,191.300,45.940,14.410,4.702,374.000,111.700,39.020,14.820,baseline
1501.000,335.800,92.690,25.220,1229.000,250.700,49.210,9.953,191.700,46.210,14.420,4.712,374.600,111.600,38.720,14.700,baseline
1492.000,334.100,91.580,25.040,1225.000,250.300,49.260,9.922,189.400,46.140,14.400,4.664,372.500,110.600,38.570,14.590,baseline
1491.000,333.700,91.730,24.960,1221.000,250.300,49.200,9.898,189.900,45.940,14.390,4.684,371.300,110.900,38.560,14.590,baseline
1492.000,333.000,91.700,25.080,1226.000,250.100,49.110,9.929,190.600,45.940,14.350,4.675,371.900,110.700,38.640,14.650,baseline
1492.000,333.600,91.940,25.140,1226.000,250.400,49.320,9.876,190.700,45.880,14.380,4.679,372.700,110.700,38.570,14.580,baseline
1492.000,335.800,91.930,25.100,1227.000,251.400,49.260,9.910,191.300,45.610,14.430,4.683,373.000,111.300,38.780,14.680,baseline
1494.000,335.700,91.850,25.210,1220.000,250.000,49.410,9.909,190.100,46.020,14.410,4.695,374.600,111.500,38.730,14.720,baseline
1496.000,336.500,92.260,25.250,1228.000,251.100,49.230,9.935,191.100,45.980,14.430,4.687,375.300,111.500,39.010,14.760,baseline
1498.000,335.900,92.580,25.280,1227.000,251.000,49.010,9.932,192.100,45.990,14.430,4.696,376.600,112.000,39.040,14.740,baseline
1496.000,334.700,92.110,25.080,1224.000,250.200,49.320,9.888,190.700,46.090,14.430,4.685,374.900,111.000,38.670,14.590,baseline
1489.000,334.800,91.530,25.020,1226.000,250.500,49.190,9.926,192.200,45.550,14.330,4.667,372.600,111.000,38.510,14.540,baseline
1490.000,333.500,91.800,25.000,1223.000,250.500,49.100,9.872,190.900,45.840,14.290,4.671,373.500,110.800,38.470,14.570,baseline
1490.000,334.700,91.720,25.060,1223.000,250.100,48.980,9.855,189.100,46.100,14.340,4.646,373.900,111.200,38.570,14.530,baseline
1488.000,334.300,91.800,25.010,1222.000,250.000,49.120,9.876,191.800,45.780,14.330,4.665,374.700,111.100,38.590,14.580,baseline
1490.000,333.800,92.020,25.090,1223.000,250.200,49.300,9.894,191.800,46.110,14.430,4.667,374.300,111.300,38.750,14.630,baseline
1492.000,334.300,92.420,25.140,1226.000,249.500,49.150,9.883,190.900,46.570,14.470,4.680,375.200,111.000,38.740,14.710,baseline
1494.000,334.900,92.270,25.210,1226.000,250.100,49.160,9.888,190.200,46.220,14.530,4.690,376.300,112.000,38.740,14.730,baseline
1496.000,335.900,92.090,25.100,1225.000,249.800,49.200,9.889,192.400,46.030,14.450,4.685,377.200,111.500,38.650,14.570,baseline
1487.000,333.000,91.440,24.900,1223.000,249.600,48.980,9.893,192.200,46.160,14.370,4.655,372.300,110.600,38.400,14.460,baseline
1485.000,334.200,91.900,24.850,1220.000,249.400,48.850,9.834,191.500,45.860,14.360,4.651,372.500,110.500,38.290,14.500,baseline
1484.000,332.400,91.460,24.880,1224.000,249.200,49.020,9.808,190.200,45.880,14.350,4.635,373.700,110.600,38.560,14.490,baseline
1483.000,332.600,91.200,24.850,1221.000,249.800,48.690,9.843,191.600,45.840,14.350,4.645,372.400,110.700,38.340,14.510,baseline
1483.000,332.400,91.340,24.910,1221.000,249.600,49.040,9.863,191.700,45.820,14.410,4.673,372.600,111.000,38.310,14.510,baseline
1484.000,331.000,91.540,24.920,1218.000,249.800,49.140,9.850,190.400,46.090,14.340,4.681,373.600,110.900,38.570,14.570,baseline
1486.000,334.000,91.330,24.990,1218.000,248.900,49.060,9.806,191.700,45.640,14.380,4.671,373.200,111.300,38.680,14.580,baseline
1487.000,333.000,91.370,25.080,1216.000,249.300,48.950,9.825,192.100,46.270,14.460,4.687,375.000,111.200,38.540,14.540,baseline
1480.000,331.200,90.980,24.710,1217.000,249.100,48.890,9.801,192.400,46.050,14.330,4.649,372.700,109.900,38.310,14.380,baseline
1478.000,331.900,90.850,24.720,1220.000,249.000,48.900,9.772,192.300,45.550,14.320,4.663,370.700,110.300,38.260,14.370,baseline
1478.000,332.400,90.380,24.720,1220.000,248.200,48.880,9.812,191.700,46.030,14.360,4.645,372.400,110.300,38.160,14.400,baseline
1476.000,330.400,90.820,24.590,1220.000,248.600,48.880,9.734,190.700,46.240,14.340,4.646,372.200,110.000,38.150,14.400,baseline
1475.000,330.900,90.910,24.650,1220.000,248.300,48.740,9.796,192.200,45.710,14.320,4.656,373.100,110.400,38.170,14.410,baseline
1477.000,331.600,90.930,24.780,1217.000,248.800,48.680,9.779,191.600,45.950,14.330,4.635,372.700,110.900,38.230,14.450,baseline
1478.000,332.300,90.740,24.700,1215.000,248.700,48.750,9.778,191.900,46.160,14.360,4.668,372.400,110.800,38.530,14.510,baseline
1479.000,331.200,91.270,24.730,1214.000,248.700,48.820,9.766,194.700,45.900,14.410,4.654,374.000,110.700,38.330,14.440,baseline
1473.000,328.600,90.240,24.530,1216.000,248.400,48.490,9.741,190.500,46.190,14.300,4.643,372.000,110.100,37.960,14.320,baseline
1469.000,328.700,90.150,24.410,1212.000,247.100,48.590,9.749,190.100,45.790,14.310,4.633,370.000,109.800,37.840,14.220,baseline
1468.000,328.700,89.770,24.450,1214.000,247.500,48.490,9.722,191.800,45.970,14.320,4.632,369.900,109.400,37.880,14.240,baseline
1467.000,328.900,89.890,24.430,1210.000,247.400,48.520,9.722,190.100,46.070,14.340,4.617,370.100,109.400,37.830,14.240,baseline
1467.000,329.700,89.580,24.400,1210.000,247.100,48.560,9.751,189.000,46.140,14.260,4.643,370.500,109.600,37.930,14.290,baseline
1468.000,329.100,89.920,24.400,1214.000,246.000,48.430,9.723,190.900,45.950,14.390,4.629,370.900,109.500,37.940,14.330,baseline
1469.000,329.800,90.080,24.540,1214.000,247.800,48.380,9.775,191.000,46.090,14.410,4.656,372.000,109.900,38.110,14.330,baseline
1472.000,328.800,89.790,24.510,1217.000,247.800,48.590,9.701,191.500,46.240,14.320,4.636,370.600,110.100,38.060,14.280,baseline
1466.000,327.200,89.630,24.230,1213.000,247.200,48.430,9.691,192.400,45.970,14.340,4.599,368.100,109.100,37.690,14.140,baseline
1462.000,326.500,89.380,24.160,1210.000,247.300,48.410,9.656,188.500,45.380,14.330,4.617,367.200,108.600,37.500,14.120,baseline
1461.000,326.300,89.060,24.290,1208.000,247.100,48.520,9.699,192.400,45.620,14.230,4.613,366.900,109.100,37.680,14.090,baseline
1461.000,326.400,89.230,24.270,1214.000,246.900,48.410,9.663,189.900,45.860,14.230,4.618,367.000,108.600,37.550,14.130,baseline
1460.000,325.300,89.130,24.190,1214.000,247.200,48.470,9.705,190.800,45.690,14.310,4.629,368.000,108.700,37.400,14.130,baseline
1464.000,326.100,89.660,24.380,1210.000,247.000,48.580,9.723,190.800,46.190,14.270,4.628,368.200,109.300,37.830,14.210,baseline
1465.000,326.500,89.320,24.380,1211.000,247.100,48.580,9.712,190.300,45.850,14.310,4.638,368.900,109.400,37.820,14.220,baseline
1468.000,327.200,89.690,24.430,1213.000,246.400,48.510,9.677,192.300,45.790,14.380,4.632,369.600,109.300,37.930,14.260,baseline
1462.000,326.200,88.990,24.140,1212.000,247.000,48.270,9.701,191.300,45.980,14.320,4.617,367.100,108.700,37.410,14.040,baseline
1460.000,324.800,89.230,24.120,1213.000,246.900,48.600,9.687,191.700,45.510,14.260,4.627,367.000,108.300,37.310,14.050,baseline
1460.000,326.300,89.490,24.120,1213.000,246.100,48.490,9.702,190.000,45.750,14.320,4.619,366.400,108.300,37.610,14.070,baseline
1459.000,326.300,89.190,24.130,1210.000,246.400,48.410,9.701,191.400,45.890,14.250,4.637,366.200,108.800,37.430,14.070,baseline
1460.000,325.500,89.550,24.070,1212.000,246.900,48.450,9.699,191.000,45.550,14.290,4.625,367.300,108.700,37.460,14.110,baseline
1463.000,327.000,89.390,24.310,1213.000,246.700,48.500,9.749,192.500,46.090,14.400,4.638,367.900,109.200,37.670,14.180,baseline
1466.000,327.800,89.710,24.330,1214.000,246.500,48.610,9.743,189.500,45.810,14.370,4.659,369.900,109.000,37.920,14.190,baseline
1468.000,328.700,90.050,24.330,1211.000,247.200,48.450,9.709,191.900,46.410,14.410,4.661,368.400,109.400,37.890,14.220,baseline
1466.000,327.700,89.380,24.090,1214.000,247.100,48.610,9.685,192.400,45.960,14.300,4.665,367.200,108.400,37.360,14.030,baseline
1461.000,326.700,89.120,24.090,1216.000,247.500,48.580,9.736,190.200,45.600,14.350,4.622,366.700,108.000,37.440,14.010,baseline
1462.000,327.400,88.990,24.120,1213.000,247.500,48.730,9.697,191.000,45.850,14.340,4.645,365.900,108.800,37.510,14.020,baseline
1465.000,328.200,89.410,24.110,1213.000,247.300,48.540,9.738,190.800,45.850,14.330,4.658,365.800,108.400,37.430,14.050,baseline
1464.000,328.100,89.610,24.260,1214.000,247.200,48.640,9.765,193.300,45.840,14.320,4.642,366.500,108.500,37.520,14.140,baseline
1468.000,327.100,89.350,24.280,1214.000,247.400,48.580,9.768,190.900,45.640,14.350,4.673,367.500,109.000,37.760,14.150,baseline
1470.000,329.400,90.400,24.360,1217.000,247.600,48.630,9.773,192.000,45.890,14.310,4.677,368.100,109.200,37.690,14.190,baseline
1473.000,328.800,90.120,24.420,1215.000,247.700,48.660,9.787,191.200,46.140,14.460,4.677,369.100,109.400,37.840,14.170,baseline
1471.000,327.600,90.060,24.200,1213.000,247.400,48.730,9.743,191.700,45.960,14.430,4.669,367.400,108.400,37.370,14.020,baseline
1465.000,325.800,89.790,24.180,1213.000,247.700,48.710,9.729,193.200,45.860,14.320,4.652,366.300,108.400,37.410,13.980,baseline
1468.000,327.900,89.570,24.220,1213.000,247.500,48.740,9.764,190.300,46.210,14.370,4.637,365.500,108.100,37.420,14.020,baseline
1469.000,328.400,89.590,24.290,1213.000,248.000,48.800,9.783,189.800,45.800,14.300,4.658,366.700,108.100,37.300,14.030,baseline
1470.000,329.900,90.050,24.340,1214.000,248.200,48.830,9.797,192.300,45.590,14.350,4.650,365.400,108.100,37.430,14.010,baseline
1472.000,330.100,90.170,24.380,1219.000,248.700,48.740,9.834,189.200,45.960,14.340,4.653,366.600,108.600,37.640,14.060,baseline
1476.000,329.700,90.510,24.460,1219.000,248.600,48.880,9.806,192.900,45.960,14.390,4.670,368.300,108.500,37.490,14.100,baseline
1478.000,330.100,90.570,24.440,1218.000,248.500,48.860,9.805,193.100,46.130,14.400,4.678,367.400,108.900,37.710,14.130,baseline
1477.000,330.700,90.530,24.370,1218.000,248.900,48.980,9.822,191.200,46.100,14.350,4.658,366.200,108.200,37.510,13.990,baseline
1471.000,327.500,89.650,24.240,1214.000,247.700,48.650,9.798,191.600,45.660,14.340,4.630,364.300,107.800,37.140,13.920,baseline
1472.000,328.000,89.930,24.340,1217.000,248.000,48.650,9.823,188.800,45.550,14.300,4.647,364.200,108.000,37.210,13.930,baseline
1472.000,328.300,89.620,24.310,1216.000,248.400,48.670,9.768,190.900,46.150,14.340,4.646,364.200,107.800,37.210,13.910,baseline
1473.000,329.300,89.830,24.250,1218.000,248.200,48.860,9.820,191.900,45.630,14.340,4.650,364.100,107.900,37.310,13.980,baseline
1476.000,329.700,90.280,24.440,1217.000,248.300,48.680,9.797,189.600,45.910,14.300,4.640,366.100,108.800,37.300,14.020,baseline
1478.000,331.000,90.450,24.440,1223.000,248.900,49.040,9.828,190.200,45.880,14.390,4.670,367.200,108.800,37.510,14.090,baseline
1479.000,331.400,90.490,24.580,1223.000,248.500,48.910,9.833,192.600,45.920,14.380,4.677,368.500,108.900,37.610,14.080,baseline
1482.000,330.900,90.450,24.580,1220.000,248.700,48.870,9.812,191.900,45.980,14.390,4.673,367.700,109.100,37.810,14.090,baseline
1479.000,330.300,90.540,24.360,1218.000,247.800,48.820,9.829,190.500,46.040,14.380,4.645,365.400,107.800,37.130,13.870,baseline
1474.000,328.000,89.980,24.290,1218.000,248.500,48.980,9.836,191.000,46.000,14.290,4.631,364.300,107.700,37.090,13.910,baseline
1474.000,327.600,90.210,24.370,1221.000,247.900,49.010,9.849,190.000,45.840,14.280,4.648,364.200,108.400,37.160,13.910,baseline
1476.000,328.900,89.910,24.340,1220.000,248.200,48.900,9.846,188.500,45.940,14.290,4.638,364.000,107.900,37.080,13.910,baseline
1475.000,329.200,90.180,24.350,1219.000,248.400,48.950,9.819,190.000,45.720,14.290,4.657,364.700,108.100,37.180,13.970,baseline
1477.000,328.900,90.430,24.470,1220.000,248.200,48.920,9.842,189.100,45.590,14.410,4.655,365.700,108.500,37.440,13.990,baseline
1480.000,331.300,90.560,24.540,1217.000,249.000,49.100,9.848,189.600,45.890,14.340,4.662,366.400,108.800,37.580,14.050,baseline
1481.000,330.700,90.690,24.620,1219.000,248.400,48.960,9.877,191.800,45.880,14.380,4.657,368.700,108.800,37.630,14.070,baseline
1483.000,331.200,91.030,24.630,1219.000,249.100,49.060,9.854,191.700,45.680,14.370,4.678,367.500,109.100,37.660,14.150,baseline
1485.000,331.300,90.790,24.640,1219.000,248.900,48.880,9.839,190.300,45.820,14.360,4.689,368.000,109.200,37.520,14.050,baseline
1478.000,328.800,90.260,24.370,1214.000,248.800,48.820,9.837,190.600,45.870,14.330,4.670,364.100,108.000,37.190,13.930,baseline
1475.000,328.800,89.900,24.400,1215.000,248.100,48.610,9.824,192.400,45.780,14.310,4.646,366.500,108.000,37.220,13.980,baseline
1475.000,329.100,90.110,24.450,1216.000,248.000,48.890,9.856,189.400,45.840,14.340,4.661,364.800,107.900,37.100,13.900,baseline
1474.000,329.400,90.300,24.430,1215.000,247.700,48.900,9.802,190.100,45.800,14.330,4.660,364.900,108.100,37.230,14.010,baseline
1474.000,329.800,90.180,24.440,1217.000,248.300,48.630,9.817,190.700,46.130,14.330,4.671,365.900,108.600,37.310,14.010,baseline
1476.000,328.600,90.610,24.430,1219.000,248.300,48.860,9.808,193.500,45.800,14.390,4.655,367.000,108.500,37.460,14.090,baseline
1477.000,329.400,90.950,24.570,1218.000,248.300,48.680,9.817,191.200,45.990,14.360,4.676,367.300,108.900,37.560,14.110,baseline
1479.000,329.700,90.690,24.520,1222.000,248.700,48.860,9.836,192.300,45.810,14.390,4.679,368.000,108.900,37.700,14.140,baseline
1481.000,331.100,91.310,24.680,1215.000,249.100,48.870,9.866,192.100,46.210,14.470,4.682,367.700,109.700,37.930,14.230,baseline
1483.000,331.600,90.760,24.590,1218.000,248.100,48.840,9.790,190.400,46.390,14.390,4.670,368.400,109.200,37.620,14.100,baseline
1474.000,327.000,90.320,24.390,1214.000,247.300,48.770,9.786,189.800,45.900,14.390,4.666,366.700,108.500,37.410,14.000,baseline
1473.000,328.300,89.840,24.410,1214.000,247.700,48.760,9.791,192.100,45.820,14.400,4.663,366.500,108.100,37.270,14.030,baseline
1473.000,328.700,89.830,24.470,1212.000,247.600,48.760,9.803,189.200,45.860,14.350,4.676,364.600,108.300,37.330,14.010,baseline
1471.000,327.800,89.790,24.310,1215.000,248.000,48.680,9.768,190.100,45.820,14.280,4.673,365.800,108.500,37.380,14.000,baseline
1472.000,328.500,90.010,24.380,1215.000,246.900,48.590,9.745,190.700,45.990,14.320,4.675,367.400,109.000,37.590,14.090,baseline
1473.000,327.200,90.270,24.350,1216.000,246.700,48.580,9.780,192.500,46.170,14.400,4.694,367.000,108.700,37.640,14.190,baseline
1473.000,329.000,90.580,24.430,1213.000,247.900,48.780,9.819,191.800,45.920,14.420,4.691,369.200,109.300,37.680,14.170,baseline
1476.000,330.300,90.620,24.490,1219.000,247.600,48.820,9.849,193.200,46.170,14.480,4.694,369.100,109.500,37.930,14.260,baseline
1479.000,330.100,90.580,24.640,1218.000,247.800,48.760,9.768,193.000,46.120,14.400,4.700,369.600,109.500,37.830,14.240,baseline
1473.000,327.200,89.950,24.350,1215.000,247.600,48.500,9.812,192.200,45.980,14.380,4.678,367.200,108.800,37.490,14.110,baseline
1468.000,327.400,89.800,24.350,1215.000,247.000,48.560,9.786,192.600,46.040,14.390,4.664,366.600,108.500,37.510,14.080,baseline
1469.000,326.000,89.830,24.430,1211.000,247.000,48.500,9.773,191.100,45.870,14.380,4.664,366.600,108.600,37.440,14.020,baseline
1469.000,327.600,89.690,24.340,1215.000,246.600,48.860,9.760,190.800,46.130,14.350,4.655,367.200,108.500,37.490,14.090,baseline
1468.000,327.300,89.610,24.290,1212.000,247.200,48.610,9.759,191.900,45.820,14.380,4.666,367.900,108.600,37.610,14.060,baseline
1469.000,328.100,89.760,24.410,1213.000,246.500,48.620,9.771,192.400,46.190,14.430,4.677,367.500,109.200,37.650,14.230,baseline
1472.000,329.500,89.950,24.500,1215.000,247.300,48.690,9.821,190.000,46.190,14.410,4.705,368.000,109.000,37.930,14.220,baseline
1473.000,329.700,90.600,24.440,1215.000,247.900,48.720,9.806,192.100,46.130,14.440,4.706,369.500,109.600,37.920,14.260,baseline
1476.000,330.400,90.220,24.530,1215.000,247.200,48.700,9.770,192.000,45.770,14.450,4.693,370.100,109.500,37.750,14.210,baseline
1467.000,326.200,89.580,24.210,1214.000,247.300,48.480,9.728,191.000,46.340,14.400,4.686,366.700,108.800,37.400,14.050,baseline
1464.000,326.300,89.030,24.230,1212.000,247.200,48.460,9.750,191.900,46.170,14.330,4.667,366.200,108.900,37.560,14.090,baseline
1463.000,326.600,89.950,24.310,1212.000,246.300,48.430,9.751,192.700,46.020,14.390,4.679,366.300,108.800,37.350,14.080,baseline
1463.000,326.000,89.420,24.170,1213.000,246.700,48.580,9.768,191.700,45.980,14.410,4.651,366.900,108.500,37.500,14.060,baseline
1464.000,325.200,89.650,24.260,1212.000,246.800,48.450,9.757,192.500,45.760,14.370,4.670,366.200,108.700,37.670,14.140,baseline
1465.000,326.800,89.840,24.310,1215.000,246.600,48.590,9.751,193.100,45.940,14.340,4.688,367.900,109.100,37.720,14.140,baseline
1468.000,327.900,89.970,24.380,1216.000,247.000,48.580,9.781,192.900,45.910,14.460,4.662,369.200,109.400,37.820,14.200,baseline
1470.000,327.600,90.090,24.410,1217.000,247.100,48.750,9.745,193.900,46.100,14.430,4.675,369.500,109.600,37.760,14.180,baseline
1469.000,326.700,89.590,24.120,1210.000,246.400,48.590,9.715,191.300,46.110,14.420,4.676,368.400,108.700,37.430,14.000,baseline
1460.000,325.600,89.300,24.100,1215.000,246.800,48.510,9.713,192.300,45.950,14.330,4.656,366.400,108.300,37.210,14.000,baseline
1460.000,325.400,89.130,24.180,1214.000,245.900,48.480,9.720,192.200,46.040,14.330,4.674,366.400,108.200,37.320,14.020,baseline
1461.000,326.300,89.020,24.100,1209.000,246.200,48.320,9.692,192.400,46.140,14.350,4.643,366.500,108.100,37.450,13.980,baseline
1460.000,325.200,89.000,24.120,1212.000,246.400,48.500,9.751,191.800,45.750,14.340,4.661,368.000,108.700,37.500,14.050,baseline
1461.000,325.500,89.270,24.140,1212.000,246.800,48.450,9.742,191.800,45.850,14.320,4.670,368.000,108.700,37.650,14.060,baseline
1464.000,326.700,89.250,24.280,1211.000,247.300,48.620,9.782,192.600,46.280,14.400,4.678,368.400,108.900,37.650,14.070,baseline
1466.000,326.600,89.470,24.300,1213.000,246.400,48.610,9.741,193.000,45.960,14.380,4.678,369.200,109.400,37.870,14.140,baseline
1467.000,326.000,89.390,24.110,1213.000,246.600,48.290,9.731,192.800,46.100,14.350,4.662,367.900,108.700,37.300,13.970,baseline
1458.000,323.800,88.740,24.070,1212.000,246.600,48.640,9.700,189.900,45.840,14.340,4.643,365.500,107.900,36.960,13.900,baseline
1458.000,324.700,88.710,23.950,1213.000,246.400,48.340,9.720,192.100,45.930,14.290,4.639,366.200,108.100,37.110,13.910,baseline
1459.000,325.200,88.780,24.030,1210.000,246.200,48.430,9.720,193.300,45.770,14.360,4.630,367.000,108.400,37.230,13.940,baseline
1458.000,324.300,88.900,23.980,1211.000,246.000,48.520,9.725,191.300,45.700,14.330,4.639,366.400,108.100,37.280,13.940,baseline
1461.000,326.000,89.310,24.080,1215.000,246.900,48.470,9.731,191.200,45.820,14.310,4.647,366.600,108.400,37.280,13.980,baseline
1464.000,326.700,89.630,24.150,1213.000,247.300,48.370,9.731,192.000,46.250,14.340,4.657,367.300,108.600,37.470,14.050,baseline
1465.000,324.900,89.550,24.160,1209.000,247.300,48.310,9.749,190.300,46.360,14.380,4.670,368.800,109.000,37.730,14.090,baseline
1466.000,326.200,89.130,24.010,1209.000,246.900,48.250,9.691,193.600,46.060,14.390,4.645,367.400,108.500,37.150,13.900,baseline
1459.000,324.200,88.820,23.890,1212.000,245.800,48.300,9.709,192.500,45.810,14.340,4.647,365.700,107.600,36.960,13.860,baseline
1459.000,324.900,88.580,23.880,1215.000,246.500,48.450,9.705,191.200,45.770,14.300,4.627,365.300,107.200,37.100,13.900,baseline
1460.000,324.900,89.110,23.980,1211.000,247.400,48.430,9.708,192.500,45.810,14.300,4.637,366.000,107.800,37.040,13.880,baseline
1460.000,324.700,88.520,23.990,1212.000,246.600,48.430,9.701,191.700,46.180,14.260,4.641,365.800,107.900,37.190,13.920,baseline
1462.000,324.800,89.040,23.930,1215.000,246.900,48.450,9.725,190.400,45.740,14.320,4.645,365.200,108.100,37.170,13.940,baseline
1464.000,325.300,89.300,24.020,1214.000,246.900,48.670,9.733,193.300,46.020,14.410,4.645,366.600,108.000,37.410,13.970,baseline
1467.000,325.700,89.080,24.140,1218.000,246.500,48.580,9.776,191.300,45.500,14.380,4.663,368.100,108.700,37.540,14.070,baseline
1468.000,327.700,89.150,24.110,1212.000,247.000,48.360,9.690,191.500,46.560,14.360,4.684,368.100,108.300,37.290,13.820,baseline
1461.000,324.900,88.700,23.880,1213.000,246.600,48.540,9.699,192.600,45.750,14.290,4.658,364.900,107.900,36.900,13.800,baseline
1460.000,324.200,88.470,23.830,1211.000,246.400,48.390,9.702,191.400,45.460,14.330,4.654,365.700,107.400,37.020,13.790,baseline
1461.000,323.600,88.890,23.950,1211.000,247.000,48.550,9.691,191.400,45.810,14.240,4.633,365.900,107.900,36.940,13.740,baseline
1461.000,323.300,88.730,23.880,1211.000,246.700,48.510,9.747,191.400,45.510,14.280,4.655,365.300,107.600,36.960,13.830,baseline
1463.000,324.700,89.000,24.060,1214.000,247.300,48.570,9.732,191.600,45.670,14.380,4.650,366.100,108.000,37.030,13.870,baseline
1467.000,324.800,89.460,24.050,1215.000,247.200,48.530,9.766,192.200,46.000,14.310,4.658,365.500,107.900,37.200,13.890,baseline
1468.000,327.000,89.250,24.200,1217.000,247.100,48.650,9.748,191.400,45.950,14.390,4.687,367.300,108.500,37.460,13.990,baseline
1470.000,326.800,89.560,24.110,1215.000,247.400,48.650,9.755,194.400,45.880,14.360,4.670,367.000,108.600,37.270,13.930,baseline
1464.000,324.600,88.940,23.930,1217.000,246.900,48.580,9.705,190.600,46.040,14.260,4.661,365.200,107.900,37.020,13.750,baseline
1463.000,326.400,89.110,23.970,1214.000,247.400,48.460,9.718,188.600,45.670,14.320,4.663,364.100,107.600,36.890,13.760,baseline
1462.000,325.900,88.810,23.990,1212.000,246.900,48.520,9.731,190.600,45.690,14.310,4.641,364.400,107.400,36.840,13.780,baseline
1463.000,325.100,88.720,23.890,1212.000,246.400,48.410,9.789,190.700,45.720,14.310,4.656,366.000,107.400,36.960,13.800,baseline
1463.000,326.100,89.050,24.000,1210.000,246.900,48.630,9.752,190.600,46.240,14.380,4.675,365.400,107.900,37.090,13.800,baseline
1467.000,325.800,89.130,24.000,1218.000,247.100,48.490,9.797,190.100,45.840,14.370,4.682,366.600,107.900,37.160,13.840,baseline
1469.000,325.500,89.190,24.110,1220.000,247.500,48.610,9.780,194.100,46.430,14.310,4.655,366.400,108.200,37.150,13.860,baseline
1471.000,326.200,89.630,24.130,1216.000,247.400,48.690,9.758,190.900,46.070,14.380,4.669,366.800,108.400,37.400,13.980,baseline
1470.000,327.000,89.670,24.030,1213.000,247.200,48.670,9.740,191.600,45.880,14.370,4.658,366.500,107.900,36.910,13.750,baseline
1464.000,326.600,88.740,23.970,1213.000,247.600,48.680,9.711,192.800,45.950,14.330,4.649,363.800,107.300,36.870,13.740,baseline
1465.000,326.100,88.830,23.960,1214.000,247.800,48.740,9.708,190.600,46.000,14.330,4.663,364.300,107.500,36.940,13.750,baseline
1467.000,326.600,89.120,23.980,1212.000,247.400,48.540,9.752,187.900,45.720,14.330,4.648,365.200,107.300,36.850,13.780,baseline
1466.000,326.900,89.050,23.980,1216.000,247.000,48.630,9.760,190.400,45.750,14.350,4.667,365.200,107.500,36.770,13.760,baseline
1468.000,327.400,88.990,23.980,1216.000,247.500,48.500,9.759,191.300,45.930,14.370,4.668,365.100,108.000,37.150,13.850,baseline
1469.000,326.600,89.270,24.090,1216.000,247.100,48.660,9.773,190.900,46.210,14.400,4.685,366.400,108.200,37.140,13.890,baseline
1471.000,326.400,89.490,24.190,1213.000,247.600,48.600,9.779,190.200,46.130,14.390,4.688,368.400,108.300,37.340,13.890,baseline
1473.000,327.100,89.510,24.220,1212.000,247.600,48.770,9.793,192.200,46.080,14.430,4.690,367.100,108.300,37.290,13.900,baseline
1468.000,327.000,89.410,23.890,1212.000,247.000,48.590,9.762,192.700,45.990,14.420,4.677,364.800,107.500,36.970,13.780,baseline
1466.000,326.300,89.130,23.970,1212.000,247.400,48.550,9.721,191.200,45.910,14.360,4.663,364.200,107.000,36.770,13.690,baseline
1465.000,326.200,88.700,24.010,1212.000,246.900,48.580,9.765,190.900,45.820,14.340,4.657,363.600,107.400,36.820,13.750,baseline
1465.000,325.600,89.000,24.070,1213.000,247.200,48.560,9.754,190.800,46.070,14.300,4.660,364.500,107.200,36.840,13.790,baseline
1465.000,325.500,89.160,24.000,1211.000,247.400,48.750,9.728,191.700,45.680,14.360,4.662,365.500,107.500,37.000,13.810,baseline
1467.000,326.500,89.330,24.110,1214.000,247.200,48.630,9.769,190.400,45.870,14.380,4.675,365.700,107.700,37.030,13.860,baseline
1470.000,328.800,89.450,24.160,1217.000,246.600,48.690,9.780,191.200,46.090,14.390,4.682,366.700,108.100,37.140,13.920,baseline
1471.000,327.400,89.820,24.160,1215.000,247.600,48.710,9.770,191.500,46.090,14.400,4.694,366.400,108.500,37.330,13.940,baseline
1471.000,327.000,89.990,24.190,1213.000,247.300,48.680,9.771,191.200,46.320,14.440,4.704,367.900,108.300,37.150,13.910,baseline
1468.000,325.900,88.710,24.020,1214.000,248.000,48.650,9.796,190.400,46.110,14.350,4.663,364.900,107.500,36.840,13.770,baseline
1465.000,326.100,89.010,23.960,1212.000,246.800,48.640,9.766,191.800,45.930,14.320,4.674,364.900,107.300,36.760,13.730,baseline
1465.000,326.100,88.790,23.940,1208.000,247.400,48.420,9.749,190.100,45.830,14.360,4.684,363.600,107.700,37.020,13.790,baseline
1465.000,326.500,89.130,23.990,1213.000,248.100,48.660,9.769,190.200,46.040,14.350,4.672,363.800,107.500,36.860,13.770,baseline
1466.000,325.700,88.920,24.060,1213.000,247.100,48.600,9.776,191.100,45.830,14.300,4.678,364.300,107.700,37.020,13.830,baseline
1468.000,326.800,88.980,24.110,1210.000,247.400,48.430,9.791,190.900,45.820,14.370,4.691,366.200,108.100,37.310,13.930,baseline
1469.000,327.000,89.100,24.250,1211.000,247.500,48.860,9.770,190.800,45.920,14.340,4.691,366.900,108.200,37.360,13.910,baseline
1470.000,328.500,89.190,24.210,1213.000,247.500,48.800,9.783,190.400,46.090,14.390,4.698,367.600,108.800,37.450,13.960,baseline
1472.000,328.200,89.300,24.300,1217.000,247.800,48.710,9.794,191.100,45.820,14.390,4.707,369.800,108.800,37.470,14.010,baseline
1474.000,328.600,89.540,24.100,1217.000,247.600,48.630,9.784,191.500,46.220,14.520,4.694,366.800,108.500,37.210,13.850,baseline
1466.000,326.200,89.550,24.090,1216.000,247.400,48.550,9.762,189.400,46.050,14.360,4.670,365.200,107.700,37.070,13.850,baseline
1465.000,326.300,88.660,24.120,1215.000,247.600,48.730,9.813,191.300,46.270,14.370,4.686,365.300,107.500,36.980,13.860,baseline
1466.000,325.900,89.480,24.060,1213.000,246.500,48.740,9.787,191.300,46.040,14.350,4.675,365.900,107.600,37.100,13.910,baseline
1466.000,327.400,89.380,24.140,1214.000,247.800,48.750,9.790,190.800,45.770,14.380,4.705,367.300,108.100,37.100,13.900,baseline
1468.000,328.000,89.420,24.210,1214.000,247.500,48.650,9.766,192.100,45.860,14.410,4.675,366.500,108.000,37.240,13.940,baseline
1470.000,327.400,89.750,24.310,1218.000,248.400,48.670,9.791,192.400,46.080,14.480,4.696,368.300,108.600,37.540,13.980,baseline
1471.000,329.400,89.400,24.210,1217.000,247.400,48.710,9.761,190.500,45.970,14.400,4.704,366.900,108.800,37.550,14.090,baseline
1473.000,329.600,89.800,24.340,1214.000,248.300,48.730,9.794,191.100,46.360,14.470,4.711,368.700,109.100,37.580,14.120,baseline
1476.000,329.900,89.870,24.440,1218.000,248.200,48.790,9.814,191.900,46.540,14.470,4.701,370.100,109.000,37.540,13.960,baseline
1470.000,327.500,89.320,24.170,1214.000,247.200,48.740,9.796,192.400,46.220,14.420,4.678,365.800,108.100,37.180,13.880,baseline
1467.000,327.200,89.280,24.160,1218.000,247.600,48.750,9.781,191.900,46.140,14.390,4.701,367.700,108.600,37.140,13.930,baseline
1468.000,326.800,89.340,24.200,1216.000,247.700,48.700,9.801,192.100,45.900,14.410,4.685,367.100,108.300,37.340,13.910,baseline
1469.000,328.500,89.030,24.180,1214.000,247.000,48.730,9.765,192.000,46.390,14.390,4.673,367.500,108.500,37.320,13.970,baseline
1469.000,328.000,89.330,24.180,1216.000,247.900,48.740,9.794,193.400,46.440,14.410,4.692,368.000,108.800,37.400,13.960,baseline
1471.000,327.800,89.640,24.320,1216.000,247.800,48.850,9.814,193.100,45.900,14.430,4.697,369.300,108.900,37.640,14.080,baseline
1473.000,327.900,90.720,24.310,1216.000,247.600,48.810,9.852,193.400,46.370,14.460,4.709,369.400,109.500,37.660,14.120,baseline
1475.000,328.400,90.050,24.420,1214.000,248.600,48.770,9.808,193.000,46.240,14.470,4.722,369.400,109.400,37.740,14.150,baseline
1478.000,328.700,90.490,24.400,1217.000,248.000,48.720,9.850,194.000,46.400,14.520,4.726,371.800,109.800,37.990,14.120,baseline
1473.000,328.100,89.800,24.270,1215.000,247.900,48.810,9.808,194.100,46.320,14.520,4.705,368.400,109.100,37.380,13.960,baseline
1470.000,327.500,89.350,24.330,1211.000,248.400,48.830,9.793,192.700,46.360,14.450,4.693,368.500,108.900,37.420,13.990,baseline
1470.000,326.300,89.710,24.280,1217.000,248.000,48.760,9.739,193.200,46.540,14.450,4.699,369.100,108.900,37.400,14.020,baseline
1471.000,329.500,89.490,24.230,1214.000,247.400,48.750,9.808,190.700,46.270,14.440,4.703,368.600,109.100,37.390,14.010,baseline
1471.000,328.100,90.020,24.350,1216.000,248.200,48.880,9.837,192.700,46.220,14.450,4.703,367.500,108.900,37.590,14.110,baseline
1473.000,329.000,89.890,24.350,1220.000,248.500,48.850,9.806,192.700,46.160,14.420,4.704,368.700,109.100,37.610,14.100,baseline
1475.000,328.900,90.350,24.310,1217.000,248.000,48.810,9.870,192.400,46.340,14.500,4.700,370.300,109.600,37.900,14.180,baseline
1477.000,330.000,89.890,24.440,1218.000,248.900,48.890,9.881,193.000,46.330,14.460,4.702,371.100,109.800,37.990,14.230,baseline
1479.000,329.600,90.720,24.460,1219.000,247.900,48.730,9.861,192.200,46.500,14.550,4.720,371.800,109.700,37.790,14.190,baseline
1477.000,327.300,89.970,24.320,1216.000,248.600,48.760,9.747,193.900,46.560,14.550,4.695,369.300,108.900,37.700,14.060,baseline
1473.000,328.000,89.860,24.370,1216.000,248.300,48.740,9.808,192.200,46.150,14.510,4.680,369.200,109.100,37.520,14.020,baseline
1473.000,328.800,89.670,24.270,1219.000,248.600,48.940,9.805,190.700,46.300,14.430,4.700,368.000,109.100,37.500,14.060,baseline
1473.000,329.500,89.880,24.300,1213.000,248.000,48.670,9.800,192.200,46.420,14.450,4.707,370.900,109.200,37.730,14.070,baseline
1472.000,328.200,89.480,24.350,1215.000,248.600,48.990,9.825,194.200,46.300,14.510,4.697,369.600,109.200,37.670,14.120,baseline
1475.000,328.600,89.950,24.420,1216.000,248.600,48.980,9.832,191.500,46.670,14.520,4.721,371.000,109.700,37.820,14.130,baseline
1477.000,329.400,90.130,24.440,1216.000,248.600,48.910,9.828,193.000,46.540,14.520,4.711,370.700,109.800,37.970,14.180,baseline
1478.000,331.000,90.550,24.500,1219.000,248.700,48.970,9.844,195.300,46.430,14.570,4.738,371.900,110.100,38.000,14.280,baseline
1482.000,330.400,90.320,24.580,1221.000,248.300,48.850,9.836,193.600,46.420,14.540,4.730,372.700,110.300,38.060,14.330,baseline
1477.000,329.600,89.550,24.350,1217.000,248.400,48.880,9.796,192.000,46.830,14.560,4.696,370.800,109.400,37.750,14.120,baseline
1474.000,327.100,89.940,24.250,1219.000,248.800,48.920,9.805,192.600,46.270,14.460,4.705,368.100,109.300,37.590,14.110,baseline
1474.000,329.700,89.520,24.350,1217.000,248.500,48.820,9.797,193.100,46.280,14.480,4.709,369.100,109.100,37.720,14.140,baseline
1474.000,328.900,89.950,24.330,1213.000,248.400,48.860,9.830,191.800,46.350,14.450,4.706,370.600,109.700,37.710,14.130,baseline
1475.000,328.500,90.100,24.480,1216.000,248.900,48.930,9.847,193.900,46.060,14.530,4.712,370.400,109.500,37.690,14.190,baseline
1477.000,329.600,90.290,24.370,1215.000,248.700,49.020,9.867,193.100,46.490,14.500,4.710,371.200,109.700,37.900,14.230,baseline
1478.000,329.700,90.460,24.430,1218.000,248.200,48.950,9.826,193.100,46.300,14.530,4.721,371.600,110.000,37.930,14.300,baseline
1480.000,331.500,90.570,24.550,1220.000,249.300,49.220,9.889,193.700,46.350,14.550,4.722,371.400,110.300,38.090,14.310,baseline
1482.000,331.800,90.100,24.570,1219.000,248.900,48.980,9.832,192.200,46.650,14.520,4.734,371.200,110.000,37.750,14.200,baseline
1475.000,328.600,90.300,24.400,1217.000,248.000,48.990,9.814,193.000,46.320,14.480,4.706,369.300,109.500,37.580,14.070,baseline
1475.000,328.700,89.940,24.410,1217.000,248.500,48.820,9.827,192.200,46.320,14.480,4.688,368.500,109.100,37.760,14.050,baseline
1476.000,330.800,89.910,24.430,1216.000,249.100,48.860,9.866,192.900,46.280,14.400,4.705,369.600,109.300,37.630,14.100,baseline
1477.000,329.400,89.900,24.320,1218.000,248.200,48.700,9.844,194.300,46.290,14.420,4.689,368.800,109.000,37.660,14.130,baseline
1477.000,329.900,90.180,24.430,1218.000,249.200,49.050,9.850,192.700,46.300,14.440,4.692,369.000,109.700,37.620,14.130,baseline
1479.000,330.200,90.300,24.480,1221.000,248.500,48.870,9.860,191.900,45.990,14.440,4.703,371.700,109.900,37.990,14.210,baseline
1481.000,330.900,90.520,24.520,1223.000,248.900,49.060,9.845,192.900,46.240,14.500,4.703,370.900,109.900,37.960,14.240,baseline
1484.000,330.900,91.010,24.670,1220.000,249.800,48.980,9.863,192.900,46.470,14.470,4.701,372.000,110.100,37.960,14.160,baseline
1480.000,329.700,90.330,24.420,1219.000,249.100,48.930,9.828,193.100,46.140,14.420,4.694,369.700,109.200,37.550,14.020,baseline
1476.000,328.900,89.930,24.300,1216.000,249.100,48.780,9.853,193.500,46.330,14.440,4.674,368.700,108.800,37.380,14.020,baseline
1475.000,329.200,90.240,24.360,1218.000,248.600,48.910,9.820,193.300,46.240,14.420,4.671,368.500,108.600,37.510,14.050,baseline
1476.000,329.200,89.940,24.390,1214.000,247.800,48.970,9.816,191.100,46.060,14.360,4.681,368.500,108.800,37.490,14.030,baseline
1476.000,330.100,90.300,24.450,1214.000,248.700,49.120,9.808,192.600,46.300,14.400,4.677,368.700,109.000,37.510,14.080,baseline
1478.000,329.500,90.220,24.440,1215.000,248.200,48.810,9.852,190.700,46.410,14.430,4.669,370.000,109.100,37.670,14.100,baseline
1480.000,330.300,90.620,24.520,1221.000,249.300,48.990,9.857,192.800,45.910,14.480,4.681,370.000,109.400,37.820,14.190,baseline
1482.000,330.700,90.220,24.570,1221.000,248.700,49.040,9.832,193.200,46.140,14.400,4.683,370.800,109.800,37.830,14.180,baseline
1481.000,331.000,90.270,24.380,1216.000,249.200,48.890,9.826,192.600,46.380,14.520,4.668,369.200,109.300,37.470,14.010,baseline
1476.000,329.800,90.040,24.420,1219.000,247.800,48.770,9.866,192.600,46.090,14.430,4.676,366.900,108.700,37.320,13.920,baseline
1474.000,328.700,89.540,24.350,1215.000,248.500,48.800,9.814,191.900,45.950,14.320,4.669,367.500,108.600,37.170,13.920,baseline
1475.000,330.400,89.770,24.420,1217.000,248.300,48.880,9.857,192.000,46.200,14.410,4.647,368.000,108.500,37.390,13.950,baseline
1476.000,328.400,90.050,24.300,1214.000,247.700,48.850,9.827,192.100,46.040,14.380,4.651,367.700,108.600,37.440,13.950,baseline
1475.000,329.800,89.790,24.370,1217.000,248.700,48.860,9.827,193.900,46.280,14.400,4.667,368.300,108.700,37.420,14.020,baseline
1478.000,331.300,90.200,24.410,1217.000,249.000,48.830,9.815,191.700,46.070,14.350,4.670,368.400,108.800,37.520,14.030,baseline
1479.000,331.300,90.140,24.580,1220.000,248.100,48.800,9.841,192.800,46.070,14.450,4.673,369.100,109.400,37.780,14.060,baseline
1480.000,330.300,90.600,24.400,1217.000,248.000,48.830,9.834,191.800,46.390,14.500,4.685,368.500,109.100,37.480,13.950,baseline
1474.000,329.000,89.880,24.230,1216.000,248.800,48.810,9.808,191.900,46.040,14.370,4.655,367.700,108.300,37.170,13.880,baseline
1473.000,329.900,89.750,24.250,1215.000,248.100,48.810,9.829,192.400,45.720,14.340,4.649,367.200,107.900,37.120,13.900,baseline
1473.000,330.700,90.010,24.240,1217.000,248.800,49.000,9.825,191.000,45.980,14.360,4.669,366.300,107.800,37.270,13.920,baseline
1474.000,329.800,90.420,24.310,1214.000,248.300,48.730,9.817,190.500,46.240,14.330,4.676,366.400,108.400,37.190,13.940,baseline
1474.000,330.100,90.110,24.280,1212.000,248.100,48.930,9.802,193.600,46.100,14.420,4.683,367.800,108.400,37.410,13.940,baseline
1475.000,330.000,90.490,24.490,1214.000,248.300,48.890,9.832,192.100,46.070,14.440,4.690,368.800,108.900,37.480,14.000,baseline
1478.000,331.400,90.380,24.420,1219.000,247.800,48.920,9.828,193.200,45.840,14.420,4.691,368.000,109.100,37.560,14.020,baseline
1480.000,331.200,90.320,24.460,1219.000,247.700,49.150,9.833,193.000,46.250,14.430,4.715,369.500,109.100,37.420,14.060,baseline
1476.000,330.500,89.910,24.340,1214.000,248.300,48.810,9.762,192.300,46.090,14.430,4.660,366.900,108.300,37.130,13.860,baseline
1472.000,329.400,89.870,24.290,1215.000,248.800,48.960,9.825,193.300,46.010,14.380,4.664,366.300,108.300,37.030,13.830,baseline
1474.000,328.200,90.210,24.290,1217.000,248.700,48.900,9.822,189.400,45.720,14.300,4.652,365.000,108.000,37.120,13.910,baseline
1474.000,330.300,89.890,24.320,1215.000,248.300,48.800,9.834,191.500,45.810,14.320,4.667,366.100,108.200,37.180,13.850,baseline
1475.000,330.500,90.210,24.330,1216.000,248.200,48.790,9.820,193.100,46.050,14.360,4.659,366.300,108.000,37.130,13.870,baseline
1476.000,331.200,90.140,24.370,1216.000,249.200,48.970,9.879,190.100,46.110,14.350,4.668,367.300,108.500,37.340,13.920,baseline
1478.000,330.800,90.560,24.410,1212.000,248.200,48.930,9.906,193.100,46.280,14.400,4.664,368.100,108.800,37.360,13.990,baseline
1481.000,332.100,90.510,24.450,1216.000,249.100,49.030,9.851,190.100,45.930,14.410,4.682,368.700,109.300,37.410,14.030,baseline
1482.000,331.100,90.620,24.450,1215.000,249.100,49.120,9.838,190.900,46.210,14.470,4.676,369.200,109.100,37.380,13.900,baseline
1476.000,330.300,89.820,24.270,1215.000,248.200,48.940,9.831,191.700,45.970,14.440,4.642,367.400,108.200,37.190,13.830,baseline
1475.000,329.900,89.840,24.300,1213.000,248.100,48.880,9.842,192.800,46.290,14.380,4.653,365.400,108.000,37.290,13.850,baseline
1475.000,329.900,89.780,24.320,1217.000,248.800,48.710,9.789,191.600,45.990,14.330,4.657,365.400,108.200,37.210,13.850,baseline
1475.000,331.000,90.220,24.360,1218.000,249.000,48.820,9.809,192.000,45.790,14.350,4.665,366.000,108.400,37.150,13.840,baseline
1477.000,329.900,89.990,24.360,1217.000,248.400,48.860,9.835,192.900,46.020,14.400,4.673,367.500,108.500,37.200,13.890,baseline
1479.000,331.100,90.490,24.390,1218.000,248.500,48.960,9.861,192.200,46.050,14.460,4.687,367.000,108.700,37.380,13.980,baseline
1481.000,332.600,90.150,24.540,1219.000,248.000,48.940,9.829,193.200,45.770,14.410,4.684,368.700,109.000,37.520,14.040,baseline
1483.000,331.100,90.390,24.570,1216.000,249.000,48.890,9.851,192.500,46.080,14.450,4.681,368.600,108.900,37.520,14.050,baseline
1483.000,330.900,90.780,24.540,1217.000,249.400,48.750,9.816,193.100,46.390,14.440,4.689,367.900,109.100,37.370,13.900,baseline
1478.000,329.100,90.210,24.310,1217.000,248.200,49.020,9.812,191.700,45.920,14.370,4.671,366.400,108.600,37.240,13.830,baseline
1477.000,330.900,90.060,24.440,1215.000,248.100,48.990,9.851,192.100,45.930,14.410,4.669,365.100,107.800,37.190,13.840,baseline
1478.000,330.600,90.180,24.430,1216.000,248.400,48.790,9.839,191.000,46.220,14.400,4.678,366.200,108.600,37.160,13.880,baseline
1478.000,331.700,89.810,24.440,1214.000,248.600,49.000,9.850,191.400,45.560,14.380,4.667,367.200,108.300,37.190,13.850,baseline
1479.000,330.300,90.130,24.430,1214.000,247.300,48.860,9.855,192.000,46.330,14.410,4.668,367.500,108.700,37.370,13.900,baseline
1482.000,331.900,90.400,24.520,1218.000,248.900,48.960,9.908,191.100,46.200,14.390,4.675,367.800,108.700,37.490,13.920,baseline
1484.000,331.300,90.740,24.560,1218.000,248.300,49.100,9.867,191.700,46.280,14.450,4.699,368.100,109.200,37.570,14.020,baseline
1485.000,332.800,90.770,24.540,1221.000,248.600,49.180,9.891,192.600,46.150,14.500,4.700,369.400,109.500,37.770,14.110,baseline
1487.000,332.200,90.840,24.650,1220.000,249.300,49.070,9.898,194.300,45.920,14.460,4.704,371.000,109.400,37.410,13.950,baseline
1481.000,331.200,90.500,24.430,1221.000,248.500,48.940,9.850,190.600,46.300,14.420,4.672,366.700,108.700,37.250,13.880,baseline
1481.000,330.300,90.330,24.430,1221.000,248.700,48.810,9.874,192.500,45.700,14.330,4.659,367.100,108.400,37.350,13.830,baseline
1480.000,329.300,90.720,24.410,1215.000,249.200,48.930,9.853,193.200,45.800,14.430,4.636,367.600,108.400,37.360,13.880,baseline
1480.000,330.300,89.890,24.470,1219.000,248.500,48.900,9.833,191.000,45.990,14.340,4.675,367.100,108.600,37.350,13.890,baseline
1480.000,329.600,90.170,24.420,1217.000,248.700,48.960,9.856,190.100,46.260,14.410,4.684,367.500,108.700,37.560,13.950,baseline
1484.000,330.800,90.660,24.480,1220.000,249.400,49.110,9.873,191.000,46.170,14.430,4.692,368.600,109.400,37.580,14.040,baseline
1485.000,331.800,90.450,24.590,1221.000,248.900,49.060,9.899,191.700,46.240,14.510,4.702,369.400,109.300,37.700,14.050,baseline
1487.000,331.800,90.740,24.650,1219.000,248.600,49.190,9.880,190.700,46.310,14.490,4.721,369.900,109.700,37.880,14.100,baseline
1488.000,332.500,90.980,24.630,1218.000,248.300,48.860,9.896,192.500,46.540,14.430,4.702,369.400,109.500,37.650,14.000,baseline
1482.000,331.400,90.310,24.430,1218.000,249.000,48.970,9.896,190.600,46.010,14.480,4.679,368.500,109.000,37.350,13.950,baseline
1480.000,329.600,90.570,24.530,1220.000,248.400,48.900,9.829,192.300,46.410,14.430,4.712,368.800,109.000,37.480,13.990,baseline
1480.000,330.100,90.820,24.460,1219.000,248.800,48.830,9.827,192.900,46.130,14.430,4.688,368.600,109.200,37.500,14.030,baseline
1481.000,332.200,90.270,24.500,1219.000,248.500,48.890,9.856,192.100,46.100,14.460,4.700,368.800,109.300,37.630,14.000,baseline
1481.000,331.900,90.350,24.560,1214.000,249.200,48.890,9.894,191.600,46.040,14.480,4.693,369.700,109.500,37.640,14.080,baseline
1483.000,330.300,90.460,24.540,1217.000,248.600,48.800,9.840,194.100,46.470,14.490,4.716,370.600,109.600,37.840,14.160,baseline
1483.000,330.700,90.520,24.650,1215.000,248.400,49.010,9.880,193.500,46.310,14.540,4.730,371.700,110.200,38.060,14.280,baseline
1486.000,333.000,90.970,24.720,1216.000,249.600,49.050,9.882,193.300,46.680,14.540,4.744,372.400,110.100,38.070,14.260,baseline
1485.000,331.300,90.740,24.560,1217.000,247.900,48.690,9.845,194.100,46.440,14.590,4.729,370.700,110.000,37.660,14.100,baseline
1479.000,331.300,90.520,24.480,1215.000,248.600,48.890,9.857,192.500,46.620,14.560,4.719,369.900,109.200,37.710,14.110,baseline
1479.000,330.500,90.560,24.530,1217.000,248.400,48.830,9.821,194.500,46.350,14.530,4.720,369.800,110.000,37.750,14.150,baseline
1485.000,331.900,90.630,24.570,1222.000,248.700,49.060,9.905,193.600,46.380,14.590,4.755,370.900,109.700,37.850,14.190,baseline
1490.000,332.700,91.400,24.700,1222.000,249.400,49.350,9.897,194.900,46.330,14.570,4.757,372.000,110.100,38.100,14.260,baseline
1494.000,334.900,91.330,24.790,1223.000,249.800,49.220,9.941,194.600,46.400,14.630,4.752,373.200,110.700,38.090,14.330,baseline
1491.000,333.600,91.420,24.710,1220.000,249.400,49.060,9.943,193.500,46.970,14.670,4.785,373.600,110.900,38.280,14.400,baseline
1488.000,332.900,91.140,24.750,1217.000,249.000,49.070,9.933,196.000,46.810,14.650,4.779,374.100,111.400,38.430,14.430,baseline
1487.000,332.500,91.150,24.690,1218.000,248.800,49.020,9.866,193.500,46.660,14.630,4.788,373.900,110.800,38.050,14.320,baseline
1480.000,331.900,90.680,24.630,1214.000,248.700,48.950,9.858,193.800,46.650,14.590,4.758,371.400,110.100,37.850,14.260,baseline
1481.000,331.300,90.980,24.680,1219.000,247.600,49.150,9.887,192.300,46.440,14.650,4.772,371.500,110.300,38.020,14.270,baseline
1483.000,332.100,90.870,24.570,1219.000,248.900,49.050,9.889,194.900,46.690,14.620,4.734,371.400,110.500,38.020,14.260,baseline
1484.000,331.600,90.630,24.560,1215.000,249.000,49.010,9.872,192.700,47.000,14.640,4.746,373.000,110.500,38.000,14.300,baseline
1485.000,333.200,90.540,24.680,1218.000,248.100,48.970,9.856,192.900,46.680,14.610,4.764,373.500,110.700,38.020,14.280,baseline
1485.000,332.400,91.040,24.700,1221.000,248.600,48.970,9.865,196.400,46.860,14.650,4.756,373.200,111.000,38.180,14.350,baseline
1488.000,334.500,91.180,24.750,1220.000,248.400,49.210,9.935,194.200,46.590,14.620,4.750,374.600,111.400,38.350,14.360,baseline
1488.000,332.200,90.980,24.590,1222.000,248.700,48.900,9.900,195.900,46.700,14.670,4.750,373.400,110.600,37.990,14.240,baseline
1481.000,330.300,90.380,24.490,1218.000,248.700,48.990,9.877,195.100,46.590,14.560,4.732,372.600,109.900,37.900,14.230,baseline
1477.000,330.600,90.680,24.420,1217.000,247.200,48.880,9.843,194.900,46.500,14.640,4.760,372.600,110.400,37.990,14.340,baseline
1475.000,330.300,90.350,24.400,1211.000,248.300,48.930,9.840,191.400,46.820,14.660,4.773,373.700,110.800,37.970,14.280,baseline
1472.000,329.000,90.000,24.440,1208.000,247.100,48.890,9.798,194.300,46.670,14.620,4.763,374.000,110.500,38.060,14.340,baseline
1473.000,329.800,90.270,24.380,1213.000,247.400,48.910,9.827,193.800,46.920,14.680,4.775,374.700,111.200,38.290,14.440,baseline
1475.000,329.700,90.530,24.530,1209.000,247.200,48.820,9.856,195.100,46.840,14.690,4.801,375.800,111.200,38.400,14.440,baseline
1477.000,330.800,90.520,24.500,1212.000,247.900,49.040,9.854,196.300,46.710,14.710,4.798,375.800,111.600,38.480,14.460,baseline
1475.000,329.700,90.150,24.360,1211.000,247.100,48.750,9.787,196.400,46.890,14.660,4.744,374.500,110.400,38.050,14.240,baseline
1469.000,327.800,89.480,24.380,1208.000,246.300,48.820,9.775,192.700,46.720,14.550,4.747,371.600,110.000,37.960,14.220,baseline
1468.000,328.700,90.120,24.260,1209.000,246.000,48.830,9.852,193.100,46.390,14.570,4.727,369.900,109.700,37.850,14.170,baseline
1469.000,328.500,89.950,24.240,1208.000,246.600,48.700,9.803,193.300,46.200,14.640,4.716,370.000,110.000,37.810,14.190,baseline
1469.000,328.100,89.700,24.470,1213.000,247.800,48.870,9.822,192.300,46.020,14.530,4.720,370.400,109.500,37.710,14.190,baseline
1474.000,329.100,90.300,24.380,1211.000,247.200,48.880,9.817,190.700,46.400,14.520,4.710,370.700,109.600,38.070,14.200,baseline
1474.000,330.100,90.600,24.530,1211.000,248.000,48.860,9.834,192.000,46.430,14.610,4.722,372.300,110.100,38.040,14.290,baseline
1477.000,331.300,90.610,24.580,1212.000,247.200,49.050,9.850,193.100,46.310,14.550,4.757,372.500,110.600,38.230,14.320,baseline
1476.000,330.900,90.090,24.390,1214.000,246.700,48.890,9.783,193.500,46.560,14.580,4.738,372.200,109.600,37.870,14.190,baseline
1471.000,328.500,90.140,24.330,1212.000,246.900,48.830,9.838,193.200,46.220,14.490,4.730,369.400,109.500,37.740,14.190,baseline
1473.000,329.900,90.100,24.420,1212.000,247.400,48.810,9.868,191.800,46.670,14.510,4.721,371.000,109.900,37.910,14.250,baseline
1476.000,330.700,90.430,24.400,1214.000,247.200,48.950,9.852,191.000,46.170,14.510,4.745,370.300,109.800,37.870,14.240,baseline
1475.000,330.700,90.270,24.520,1214.000,246.600,48.750,9.847,193.200,46.410,14.520,4.741,370.700,110.000,38.200,14.280,baseline
1478.000,331.800,90.800,24.550,1213.000,248.500,49.050,9.855,192.500,46.310,14.550,4.738,372.200,110.200,38.240,14.380,baseline
1481.000,332.300,90.510,24.660,1214.000,247.700,49.010,9.934,191.400,46.490,14.640,4.756,372.800,110.700,38.270,14.420,baseline
1482.000,332.200,90.900,24.560,1217.000,248.100,49.080,9.867,193.900,46.340,14.590,4.782,373.800,110.700,38.290,14.370,baseline
1478.000,331.000,90.670,24.360,1217.000,247.100,48.890,9.847,193.800,46.330,14.550,4.745,370.800,109.600,37.820,14.240,baseline
1476.000,330.200,90.520,24.480,1211.000,247.100,48.910,9.860,191.600,46.430,14.530,4.719,370.900,109.800,37.780,14.220,baseline
1478.000,330.800,90.710,24.480,1213.000,247.400,48.920,9.878,191.900,46.510,14.510,4.746,370.900,110.200,37.900,14.270,baseline
1479.000,331.000,90.790,24.600,1213.000,247.600,49.060,9.884,194.700,46.250,14.600,4.749,370.700,109.800,38.010,14.270,baseline
1482.000,329.600,90.630,24.620,1218.000,248.300,49.090,9.863,193.500,46.330,14.510,4.744,371.300,110.400,38.120,14.290,baseline
1484.000,331.900,90.770,24.610,1215.000,247.800,49.210,9.892,192.000,46.410,14.510,4.755,372.100,110.500,38.220,14.340,baseline
1486.000,333.700,90.740,24.800,1218.000,248.300,49.100,9.882,195.500,46.650,14.550,4.761,372.300,110.700,38.390,14.390,baseline
1487.000,332.300,91.400,24.700,1213.000,248.600,49.080,9.870,192.800,46.370,14.580,4.767,371.600,110.300,38.010,14.240,baseline
1481.000,330.800,91.120,24.580,1213.000,247.600,49.130,9.880,191.400,46.410,14.540,4.711,369.100,109.900,37.830,14.160,baseline
1481.000,330.800,90.730,24.550,1215.000,248.700,49.070,9.873,192.900,46.280,14.520,4.716,370.000,109.500,37.630,14.140,baseline
1482.000,332.300,90.570,24.690,1219.000,247.800,49.060,9.878,192.200,46.290,14.500,4.705,370.900,109.800,37.840,14.170,baseline
1482.000,330.700,90.970,24.630,1216.000,248.400,49.180,9.884,193.800,46.640,14.520,4.718,370.900,109.900,37.910,14.260,baseline
1484.000,332.600,91.100,24.600,1216.000,248.300,48.970,9.896,193.400,46.440,14.590,4.726,372.200,109.900,38.050,14.280,baseline
1486.000,332.300,91.260,24.640,1218.000,248.700,49.060,9.898,193.700,46.450,14.540,4.753,372.200,110.400,38.240,14.300,baseline
1488.000,333.500,91.330,24.800,1215.000,248.700,49.150,9.923,191.900,46.460,14.540,4.748,372.500,110.900,38.170,14.360,baseline
1490.000,334.700,91.440,24.810,1216.000,247.900,49.220,9.866,192.900,46.790,14.600,4.746,372.500,110.400,37.920,14.190,baseline
1483.000,331.100,90.760,24.580,1213.000,247.600,49.110,9.894,192.900,46.530,14.470,4.720,371.000,109.400,37.740,14.210,baseline
1483.000,330.000,90.670,24.630,1213.000,248.100,48.980,9.879,193.000,46.100,14.490,4.696,370.000,109.500,38.010,14.250,baseline
1483.000,330.500,91.120,24.720,1217.000,247.400,49.000,9.848,191.600,46.050,14.510,4.730,369.700,110.200,37.780,14.210,baseline
1483.000,334.100,90.790,24.660,1214.000,247.600,49.180,9.872,192.900,46.390,14.530,4.711,371.500,110.200,38.040,14.220,baseline
1486.000,332.200,90.990,24.720,1213.000,248.400,48.970,9.893,192.800,46.450,14.500,4.735,371.400,110.200,37.980,14.260,baseline
1487.000,333.600,90.930,24.750,1217.000,248.900,49.130,9.885,192.700,46.020,14.570,4.743,372.600,110.300,38.180,14.360,baseline
1490.000,332.100,91.470,24.830,1217.000,248.100,49.200,9.884,194.400,46.560,14.550,4.736,373.300,110.900,38.070,14.360,baseline
1492.000,334.800,91.740,24.890,1215.000,248.500,48.970,9.908,193.500,47.040,14.590,4.735,373.500,110.500,38.120,14.270,baseline
1485.000,332.200,90.790,24.620,1213.000,247.200,49.000,9.861,192.700,46.540,14.490,4.720,371.400,109.900,37.870,14.130,baseline
1484.000,331.400,91.030,24.720,1217.000,247.700,48.890,9.882,194.500,46.360,14.480,4.706,370.400,109.900,37.880,14.170,baseline
1483.000,331.400,90.980,24.690,1216.000,248.200,48.900,9.880,194.200,46.450,14.420,4.726,371.600,109.700,37.860,14.190,baseline
1483.000,332.200,91.300,24.730,1215.000,248.100,48.830,9.886,191.900,46.220,14.470,4.708,369.900,109.500,37.890,14.210,baseline
1482.000,331.900,90.920,24.780,1216.000,248.300,49.000,9.905,192.800,45.980,14.540,4.733,371.800,109.900,38.120,14.320,baseline
1486.000,333.600,91.370,24.810,1214.000,248.000,49.050,9.900,192.600,46.390,14.530,4.731,372.200,110.400,38.130,14.410,baseline
1487.000,333.200,91.220,24.890,1215.000,248.300,49.160,9.900,191.900,46.410,14.520,4.747,373.500,110.800,38.250,14.380,baseline
1489.000,334.400,91.710,24.870,1216.000,247.800,49.090,9.853,193.300,46.630,14.520,4.764,374.500,110.800,38.360,14.360,baseline
1488.000,333.600,91.040,24.660,1215.000,247.800,48.900,9.859,193.100,46.640,14.500,4.720,371.500,110.000,37.860,14.160,baseline
1480.000,329.700,90.620,24.560,1213.000,247.400,48.850,9.832,190.500,46.270,14.470,4.714,370.200,109.800,37.820,14.170,baseline
1478.000,331.000,90.870,24.620,1213.000,247.200,48.830,9.834,191.700,46.230,14.470,4.694,369.000,109.900,37.950,14.180,baseline
1478.000,330.000,91.100,24.610,1212.000,248.000,48.770,9.805,191.700,46.190,14.460,4.693,369.700,109.400,37.830,14.200,baseline
1477.000,331.200,90.810,24.620,1210.000,247.500,48.590,9.791,190.800,46.270,14.460,4.708,370.000,109.600,37.750,14.240,baseline
1478.000,331.100,91.020,24.750,1215.000,247.800,48.770,9.807,193.500,46.250,14.460,4.701,370.500,110.000,37.990,14.330,baseline
1481.000,332.400,90.830,24.780,1213.000,246.900,48.870,9.823,193.200,46.210,14.440,4.727,371.500,110.300,37.990,14.300,baseline
1483.000,332.500,91.140,24.740,1212.000,247.700,48.970,9.820,192.200,46.370,14.510,4.732,371.500,110.200,38.310,14.320,baseline
1485.000,333.000,91.150,24.740,1212.000,247.300,48.750,9.789,191.800,46.040,14.510,4.714,371.200,110.400,37.910,14.180,baseline
1477.000,331.100,90.460,24.570,1212.000,246.200,48.670,9.741,194.200,46.140,14.460,4.684,369.900,109.400,37.850,14.190,baseline
1475.000,328.600,90.450,24.550,1210.000,246.200,48.820,9.807,191.200,46.140,14.410,4.697,369.000,109.300,37.810,14.150,baseline
1475.000,331.400,90.470,24.620,1211.000,246.800,48.660,9.759,190.700,46.050,14.340,4.692,368.700,109.400,37.910,14.150,baseline
1475.000,329.900,90.040,24.530,1208.000,246.400,48.790,9.796,191.300,45.870,14.400,4.681,368.200,109.300,37.730,14.140,baseline
1474.000,330.000,90.590,24.540,1210.000,246.500,48.660,9.788,191.900,46.160,14.430,4.687,369.700,109.300,37.700,14.220,baseline
1477.000,329.800,90.960,24.620,1210.000,245.800,48.620,9.767,191.200,45.940,14.440,4.695,369.600,109.600,37.900,14.270,baseline
1479.000,331.100,90.510,24.720,1212.000,247.200,48.700,9.796,191.000,45.860,14.350,4.709,371.200,109.800,38.160,14.290,baseline
1481.000,329.900,91.290,24.720,1212.000,246.500,48.790,9.832,190.600,46.150,14.440,4.714,371.400,109.800,37.930,14.290,baseline
1477.000,329.900,90.560,24.510,1210.000,246.500,48.430,9.757,192.900,45.810,14.440,4.683,367.300,109.300,37.700,14.120,baseline
1472.000,328.800,90.190,24.440,1206.000,245.600,48.470,9.781,190.100,45.910,14.270,4.668,368.100,109.300,37.630,14.150,baseline
1472.000,329.100,90.120,24.510,1207.000,245.900,48.650,9.765,190.700,45.950,14.350,4.671,368.200,109.200,37.670,14.100,baseline
1474.000,328.400,90.260,24.480,1212.000,246.200,48.670,9.798,189.700,45.540,14.350,4.660,369.400,109.300,37.660,14.150,baseline
1474.000,330.100,90.720,24.640,1212.000,246.600,48.730,9.735,192.100,45.910,14.380,4.671,369.400,109.400,37.880,14.210,baseline
1476.000,330.300,90.570,24.640,1213.000,246.900,48.570,9.761,191.200,45.690,14.330,4.704,370.300,109.800,38.010,14.270,baseline
1479.000,331.200,91.260,24.720,1213.000,247.400,48.540,9.779,191.600,45.990,14.460,4.699,371.300,110.300,38.280,14.360,baseline
1481.000,332.800,90.770,24.730,1217.000,246.500,48.800,9.776,190.400,46.630,14.500,4.719,373.100,110.400,38.270,14.370,baseline
1481.000,331.000,91.200,24.630,1210.000,247.000,48.560,9.749,191.300,46.180,14.480,4.699,370.200,109.600,37.840,14.170,baseline
1474.000,330.300,90.560,24.570,1212.000,246.500,48.690,9.743,190.500,45.920,14.400,4.651,368.500,109.300,37.790,14.150,baseline
1476.000,330.800,90.960,24.610,1213.000,247.000,48.710,9.781,190.500,45.900,14.350,4.666,369.500,109.600,37.860,14.190,baseline
1478.000,330.000,90.680,24.640,1212.000,246.300,48.600,9.777,191.300,45.720,14.410,4.670,369.200,109.700,37.970,14.230,baseline
1479.000,330.300,90.660,24.720,1212.000,247.700,48.650,9.758,192.100,46.300,14.370,4.675,369.000,109.800,38.020,14.260,baseline
1481.000,331.100,91.050,24.690,1209.000,247.300,48.470,9.810,192.600,46.100,14.500,4.683,370.900,110.100,38.140,14.310,baseline
1484.000,331.100,91.070,24.830,1213.000,247.100,48.840,9.783,191.500,45.860,14.450,4.693,371.200,110.500,38.310,14.440,baseline
1486.000,332.600,91.220,24.890,1212.000,247.000,48.930,9.847,190.700,46.320,14.450,4.708,371.900,110.400,38.300,14.460,baseline
1489.000,333.000,90.840,24.920,1216.000,247.100,48.760,9.798,192.800,45.930,14.380,4.685,373.200,110.500,38.240,14.310,baseline
1482.000,330.900,90.820,24.760,1215.000,247.100,48.890,9.782,192.500,46.300,14.420,4.672,369.800,109.600,37.910,14.210,baseline
1482.000,331.700,91.220,24.740,1212.000,246.700,48.980,9.798,192.000,46.230,14.370,4.654,370.100,109.900,38.000,14.240,baseline
1484.000,332.800,91.220,24.740,1216.000,248.600,48.850,9.823,189.500,46.150,14.390,4.678,371.900,110.300,38.020,14.300,baseline
1485.000,333.900,91.430,24.800,1213.000,247.900,48.920,9.830,192.100,46.140,14.420,4.658,371.500,110.400,38.110,14.300,baseline
1487.000,332.800,91.400,24.800,1215.000,248.000,48.750,9.853,192.600,46.330,14.470,4.669,372.000,111.000,38.230,14.420,baseline
1491.000,332.600,91.600,24.930,1218.000,248.500,48.960,9.820,193.300,46.060,14.450,4.694,373.900,111.000,38.520,14.490,baseline
1494.000,333.500,92.200,24.940,1221.000,249.000,48.900,9.834,191.800,46.330,14.540,4.709,374.100,111.100,38.490,14.500,baseline
1497.000,335.300,92.140,25.110,1215.000,249.000,49.010,9.870,193.900,46.380,14.550,4.696,375.800,111.500,38.590,14.440,baseline
1492.000,334.000,91.330,24.860,1214.000,247.900,48.860,9.777,191.900,46.430,14.480,4.666,373.400,110.400,38.110,14.350,baseline
1490.000,332.100,91.730,24.900,1217.000,248.200,48.910,9.869,192.300,46.300,14.440,4.678,371.500,110.300,38.240,14.370,baseline
1492.000,333.200,91.730,24.900,1218.000,248.600,49.020,9.822,192.800,45.980,14.450,4.695,372.900,110.600,38.400,14.390,baseline
1492.000,334.700,91.960,25.000,1216.000,248.700,49.150,9.851,192.700,46.300,14.460,4.692,373.700,110.800,38.360,14.420,baseline
1495.000,335.200,92.170,24.970,1221.000,249.400,49.080,9.868,191.400,46.050,14.470,4.695,374.200,110.900,38.470,14.490,baseline
1497.000,334.800,92.070,25.040,1218.000,248.500,48.950,9.905,192.500,46.350,14.470,4.683,374.800,111.100,38.610,14.550,baseline
1498.000,336.200,92.340,25.140,1217.000,249.100,49.070,9.868,195.000,46.610,14.580,4.689,376.700,111.500,38.610,14.560,baseline
1499.000,336.300,92.360,25.200,1222.000,248.800,48.980,9.895,193.700,46.440,14.530,4.703,376.900,112.200,38.660,14.560,baseline
1498.000,334.200,91.770,25.010,1218.000,248.600,49.110,9.868,192.700,46.330,14.480,4.689,374.400,111.300,38.200,14.420,baseline
1493.000,333.700,91.430,25.000,1218.000,249.600,48.990,9.852,193.500,46.590,14.510,4.688,373.700,111.000,38.310,14.410,baseline
1495.000,335.100,92.010,25.080,1217.000,248.700,49.010,9.923,191.700,46.270,14.390,4.693,374.400,111.000,38.420,14.460,baseline
1496.000,335.800,92.540,25.040,1220.000,248.300,49.080,9.885,195.300,46.010,14.440,4.705,374.000,111.100,38.430,14.470,baseline
1496.000,336.300,92.380,25.170,1219.000,249.300,49.250,9.891,194.300,46.200,14.490,4.706,374.400,111.100,38.430,14.470,baseline
1499.000,335.500,92.200,25.200,1217.000,249.500,49.240,9.877,192.700,46.500,14.460,4.692,375.300,111.900,38.700,14.570,baseline
1500.000,336.600,92.520,25.210,1219.000,249.900,49.290,9.886,193.600,46.650,14.490,4.708,376.100,111.600,38.660,14.590,baseline
1502.000,336.300,92.640,25.280,1221.000,248.500,49.230,9.886,192.200,46.570,14.620,4.706,377.400,112.300,39.010,14.670,baseline
1500.000,336.200,92.240,25.070,1220.000,249.000,49.180,9.917,192.100,46.510,14.500,4.687,375.300,111.100,38.550,14.480,baseline
1495.000,334.800,92.330,24.940,1213.000,249.200,49.080,9.868,191.700,46.500,14.510,4.680,374.700,111.200,38.470,14.450,baseline
1494.000,334.200,92.050,25.040,1219.000,249.600,49.240,9.867,192.000,46.390,14.450,4.687,374.700,111.300,38.450,14.520,baseline
1495.000,336.400,92.520,25.100,1219.000,249.600,49.060,9.879,192.900,46.620,14.480,4.698,374.100,110.900,38.550,14.480,baseline
1496.000,336.000,92.060,25.150,1220.000,248.700,49.080,9.893,192.500,46.490,14.520,4.690,374.300,111.400,38.480,14.550,baseline
1497.000,335.300,92.180,25.160,1219.000,248.500,49.170,9.873,194.400,46.270,14.570,4.700,375.200,111.600,38.640,14.560,baseline
1500.000,337.400,92.400,25.260,1216.000,249.200,49.130,9.868,192.000,46.440,14.580,4.725,376.200,112.000,38.820,14.620,baseline
1500.000,335.900,92.620,25.340,1219.000,249.000,49.180,9.870,190.800,46.430,14.540,4.711,376.400,112.100,38.900,14.590,baseline
1499.000,336.500,92.290,25.190,1218.000,248.100,49.140,9.854,193.500,46.500,14.490,4.711,374.200,111.500,38.560,14.460,baseline
1492.000,336.400,91.870,25.150,1222.000,248.300,48.980,9.852,192.000,46.120,14.470,4.685,373.900,110.900,38.410,14.460,baseline
1492.000,337.000,91.950,25.100,1217.000,248.400,49.150,9.905,192.100,46.240,14.470,4.690,375.000,111.300,38.610,14.490,baseline
1492.000,334.800,92.040,25.090,1218.000,249.600,48.940,9.889,191.900,46.400,14.500,4.682,374.800,111.000,38.450,14.530,baseline
1492.000,333.700,91.800,25.070,1215.000,249.100,49.010,9.875,192.800,46.350,14.490,4.680,373.900,111.200,38.540,14.470,baseline
1493.000,335.700,91.780,25.150,1218.000,249.600,49.050,9.884,192.900,46.270,14.490,4.687,374.500,111.600,38.640,14.560,baseline
1494.000,335.900,92.160,25.140,1219.000,249.000,49.030,9.832,192.800,46.630,14.510,4.701,376.900,111.700,38.800,14.630,baseline
1496.000,336.000,92.490,25.260,1217.000,248.900,49.260,9.852,194.600,46.140,14.520,4.727,375.700,112.200,38.880,14.640,baseline
1497.000,336.600,92.190,25.110,1216.000,248.500,48.930,9.801,193.100,46.350,14.490,4.691,374.500,111.400,38.530,14.510,baseline
1489.000,333.900,91.640,25.020,1215.000,248.000,48.970,9.833,191.200,46.230,14.420,4.692,373.000,110.900,38.390,14.430,baseline
1488.000,334.100,91.690,25.040,1216.000,248.300,48.970,9.800,192.400,46.460,14.470,4.672,373.400,111.200,38.380,14.450,baseline
1488.000,334.300,91.500,24.970,1218.000,248.400,48.960,9.861,191.300,46.320,14.460,4.683,373.500,111.100,38.620,14.490,baseline
1489.000,334.600,91.810,25.000,1214.000,247.900,48.890,9.838,190.900,46.150,14.480,4.687,373.000,111.100,38.380,14.500,baseline
1488.000,334.100,91.910,25.050,1212.000,247.900,48.980,9.825,191.900,46.220,14.510,4.698,373.700,111.100,38.660,14.550,baseline
1491.000,334.500,92.070,25.180,1214.000,248.400,49.110,9.880,194.200,46.160,14.550,4.709,375.400,111.400,38.730,14.630,baseline
1492.000,336.800,92.450,25.160,1215.000,248.800,48.990,9.923,193.500,46.350,14.510,4.699,374.200,111.600,38.790,14.660,baseline
1493.000,335.900,92.320,25.110,1216.000,247.400,48.830,9.846,192.900,46.540,14.470,4.704,374.500,111.600,38.640,14.530,baseline
1486.000,333.600,91.440,24.930,1211.000,248.200,48.830,9.866,191.400,46.390,14.420,4.677,371.600,110.900,38.340,14.450,baseline
1485.000,332.900,91.810,24.910,1211.000,248.300,48.850,9.836,191.600,45.980,14.490,4.654,371.400,110.700,38.250,14.430,baseline
1486.000,333.300,91.840,24.960,1213.000,248.100,48.780,9.847,190.200,46.150,14.420,4.685,372.400,110.600,38.340,14.470,baseline
1485.000,333.400,91.630,24.940,1212.000,247.700,48.980,9.836,191.500,46.410,14.400,4.673,373.200,110.700,38.390,14.490,baseline
1487.000,334.000,92.220,25.060,1214.000,247.900,48.920,9.800,193.500,46.010,14.420,4.677,373.600,110.700,38.440,14.520,baseline
1489.000,334.700,91.650,25.180,1215.000,248.600,48.940,9.822,191.900,46.310,14.430,4.689,374.400,111.200,38.690,14.560,baseline
1491.000,335.800,92.050,25.230,1213.000,248.400,48.980,9.867,193.900,46.120,14.420,4.695,374.500,111.300,38.900,14.630,baseline
1492.000,336.700,91.720,25.160,1215.000,248.100,49.040,9.850,192.600,45.980,14.460,4.678,375.300,111.700,38.650,14.570,baseline
1486.000,332.800,91.600,24.980,1210.000,248.000,48.750,9.811,191.300,46.200,14.390,4.675,372.200,110.500,38.380,14.440,baseline
1484.000,333.700,91.160,24.960,1214.000,247.700,48.770,9.819,190.200,45.710,14.360,4.670,372.100,110.400,38.440,14.460,baseline
1485.000,333.600,91.570,25.020,1209.000,247.700,48.890,9.845,191.000,45.940,14.410,4.647,373.100,110.800,38.340,14.480,baseline
1486.000,334.000,91.770,25.050,1214.000,248.200,48.810,9.821,191.600,45.950,14.350,4.676,372.100,110.400,38.420,14.530,baseline
1488.000,334.000,92.290,25.010,1215.000,248.400,48.990,9.867,191.200,46.350,14.440,4.665,373.200,111.000,38.600,14.570,baseline
1490.000,336.600,92.350,25.140,1217.000,248.600,49.000,9.812,191.300,46.230,14.450,4.679,373.400,111.500,38.680,14.580,baseline
1491.000,335.800,92.090,25.230,1214.000,247.900,49.050,9.903,191.000,46.200,14.440,4.684,374.300,111.600,38.640,14.650,baseline
1494.000,336.700,92.510,25.240,1217.000,248.300,49.160,9.834,194.300,46.230,14.400,4.679,375.900,111.600,38.700,14.620,baseline
1492.000,335.400,92.070,24.960,1215.000,247.800,48.980,9.828,192.600,46.110,14.400,4.664,373.800,110.800,38.430,14.460,baseline
1487.000,335.400,91.810,25.030,1216.000,248.100,48.870,9.863,190.900,46.040,14.400,4.663,372.900,111.200,38.410,14.460,baseline
1488.000,334.600,91.600,25.030,1215.000,248.800,49.010,9.806,192.400,46.060,14.380,4.641,372.600,110.800,38.360,14.520,baseline
1489.000,335.500,92.160,25.060,1215.000,248.100,48.970,9.822,192.000,46.140,14.390,4.635,373.400,111.200,38.390,14.470,baseline
1489.000,335.500,92.230,25.150,1216.000,249.000,49.040,9.834,191.600,46.080,14.370,4.650,372.800,110.900,38.700,14.520,baseline
1492.000,337.400,92.340,25.220,1214.000,248.700,49.130,9.873,191.800,46.400,14.380,4.654,372.700,111.200,38.700,14.600,baseline
1494.000,335.200,92.330,25.210,1216.000,249.000,49.290,9.865,191.200,46.010,14.410,4.670,374.700,111.400,38.900,14.640,baseline
1497.000,336.400,92.850,25.280,1218.000,249.300,49.140,9.851,191.000,46.670,14.400,4.659,375.200,111.900,38.970,14.660,baseline
1497.000,336.100,92.970,25.140,1218.000,248.600,48.890,9.877,193.000,46.190,14.420,4.654,374.800,111.400,38.610,14.570,baseline
1491.000,336.600,92.090,25.050,1217.000,248.700,48.930,9.852,192.600,46.300,14.360,4.639,372.800,110.600,38.520,14.530,baseline
1490.000,334.800,92.240,25.150,1219.000,248.700,48.970,9.841,191.000,46.140,14.440,4.629,373.400,110.900,38.550,14.530,baseline
1491.000,336.400,92.250,25.120,1215.000,249.500,48.960,9.829,190.700,45.930,14.410,4.644,373.800,110.900,38.460,14.580,baseline
1492.000,335.100,92.040,25.160,1217.000,248.500,49.000,9.850,193.000,45.940,14.450,4.658,374.200,111.200,38.580,14.530,baseline
1493.000,335.400,92.460,25.220,1218.000,248.600,49.060,9.865,189.700,46.350,14.450,4.647,372.800,111.300,38.780,14.620,baseline
1495.000,337.000,92.410,25.220,1217.000,248.400,49.110,9.837,193.200,45.980,14.480,4.653,374.500,111.500,38.630,14.640,baseline
1498.000,337.800,92.550,25.310,1219.000,249.600,49.080,9.859,192.700,45.990,14.490,4.663,374.900,111.900,38.870,14.630,baseline
1499.000,338.500,92.910,25.310,1216.000,248.100,48.980,9.890,193.800,46.540,14.400,4.655,375.800,111.900,38.890,14.620,baseline
1494.000,335.700,92.080,25.190,1215.000,248.700,49.130,9.825,191.600,46.410,14.350,4.660,373.400,111.200,38.550,14.510,baseline
1492.000,334.200,92.140,25.110,1216.000,249.200,49.000,9.849,192.700,46.220,14.450,4.633,373.600,111.200,38.480,14.570,baseline
1491.000,334.900,92.640,25.180,1216.000,249.400,49.010,9.825,188.700,45.950,14.420,4.630,373.300,111.500,38.580,14.540,baseline
1491.000,336.300,92.250,25.210,1215.000,248.700,49.060,9.824,190.600,46.300,14.370,4.629,373.400,111.500,38.570,14.550,baseline
1493.000,335.700,92.420,25.270,1217.000,249.100,49.080,9.842,192.700,46.030,14.380,4.641,374.700,111.400,38.790,14.630,baseline
1495.000,336.600,92.600,25.250,1220.000,248.800,49.090,9.814,190.500,46.230,14.390,4.652,374.700,111.400,38.940,14.650,baseline
1498.000,336.700,92.370,25.350,1217.000,249.000,49.030,9.886,192.300,46.520,14.410,4.673,375.400,111.900,39.000,14.720,baseline
1498.000,337.300,92.640,25.270,1215.000,249.300,49.150,9.822,189.700,46.190,14.440,4.662,377.300,111.900,39.150,14.710,baseline
1497.000,337.600,92.780,25.200,1222.000,248.000,49.220,9.867,195.200,46.230,14.530,4.636,374.300,111.400,38.580,14.590,baseline
1492.000,335.500,92.390,25.090,1217.000,248.600,48.800,9.844,192.700,46.430,14.430,4.643,373.900,111.000,38.580,14.530,baseline
1491.000,335.800,92.200,25.250,1219.000,248.800,49.110,9.843,191.300,46.330,14.380,4.626,373.900,111.600,38.650,14.610,baseline
1493.000,336.700,92.260,25.170,1221.000,247.900,48.940,9.840,190.000,45.980,14.420,4.627,374.400,111.600,38.600,14.580,baseline
1493.000,335.100,92.550,25.160,1219.000,248.300,49.270,9.856,192.900,46.270,14.350,4.649,374.500,111.200,38.770,14.630,baseline
1494.000,334.500,92.440,25.290,1217.000,248.600,49.030,9.857,193.800,46.260,14.430,4.672,375.200,111.300,38.900,14.640,baseline
1498.000,336.900,92.290,25.300,1216.000,248.300,49.070,9.833,190.800,46.250,14.470,4.652,375.300,111.900,38.930,14.660,baseline
1498.000,337.200,92.890,25.390,1218.000,249.100,49.200,9.885,193.700,46.580,14.500,4.636,376.800,112.300,39.010,14.790,baseline
1500.000,339.800,92.690,25.310,1216.000,248.900,49.040,9.828,192.800,46.460,14.440,4.646,376.200,112.500,38.930,14.690,baseline
1494.000,335.800,92.260,25.090,1214.000,249.100,49.170,9.832,192.600,46.260,14.460,4.639,374.600,111.500,38.710,14.560,baseline
1491.000,336.000,92.740,25.190,1218.000,248.400,49.110,9.817,193.000,46.170,14.410,4.634,374.600,111.400,38.630,14.580,baseline
1493.000,336.100,92.060,25.200,1216.000,248.600,49.090,9.836,193.100,46.190,14.390,4.638,375.600,111.600,38.760,14.620,baseline
1494.000,335.400,92.470,25.210,1218.000,248.600,48.930,9.826,190.800,46.690,14.420,4.626,374.700,111.900,38.940,14.640,baseline
1495.000,336.700,92.660,25.240,1218.000,249.100,49.140,9.856,191.800,46.070,14.390,4.645,375.800,112.100,38.940,14.690,baseline
1496.000,336.100,92.730,25.320,1218.000,248.600,49.120,9.856,192.300,46.390,14.520,4.659,376.100,112.300,38.980,14.770,baseline
1498.000,337.100,92.840,25.400,1220.000,249.600,48.860,9.893,191.500,46.500,14.510,4.666,378.200,112.700,39.070,14.830,baseline
1500.000,338.300,92.960,25.510,1218.000,248.900,48.900,9.850,194.800,46.600,14.540,4.670,377.600,112.700,39.300,14.840,baseline
1497.000,335.600,92.710,25.250,1217.000,248.400,48.900,9.811,193.800,46.330,14.450,4.654,376.100,112.000,38.860,14.710,baseline
1493.000,335.200,92.190,25.190,1218.000,249.200,48.840,9.841,190.700,46.230,14.490,4.663,376.300,112.300,38.900,14.700,baseline
1494.000,335.500,92.400,25.240,1216.000,248.400,48.990,9.863,192.200,46.360,14.520,4.657,376.500,112.300,38.950,14.730,baseline
1495.000,336.000,92.720,25.180,1217.000,249.200,48.970,9.833,192.700,46.360,14.480,4.657,376.500,112.000,39.060,14.750,baseline
1495.000,335.700,92.760,25.270,1217.000,249.300,49.150,9.904,191.800,46.240,14.540,4.672,376.600,112.700,39.110,14.840,baseline
1498.000,336.200,92.740,25.360,1217.000,249.100,49.140,9.871,191.500,46.610,14.510,4.678,378.400,112.900,39.190,14.860,baseline
1500.000,338.400,92.670,25.400,1217.000,248.800,49.280,9.887,194.400,46.430,14.540,4.702,378.900,112.600,39.420,14.910,baseline
1500.000,338.500,93.100,25.440,1218.000,249.000,49.070,9.876,191.900,46.950,14.550,4.668,379.800,113.300,39.530,14.890,baseline
1500.000,337.500,93.370,25.310,1217.000,249.000,49.050,9.876,192.900,46.430,14.590,4.694,377.500,112.200,39.060,14.750,baseline
1494.000,335.400,92.450,25.240,1217.000,248.500,49.140,9.878,192.800,46.420,14.490,4.682,376.200,112.200,38.790,14.700,baseline
1493.000,336.800,92.360,25.270,1220.000,248.700,48.960,9.868,190.900,46.040,14.480,4.652,376.800,112.400,39.040,14.730,baseline
1494.000,336.600,92.320,25.270,1218.000,248.700,49.230,9.849,193.600,46.150,14.520,4.675,377.100,112.100,39.010,14.780,baseline
1494.000,337.500,92.390,25.330,1219.000,249.000,49.000,9.877,192.800,46.260,14.510,4.685,377.000,112.700,39.130,14.740,baseline
1496.000,336.600,92.990,25.400,1217.000,248.600,49.180,9.834,193.300,46.440,14.490,4.666,377.000,112.600,39.200,14.830,baseline
1499.000,337.400,92.810,25.460,1221.000,248.400,49.170,9.885,194.400,46.730,14.510,4.682,377.800,113.100,39.400,14.900,baseline
1499.000,338.100,93.560,25.350,1220.000,248.800,49.160,9.867,194.500,46.320,14.600,4.697,380.100,112.900,39.560,14.910,baseline
1501.000,337.100,93.210,25.320,1216.000,248.700,49.000,9.867,193.600,46.520,14.540,4.681,378.200,112.600,39.130,14.750,baseline
1491.000,336.100,92.670,25.230,1214.000,249.000,49.040,9.871,191.900,46.250,14.430,4.641,375.900,112.100,38.770,14.700,baseline
1491.000,334.900,92.290,25.230,1213.000,248.400,49.200,9.905,192.000,46.190,14.410,4.656,375.300,112.500,38.830,14.700,baseline
1493.000,336.500,92.480,25.270,1213.000,248.100,48.950,9.831,192.800,46.370,14.510,4.656,377.200,112.000,38.920,14.730,baseline
1491.000,335.900,92.740,25.220,1217.000,249.400,48.980,9.846,191.800,46.260,14.470,4.660,375.500,112.100,38.960,14.710,baseline
