A-DC1,A-DC2,A-DC3,A-DC4,A-DC5,A-DC6,A-DC7,A-DC8,B-DC1,B-DC2,B-DC3,B-DC4,B-DC5,B-DC6,B-DC7,B-DC8,condition
1182.000,234.500,48.320,9.566,803.600,131.800,19.340,2.801,110.600,19.670,4.324,0.974,368.900,92.050,23.810,7.034,baseline
1181.000,232.400,48.120,9.646,803.000,131.600,19.080,2.783,109.500,19.480,4.270,0.993,369.900,91.580,23.880,7.005,baseline
1182.000,233.200,48.310,9.518,799.500,131.200,19.330,2.804,111.100,19.530,4.278,0.985,370.200,92.070,23.940,7.003,baseline
1183.000,234.700,48.070,9.534,805.900,131.400,19.340,2.813,108.900,20.040,4.342,0.974,371.000,92.010,24.050,7.086,baseline
1185.000,234.900,49.070,9.572,806.600,132.300,19.330,2.806,109.400,20.040,4.275,0.990,370.800,92.530,24.130,7.095,baseline
1189.000,235.900,48.740,9.661,804.800,132.900,19.330,2.818,109.300,19.900,4.337,0.999,373.900,92.930,24.350,7.178,baseline
1191.000,236.800,48.940,9.697,804.300,132.500,19.540,2.840,111.000,19.930,4.326,1.002,375.700,93.140,24.470,7.216,baseline
1194.000,236.300,49.270,9.681,809.400,133.500,19.450,2.800,111.200,19.840,4.346,1.000,377.600,94.270,24.590,7.285,baseline
1198.000,238.400,50.010,9.909,805.400,133.400,19.520,2.833,110.500,19.960,4.345,1.001,380.400,94.440,24.570,7.247,baseline
1197.000,236.500,49.450,9.709,803.500,133.100,19.320,2.767,111.500,19.890,4.364,0.993,370.600,92.280,23.960,7.047,baseline
1189.000,235.400,48.860,9.641,804.700,132.500,19.450,2.790,109.500,19.630,4.296,0.988,368.200,91.030,23.760,6.991,baseline
1185.000,233.500,48.550,9.601,806.500,131.900,19.370,2.786,109.300,19.770,4.261,0.996,367.100,91.470,23.820,7.063,baseline
1186.000,235.300,49.160,9.598,802.200,131.700,19.240,2.781,109.600,19.610,4.337,0.991,369.700,91.830,23.700,7.015,baseline
1184.000,235.400,48.420,9.600,803.700,132.400,19.310,2.794,110.900,19.780,4.312,0.993,369.100,91.790,23.780,7.045,baseline
1185.000,234.300,48.630,9.592,805.000,132.500,19.350,2.766,109.600,19.760,4.308,0.987,369.200,92.080,24.060,7.094,baseline
1188.000,236.500,48.560,9.652,801.000,132.800,19.330,2.837,110.600,19.610,4.311,0.983,371.300,92.600,24.100,7.115,baseline
1191.000,236.000,49.160,9.718,808.100,133.400,19.410,2.830,110.700,19.820,4.305,1.000,373.500,93.040,24.160,7.179,baseline
1195.000,235.900,49.200,9.730,803.300,132.600,19.420,2.847,110.800,19.860,4.328,0.997,374.800,93.250,24.450,7.177,baseline
1197.000,238.200,49.610,9.812,809.500,132.900,19.430,2.818,111.300,19.960,4.338,1.004,378.400,94.230,24.530,7.267,baseline
1201.000,237.900,49.600,9.903,809.800,133.600,19.420,2.833,112.300,20.150,4.351,1.001,376.700,93.480,24.320,7.157,baseline
1196.000,237.000,48.860,9.646,805.600,133.100,19.390,2.817,109.600,19.700,4.300,0.991,366.600,91.250,23.680,6.976,baseline
1187.000,234.600,48.510,9.616,800.300,132.600,19.450,2.793,107.900,19.910,4.262,0.981,364.600,90.830,23.620,6.917,baseline
1184.000,234.800,48.270,9.492,802.400,132.700,19.420,2.800,110.500,19.550,4.261,0.968,364.600,90.920,23.520,6.965,baseline
1183.000,233.300,48.030,9.537,805.500,132.500,19.320,2.782,110.700,19.560,4.270,0.974,365.600,90.850,23.610,6.972,baseline
1183.000,233.500,48.260,9.534,801.900,132.900,19.510,2.817,109.800,19.650,4.290,0.979,365.000,90.790,23.630,6.962,baseline
1183.000,234.400,48.410,9.612,801.600,133.000,19.520,2.808,108.400,19.760,4.302,0.979,366.100,91.320,23.790,7.008,baseline
1186.000,234.700,48.860,9.641,803.900,132.700,19.400,2.845,108.400,19.550,4.323,0.986,368.800,91.730,23.890,7.028,baseline
1188.000,234.300,49.160,9.580,807.000,132.900,19.380,2.839,111.000,19.620,4.332,0.987,369.800,92.300,23.980,7.072,baseline
1190.000,236.600,48.940,9.724,801.100,133.300,19.510,2.809,109.200,19.880,4.329,0.986,372.000,92.620,24.130,7.178,baseline
1192.000,235.900,49.350,9.735,803.700,132.100,19.450,2.854,109.000,19.710,4.312,0.988,374.500,93.220,24.240,7.173,baseline
1196.000,235.900,49.300,9.653,805.800,133.100,19.440,2.818,113.000,19.780,4.336,0.992,371.700,92.190,23.830,7.017,baseline
1189.000,234.600,48.630,9.534,806.000,133.000,19.370,2.797,110.300,19.720,4.264,0.992,363.800,90.370,23.350,6.911,baseline
1181.000,231.500,48.230,9.478,801.900,131.300,19.230,2.807,109.500,19.550,4.286,0.980,363.800,90.270,23.480,6.922,baseline
1180.000,232.400,48.230,9.470,801.200,132.000,19.340,2.786,109.500,19.550,4.232,0.975,364.100,90.210,23.570,6.922,baseline
1178.000,232.800,48.080,9.461,802.300,132.100,19.290,2.795,108.600,19.540,4.269,0.984,362.600,90.390,23.580,6.922,baseline
1178.000,232.100,47.800,9.473,797.900,132.100,19.340,2.806,109.400,19.540,4.249,0.978,363.800,90.650,23.460,6.944,baseline
1179.000,233.800,48.230,9.465,807.400,131.800,19.250,2.793,108.000,19.810,4.271,0.976,364.500,90.800,23.720,6.970,baseline
1182.000,234.000,48.070,9.603,805.800,132.300,19.210,2.828,109.400,19.490,4.283,0.980,368.300,91.090,23.980,7.021,baseline
1185.000,235.600,48.790,9.573,804.900,132.600,19.420,2.843,110.600,19.610,4.290,0.988,370.000,91.730,23.860,7.091,baseline
1185.000,233.800,48.830,9.597,808.000,133.500,19.310,2.796,109.400,19.760,4.259,0.991,371.000,92.600,24.160,7.146,baseline
1189.000,236.000,48.890,9.652,808.300,133.000,19.590,2.807,109.500,19.810,4.323,0.990,373.000,92.150,23.940,7.044,baseline
1186.000,234.600,48.730,9.526,805.000,132.800,19.300,2.775,108.900,19.840,4.282,0.989,364.200,90.480,23.470,6.890,baseline
1180.000,232.400,48.180,9.450,802.500,132.000,19.240,2.811,108.900,19.660,4.255,0.989,363.000,90.140,23.530,6.876,baseline
1176.000,231.500,48.030,9.425,803.300,132.300,19.450,2.782,109.100,19.580,4.244,0.983,364.000,90.270,23.530,6.911,baseline
1177.000,231.600,48.130,9.390,800.900,131.800,19.280,2.788,109.600,19.390,4.293,0.975,363.000,90.360,23.490,6.921,baseline
1177.000,231.300,47.950,9.455,804.700,131.800,19.300,2.807,108.200,19.560,4.259,0.978,363.400,90.460,23.530,6.941,baseline
1178.000,231.500,47.920,9.418,804.700,131.900,19.400,2.817,108.100,19.520,4.288,0.983,364.300,90.630,23.670,6.976,baseline
1180.000,233.500,48.490,9.487,802.300,132.300,19.310,2.810,110.400,19.630,4.277,0.977,366.200,91.490,23.850,7.022,baseline
1183.000,233.900,48.460,9.603,803.800,133.000,19.550,2.839,109.800,19.580,4.304,0.988,369.100,91.880,23.810,7.068,baseline
1185.000,234.200,49.080,9.624,803.100,132.700,19.360,2.826,109.500,19.640,4.282,0.997,371.400,92.640,24.010,7.132,baseline
1187.000,235.100,48.450,9.660,799.700,133.400,19.460,2.825,111.900,19.680,4.335,0.988,366.800,90.510,23.570,6.921,baseline
1179.000,231.800,47.520,9.399,803.200,131.100,19.290,2.813,109.200,19.660,4.280,0.978,359.300,89.300,23.280,6.842,baseline
1171.000,231.300,47.790,9.382,802.800,132.100,19.200,2.811,108.300,19.430,4.232,0.979,359.500,89.580,23.180,6.858,baseline
1170.000,230.200,47.830,9.402,796.500,132.300,19.220,2.823,108.400,19.350,4.247,0.980,360.100,89.840,23.330,6.845,baseline
1170.000,231.500,47.480,9.398,802.000,132.000,19.130,2.794,108.300,19.430,4.228,0.990,358.000,89.740,23.300,6.848,baseline
1171.000,231.600,47.670,9.428,798.500,132.300,19.300,2.814,108.500,19.440,4.261,0.978,359.700,89.770,23.330,6.859,baseline
1173.000,230.400,47.980,9.456,801.800,131.300,19.170,2.794,108.800,19.420,4.282,0.982,361.200,90.120,23.570,6.940,baseline
1175.000,231.000,47.920,9.457,796.100,132.700,19.340,2.818,108.500,19.310,4.257,0.975,364.900,90.840,23.510,6.997,baseline
1177.000,233.000,48.300,9.475,794.600,133.000,19.480,2.817,110.300,19.510,4.325,0.982,366.300,90.670,23.830,7.039,baseline
1181.000,233.600,48.310,9.551,802.200,132.000,19.370,2.834,107.500,19.640,4.291,0.999,369.000,91.820,23.900,7.061,baseline
1182.000,234.500,48.490,9.480,804.600,132.700,19.330,2.803,109.700,19.600,4.294,0.982,363.000,90.360,23.390,6.894,baseline
1172.000,231.500,47.740,9.352,798.100,131.200,19.230,2.794,108.200,19.540,4.256,0.986,357.000,89.010,23.080,6.721,baseline
1166.000,229.700,47.160,9.309,798.800,130.900,19.110,2.820,106.900,19.200,4.243,0.974,354.200,88.360,22.950,6.743,baseline
1164.000,229.900,47.210,9.266,797.700,132.300,19.210,2.784,107.700,19.450,4.273,0.973,357.200,88.520,23.040,6.723,baseline
1161.000,230.700,47.240,9.252,797.200,131.900,19.230,2.778,107.300,19.440,4.249,0.968,355.300,88.740,22.940,6.751,baseline
1161.000,229.500,46.890,9.280,798.300,131.000,19.270,2.784,107.400,19.220,4.230,0.976,357.300,88.680,23.030,6.747,baseline
1163.000,227.700,47.720,9.237,797.600,131.600,19.270,2.800,106.200,19.250,4.232,0.976,358.000,88.990,23.220,6.824,baseline
1167.000,229.400,47.980,9.391,800.400,131.600,19.370,2.834,108.500,19.600,4.234,0.978,359.300,89.830,23.410,6.862,baseline
1168.000,230.600,47.540,9.374,798.100,131.700,19.230,2.782,108.100,19.390,4.261,0.980,361.100,89.900,23.470,6.901,baseline
1171.000,231.500,47.910,9.378,803.700,131.900,19.330,2.792,106.900,19.510,4.281,0.983,364.200,90.440,23.640,6.960,baseline
1173.000,230.300,48.360,9.444,800.800,132.000,19.370,2.832,109.800,19.250,4.298,1.000,365.000,90.730,23.430,6.860,baseline
1169.000,229.100,47.600,9.252,797.800,131.400,19.190,2.784,107.900,19.550,4.212,0.983,354.600,89.010,22.970,6.732,baseline
1161.000,228.600,47.300,9.248,792.700,130.600,19.210,2.786,108.400,19.320,4.190,0.971,353.300,88.020,22.770,6.682,baseline
1158.000,226.500,47.510,9.242,794.300,131.400,19.010,2.812,106.100,19.500,4.257,0.957,354.400,88.010,22.960,6.728,baseline
1158.000,229.000,46.760,9.161,797.700,130.700,19.110,2.806,108.800,19.020,4.233,0.972,353.700,88.110,22.800,6.702,baseline
1157.000,229.200,47.050,9.287,793.900,131.200,19.130,2.801,107.700,19.310,4.228,0.970,354.800,88.320,22.880,6.737,baseline
1159.000,228.300,47.050,9.328,793.300,131.900,19.190,2.805,107.000,19.460,4.246,0.976,355.700,88.420,23.060,6.756,baseline
1161.000,228.100,47.630,9.349,796.700,131.400,19.280,2.809,106.200,19.290,4.220,0.975,357.700,89.380,23.190,6.813,baseline
1163.000,229.000,47.760,9.352,793.600,131.100,19.220,2.789,108.000,19.440,4.273,0.971,360.100,89.610,23.320,6.857,baseline
1166.000,230.200,47.600,9.358,798.700,131.600,19.210,2.816,107.900,19.320,4.281,0.971,361.300,90.190,23.400,6.891,baseline
1169.000,230.900,47.920,9.399,796.200,131.500,19.210,2.804,109.200,19.620,4.304,0.982,360.300,89.160,23.100,6.771,baseline
1162.000,228.500,47.320,9.262,799.100,130.400,19.220,2.821,108.600,19.280,4.244,0.973,352.300,87.400,22.690,6.656,baseline
1155.000,226.600,46.950,9.090,797.400,130.600,19.070,2.763,106.700,19.270,4.208,0.980,351.700,87.610,22.730,6.641,baseline
1154.000,228.700,46.910,9.182,791.900,129.800,19.130,2.808,108.000,19.130,4.225,0.961,353.200,87.440,22.720,6.634,baseline
1154.000,227.200,47.070,9.168,790.600,130.400,18.980,2.769,107.900,19.010,4.228,0.975,352.700,87.630,22.740,6.693,baseline
1153.000,227.400,47.030,9.178,794.000,130.900,19.200,2.784,107.200,19.350,4.222,0.972,353.600,88.170,22.820,6.706,baseline
1156.000,227.600,47.240,9.225,797.400,130.900,19.200,2.821,107.600,19.340,4.225,0.969,354.200,88.350,22.800,6.762,baseline
1157.000,229.900,47.460,9.228,795.000,131.000,19.300,2.752,108.400,19.410,4.229,0.977,355.800,88.980,23.130,6.787,baseline
1159.000,227.800,47.430,9.279,797.100,131.200,19.220,2.817,107.300,19.590,4.240,0.980,358.900,88.820,23.330,6.855,baseline
1162.000,231.200,47.450,9.281,797.100,131.200,19.180,2.799,109.400,19.610,4.253,0.984,361.100,89.930,23.330,6.893,baseline
1164.000,230.500,47.650,9.270,794.500,130.900,19.160,2.813,108.200,19.480,4.237,0.975,356.200,88.070,22.860,6.685,baseline
1154.000,227.700,46.760,9.012,790.500,131.100,19.200,2.782,106.800,19.290,4.208,0.961,350.200,86.890,22.530,6.595,baseline
1148.000,225.000,46.730,9.009,793.200,130.800,19.150,2.752,107.100,19.400,4.201,0.954,348.400,86.670,22.440,6.592,baseline
1147.000,225.800,46.800,8.934,793.400,130.200,19.010,2.765,106.300,19.120,4.167,0.969,349.700,86.580,22.590,6.593,baseline
1145.000,226.000,46.230,9.011,790.500,130.600,19.160,2.795,107.200,19.300,4.198,0.966,349.200,86.730,22.440,6.643,baseline
1145.000,224.700,46.360,9.052,794.500,130.700,19.090,2.751,105.800,19.010,4.179,0.961,350.300,87.150,22.600,6.602,baseline
1147.000,226.800,46.810,9.115,791.400,130.900,18.960,2.772,105.900,19.330,4.210,0.964,351.400,87.500,22.800,6.644,baseline
1148.000,226.100,47.010,9.179,791.900,130.400,19.100,2.803,109.200,19.150,4.207,0.956,353.700,88.170,22.840,6.708,baseline
1151.000,225.600,46.980,9.106,795.500,131.300,19.210,2.784,107.400,19.140,4.230,0.977,356.000,88.550,23.080,6.731,baseline
1154.000,227.700,47.370,9.260,794.000,131.900,19.180,2.806,108.100,19.290,4.267,0.980,358.500,88.790,23.140,6.763,baseline
1155.000,229.100,46.550,9.140,794.700,131.100,19.210,2.760,107.400,19.550,4.235,0.977,351.300,87.140,22.510,6.563,baseline
1146.000,224.400,45.960,9.037,791.700,130.300,19.280,2.752,107.500,19.250,4.182,0.965,346.000,86.170,22.350,6.555,baseline
1140.000,224.200,46.210,8.933,791.400,130.100,19.090,2.759,107.500,19.250,4.172,0.960,347.200,86.180,22.360,6.525,baseline
1139.000,224.500,45.890,8.937,791.400,130.300,19.160,2.781,106.200,19.050,4.187,0.967,346.900,86.020,22.410,6.513,baseline
1137.000,224.700,46.130,8.976,793.200,130.300,18.890,2.728,104.900,19.090,4.189,0.963,346.600,86.040,22.270,6.508,baseline
1138.000,222.200,46.250,8.921,792.400,130.400,19.010,2.770,106.500,19.080,4.208,0.979,348.600,86.630,22.370,6.549,baseline
1139.000,224.200,46.510,9.011,790.300,130.100,19.140,2.795,107.200,18.790,4.231,0.965,350.000,86.810,22.620,6.629,baseline
1142.000,222.900,46.330,9.140,789.000,130.100,19.050,2.779,107.400,19.370,4.239,0.969,351.500,87.000,22.690,6.635,baseline
1142.000,226.600,46.590,9.092,796.700,130.500,19.120,2.793,107.600,19.470,4.203,0.975,354.000,87.770,22.740,6.647,baseline
1145.000,224.800,46.740,9.117,791.400,130.400,19.200,2.785,107.100,19.420,4.261,0.980,354.500,87.750,22.740,6.665,baseline
1143.000,224.100,46.430,9.037,792.600,130.600,19.020,2.759,106.900,19.210,4.216,0.974,348.200,86.210,22.380,6.491,baseline
1135.000,222.100,45.660,8.945,792.100,129.800,18.990,2.770,107.600,19.130,4.163,0.955,345.900,85.520,22.230,6.462,baseline
1131.000,222.700,45.600,8.902,788.400,129.800,19.140,2.770,105.300,19.210,4.182,0.962,347.200,86.100,22.130,6.482,baseline
1131.000,221.600,45.790,8.945,790.200,129.600,18.980,2.758,108.100,19.160,4.188,0.967,346.200,86.010,22.270,6.484,baseline
1129.000,223.100,45.790,8.837,790.000,130.000,18.990,2.812,106.600,19.130,4.180,0.964,347.100,86.120,22.250,6.556,baseline
1129.000,221.900,46.010,8.956,791.300,129.900,19.080,2.816,106.300,19.400,4.206,0.974,348.100,86.400,22.510,6.537,baseline
1131.000,223.000,46.320,8.924,788.600,130.500,19.150,2.791,108.200,19.100,4.208,0.984,350.400,86.890,22.610,6.588,baseline
1134.000,223.700,45.860,8.990,795.100,130.300,19.120,2.780,108.000,19.170,4.256,0.979,352.800,87.290,22.770,6.644,baseline
1136.000,223.600,46.070,8.974,794.800,131.200,19.130,2.796,107.700,19.490,4.250,0.979,354.800,88.150,22.830,6.726,baseline
1139.000,225.100,46.200,9.042,792.200,130.700,19.050,2.776,108.700,19.320,4.229,0.979,350.500,86.580,22.290,6.526,baseline
1129.000,222.700,45.540,8.868,786.800,130.600,18.920,2.791,108.300,19.200,4.245,0.970,345.700,85.690,22.110,6.417,baseline
1125.000,220.900,45.700,8.849,785.000,129.100,19.010,2.762,106.700,19.200,4.205,0.959,344.700,85.340,22.200,6.470,baseline
1122.000,221.500,45.470,8.871,786.100,130.100,18.970,2.740,108.400,19.230,4.204,0.966,345.600,85.440,22.140,6.442,baseline
1120.000,219.300,45.140,8.778,786.800,129.500,18.960,2.785,108.100,19.260,4.185,0.965,345.400,85.070,22.200,6.484,baseline
1118.000,219.400,44.850,8.892,788.900,129.800,19.080,2.730,109.300,19.420,4.236,0.975,346.400,85.640,22.270,6.500,baseline
1120.000,220.200,45.410,8.880,785.200,129.500,18.980,2.753,108.700,19.300,4.229,0.964,348.000,86.220,22.430,6.554,baseline
1122.000,221.200,45.720,8.878,790.500,130.000,19.010,2.783,107.800,19.340,4.237,0.973,349.500,86.960,22.580,6.558,baseline
1124.000,221.600,45.450,8.912,792.600,130.300,19.130,2.788,106.900,19.390,4.241,0.974,351.800,87.140,22.550,6.658,baseline
1127.000,222.300,45.840,8.944,791.400,130.900,19.100,2.846,106.400,19.430,4.294,0.976,354.800,87.520,22.820,6.724,baseline
1128.000,222.500,45.800,8.946,794.700,130.300,19.070,2.763,108.400,19.810,4.270,0.984,350.800,86.310,22.290,6.484,baseline
1119.000,220.200,45.270,8.794,786.800,129.700,19.170,2.772,109.600,19.290,4.220,0.972,344.500,85.540,22.050,6.439,baseline
1113.000,219.600,44.940,8.721,785.300,129.600,18.930,2.768,108.000,19.380,4.205,0.969,344.500,85.240,21.870,6.441,baseline
1111.000,217.600,44.890,8.709,785.800,129.800,18.900,2.750,106.800,19.280,4.184,0.967,343.300,84.960,21.970,6.423,baseline
1110.000,217.900,44.610,8.671,786.700,128.800,19.030,2.746,108.100,19.110,4.193,0.971,345.200,85.110,22.080,6.467,baseline
1109.000,217.300,44.600,8.777,786.500,129.100,19.000,2.772,107.000,19.250,4.217,0.972,345.300,85.620,22.150,6.507,baseline
1109.000,218.500,44.860,8.832,788.200,129.600,19.070,2.788,106.700,19.600,4.271,0.971,347.800,85.990,22.270,6.497,baseline
1114.000,219.900,45.170,8.815,783.400,129.300,19.130,2.793,107.300,19.180,4.226,0.976,350.200,86.250,22.450,6.563,baseline
1117.000,219.300,45.440,8.899,787.000,130.300,19.010,2.758,109.500,19.330,4.259,0.985,351.200,86.880,22.610,6.628,baseline
1118.000,220.800,45.580,8.859,792.800,129.900,19.250,2.791,108.200,19.330,4.239,0.980,354.100,87.310,22.720,6.688,baseline
1122.000,222.900,45.870,8.994,787.800,130.900,19.160,2.796,109.500,19.510,4.292,0.993,356.100,87.980,22.760,6.676,baseline
1123.000,219.600,45.710,8.915,789.800,129.800,19.070,2.792,108.700,19.560,4.273,0.987,349.300,86.370,22.490,6.524,baseline
1113.000,219.800,45.010,8.827,783.400,128.900,18.970,2.773,107.600,19.520,4.248,0.967,347.700,85.600,22.120,6.454,baseline
1109.000,219.300,44.570,8.773,788.900,129.300,19.000,2.799,109.800,19.620,4.267,0.966,346.900,85.840,22.360,6.483,baseline
1109.000,216.500,44.840,8.806,786.700,129.500,19.000,2.773,106.900,19.630,4.205,0.970,347.500,85.720,22.170,6.475,baseline
1108.000,217.400,45.200,8.775,784.200,129.200,18.930,2.800,107.000,19.220,4.263,0.978,346.500,86.040,22.300,6.469,baseline
1108.000,218.000,45.040,8.866,784.200,129.900,19.070,2.780,109.400,19.280,4.233,0.966,347.600,86.130,22.410,6.549,baseline
1110.000,218.800,45.330,8.931,790.400,130.100,19.070,2.800,109.500,19.420,4.221,0.975,350.300,86.600,22.450,6.598,baseline
1113.000,220.800,44.920,8.896,785.800,129.600,19.150,2.777,108.600,19.510,4.264,0.984,351.200,87.130,22.630,6.625,baseline
1115.000,219.800,45.380,9.027,792.900,130.000,19.080,2.803,107.100,19.640,4.276,0.984,354.500,87.580,22.790,6.672,baseline
1118.000,220.400,46.090,8.985,789.200,130.300,19.230,2.780,108.800,19.450,4.254,0.984,356.700,87.920,23.020,6.692,baseline
1123.000,220.400,45.940,9.118,791.100,130.300,19.190,2.793,110.600,19.720,4.321,0.987,357.300,88.330,22.730,6.694,baseline
1119.000,221.500,45.510,8.902,792.000,129.800,19.240,2.754,109.400,19.790,4.304,0.988,350.100,86.290,22.410,6.540,baseline
1111.000,219.300,45.190,8.938,792.000,129.900,19.000,2.774,107.700,19.280,4.222,0.985,348.300,86.380,22.330,6.509,baseline
1110.000,218.300,45.360,8.890,790.600,129.900,18.880,2.757,107.900,19.410,4.274,0.980,349.000,86.490,22.400,6.552,baseline
1110.000,217.900,45.160,8.856,790.500,129.900,19.050,2.765,108.300,19.340,4.259,0.974,347.800,86.240,22.410,6.537,baseline
1110.000,218.000,45.270,8.884,787.700,130.400,18.910,2.768,108.000,19.380,4.245,0.974,349.200,86.640,22.590,6.545,baseline
1113.000,220.400,45.630,8.911,787.200,130.400,19.310,2.814,107.500,19.330,4.238,0.977,351.500,86.750,22.600,6.612,baseline
1115.000,220.900,45.640,8.983,789.600,131.300,19.150,2.793,108.800,19.650,4.295,0.987,353.100,87.650,22.860,6.656,baseline
1118.000,221.900,45.610,8.976,791.400,130.800,19.180,2.775,106.900,19.650,4.302,0.990,355.000,87.870,22.870,6.773,baseline
1120.000,221.700,45.810,9.052,789.400,130.800,19.270,2.823,107.700,19.740,4.307,0.983,356.700,88.720,23.070,6.743,baseline
1124.000,222.600,46.390,9.071,792.100,130.700,19.290,2.819,109.000,19.730,4.332,0.988,358.500,89.110,23.290,6.866,baseline
1129.000,224.000,46.640,9.215,792.300,131.200,19.270,2.801,108.900,19.950,4.291,0.995,358.100,88.370,22.860,6.716,baseline
1123.000,220.800,45.950,8.970,787.600,130.300,19.000,2.776,108.900,19.790,4.267,0.984,351.000,86.910,22.610,6.599,baseline
1115.000,219.300,45.490,8.934,789.900,130.600,19.070,2.770,107.500,19.560,4.285,0.970,349.400,86.670,22.380,6.561,baseline
1113.000,218.100,45.170,8.994,787.500,130.400,19.100,2.787,109.000,19.230,4.275,0.981,350.100,86.460,22.460,6.600,baseline
1114.000,219.600,45.480,8.917,788.100,130.300,19.050,2.812,108.400,19.200,4.292,0.975,350.800,86.350,22.470,6.586,baseline
1115.000,219.500,45.580,9.030,791.300,130.400,19.120,2.765,108.200,19.270,4.275,0.972,350.300,86.560,22.640,6.635,baseline
1117.000,220.900,45.660,8.984,792.500,130.900,19.190,2.764,108.700,19.470,4.302,0.979,352.200,87.220,22.720,6.687,baseline
1121.000,221.400,45.940,9.035,790.400,131.000,19.250,2.815,108.800,19.560,4.246,0.989,353.900,87.920,22.830,6.727,baseline
1122.000,222.300,46.270,9.137,794.100,131.700,19.200,2.789,107.900,19.610,4.285,0.991,356.000,87.960,22.940,6.777,baseline
1126.000,225.100,46.140,9.203,795.400,131.300,19.240,2.813,110.800,19.730,4.297,0.991,357.700,88.800,23.120,6.815,baseline
1130.000,223.100,46.530,9.243,801.100,131.300,19.420,2.844,108.700,19.720,4.297,0.996,358.800,89.380,23.270,6.885,baseline
1133.000,226.900,47.250,9.233,797.000,131.900,19.250,2.790,108.600,19.640,4.357,0.995,363.000,90.070,23.400,6.853,baseline
1134.000,222.600,46.420,9.079,797.800,131.300,19.360,2.783,112.100,19.400,4.292,0.990,355.300,87.550,22.740,6.674,baseline
1123.000,221.700,45.920,8.992,794.500,131.700,19.250,2.785,109.500,19.630,4.307,0.999,352.600,86.700,22.610,6.654,baseline
1120.000,220.800,45.730,8.972,792.700,130.500,19.090,2.796,109.100,19.480,4.271,0.972,352.400,86.980,22.540,6.627,baseline
1120.000,220.700,45.900,8.995,793.700,131.200,19.120,2.797,106.700,19.450,4.258,0.986,351.500,87.110,22.580,6.668,baseline
1122.000,218.700,45.680,9.053,795.800,130.300,19.110,2.807,107.900,19.590,4.263,0.976,351.100,87.220,22.720,6.662,baseline
1123.000,221.300,45.930,9.038,794.100,131.000,19.180,2.783,109.800,19.750,4.289,0.988,353.700,87.230,22.860,6.685,baseline
1126.000,221.900,46.210,9.172,793.000,131.100,19.320,2.802,107.400,19.530,4.311,0.991,355.300,88.160,22.960,6.774,baseline
1129.000,224.400,46.170,9.162,799.800,131.900,19.380,2.814,110.000,19.540,4.305,0.999,357.900,88.700,23.010,6.805,baseline
1133.000,225.400,46.650,9.257,797.500,131.400,19.250,2.809,110.400,19.750,4.340,0.998,359.800,88.940,23.350,6.890,baseline
1136.000,225.800,46.770,9.151,800.200,131.800,19.280,2.818,109.800,19.580,4.322,1.005,363.400,89.790,23.360,6.905,baseline
1140.000,224.900,46.760,9.309,797.600,132.800,19.390,2.830,112.600,20.020,4.356,1.009,366.100,90.680,23.710,6.961,baseline
1145.000,227.000,47.230,9.333,805.500,131.900,19.470,2.838,112.200,19.700,4.371,1.017,366.600,91.200,23.810,6.983,baseline
1145.000,226.100,46.960,9.287,803.000,132.000,19.310,2.765,112.700,19.830,4.376,1.002,359.700,88.890,23.030,6.751,baseline
1136.000,222.500,46.590,9.103,799.300,131.800,19.390,2.806,109.000,19.720,4.292,0.986,356.900,88.080,22.900,6.711,baseline
1132.000,223.600,46.450,9.159,794.500,132.200,19.140,2.766,111.300,19.870,4.363,0.984,355.600,88.220,22.840,6.722,baseline
1131.000,223.000,46.540,9.090,796.300,132.200,19.380,2.806,111.200,19.860,4.293,0.990,356.600,88.220,22.920,6.747,baseline
1132.000,224.300,46.090,9.165,798.300,131.200,19.270,2.779,111.100,19.450,4.317,0.994,356.100,88.260,22.940,6.761,baseline
1132.000,224.100,46.320,9.145,804.100,131.200,19.250,2.792,110.900,19.840,4.329,0.985,356.900,88.460,23.020,6.736,baseline
1136.000,224.600,46.690,9.180,803.700,132.100,19.480,2.781,109.700,19.820,4.311,1.006,360.500,88.940,23.390,6.850,baseline
1140.000,225.900,46.760,9.298,797.400,131.600,19.470,2.815,111.900,19.710,4.347,0.998,362.600,89.520,23.420,6.907,baseline
1143.000,225.200,46.890,9.358,804.400,132.400,19.320,2.839,110.400,19.630,4.407,0.999,364.700,89.990,23.630,6.921,baseline
1145.000,227.500,47.460,9.348,805.500,132.900,19.500,2.841,111.000,19.810,4.383,1.005,366.100,90.430,23.710,6.979,baseline
1150.000,228.400,47.470,9.398,804.000,132.200,19.530,2.820,112.800,19.720,4.383,1.012,369.200,91.270,23.650,6.934,baseline
1148.000,228.200,47.090,9.285,800.900,132.600,19.300,2.819,110.600,20.130,4.359,1.016,359.200,88.580,22.980,6.818,baseline
1141.000,225.900,46.690,9.189,803.300,132.200,19.370,2.805,111.800,19.880,4.325,0.999,356.600,88.480,22.900,6.777,baseline
1138.000,225.100,46.420,9.206,805.600,132.700,19.360,2.779,110.300,19.890,4.328,1.006,358.000,88.450,22.990,6.772,baseline
1139.000,224.400,46.800,9.260,801.300,132.500,19.390,2.798,110.200,19.750,4.407,0.996,358.100,88.540,22.920,6.793,baseline
1138.000,224.800,46.830,9.212,801.900,132.500,19.430,2.827,110.400,19.870,4.349,0.994,357.300,88.530,23.120,6.809,baseline
1141.000,226.400,47.180,9.291,796.300,131.700,19.400,2.816,109.200,19.750,4.339,0.998,359.000,88.720,23.110,6.848,baseline
1144.000,228.300,47.390,9.364,798.800,132.500,19.640,2.851,111.100,19.890,4.314,1.004,362.000,89.410,23.400,6.857,baseline
1149.000,228.000,47.760,9.357,802.900,133.200,19.550,2.829,112.200,19.690,4.361,1.012,362.900,89.940,23.490,6.911,baseline
1150.000,228.600,47.240,9.444,804.900,133.200,19.470,2.826,111.300,19.720,4.401,1.013,366.100,90.340,23.660,6.946,baseline
1154.000,228.700,47.570,9.400,805.500,133.500,19.770,2.849,109.300,19.900,4.369,1.009,367.500,91.050,23.830,7.070,baseline
1158.000,230.300,47.810,9.484,809.400,133.800,19.480,2.860,112.000,19.760,4.398,1.009,370.100,90.860,23.660,6.903,baseline
1155.000,228.300,47.230,9.277,805.700,133.000,19.440,2.829,110.500,19.910,4.329,1.006,358.200,88.430,22.980,6.751,baseline
1145.000,227.000,47.080,9.206,804.000,133.100,19.400,2.797,111.000,19.890,4.325,1.001,356.500,87.970,22.810,6.737,baseline
1142.000,225.200,47.230,9.216,803.100,132.700,19.280,2.807,110.400,19.910,4.312,1.017,357.300,88.200,22.900,6.761,baseline
1141.000,224.700,46.880,9.113,805.100,133.500,19.270,2.804,110.000,19.720,4.329,0.997,356.700,87.660,22.850,6.728,baseline
1139.000,223.600,46.290,9.119,805.400,132.400,19.250,2.806,110.600,19.690,4.349,0.994,355.800,88.250,22.770,6.776,baseline
1142.000,223.600,46.700,9.234,805.400,131.800,19.520,2.793,109.500,19.560,4.304,1.001,357.300,88.040,23.000,6.781,baseline
1143.000,224.700,46.910,9.266,803.200,132.400,19.460,2.829,109.300,19.960,4.364,0.996,359.900,88.900,23.150,6.816,baseline
1146.000,226.900,46.920,9.285,802.700,133.100,19.460,2.854,112.000,19.760,4.374,0.997,361.300,88.980,23.290,6.853,baseline
1147.000,226.900,47.570,9.347,804.600,133.900,19.610,2.824,109.800,19.810,4.359,0.997,362.700,89.570,23.470,6.915,baseline
1152.000,227.000,47.480,9.434,806.900,133.600,19.610,2.876,114.200,19.960,4.378,1.006,366.400,89.740,23.350,6.938,baseline
1154.000,227.200,47.860,9.407,811.300,133.400,19.450,2.829,110.900,19.940,4.372,1.006,359.800,88.610,23.030,6.767,baseline
1147.000,224.800,46.900,9.235,808.600,132.200,19.480,2.844,109.000,19.800,4.333,0.997,353.500,87.370,22.740,6.652,baseline
1139.000,225.400,46.570,9.079,806.200,133.100,19.320,2.789,108.400,19.880,4.321,1.009,350.800,86.920,22.580,6.632,baseline
1138.000,224.600,46.760,9.153,805.100,132.500,19.440,2.803,108.700,19.990,4.347,0.988,353.300,87.100,22.620,6.632,baseline
1138.000,223.700,46.520,9.167,805.100,132.300,19.280,2.826,111.000,19.580,4.292,0.993,353.100,87.160,22.510,6.674,baseline
1136.000,224.100,46.460,9.165,802.100,132.500,19.500,2.829,109.900,19.550,4.348,0.998,353.700,87.070,22.720,6.717,baseline
1141.000,225.400,46.680,9.216,808.100,132.800,19.530,2.835,109.300,19.650,4.335,0.987,355.400,87.490,22.750,6.752,baseline
1143.000,224.900,46.990,9.347,808.400,133.100,19.460,2.833,109.600,19.650,4.338,0.990,356.700,88.200,22.960,6.819,baseline
1145.000,227.200,47.750,9.316,805.200,133.100,19.680,2.845,110.700,20.020,4.343,1.011,361.000,88.730,23.240,6.848,baseline
1147.000,228.300,47.240,9.381,809.700,133.700,19.900,2.839,110.900,19.760,4.378,1.021,363.400,89.470,23.450,6.876,baseline
1151.000,227.900,47.480,9.352,811.300,133.900,19.580,2.845,111.400,19.860,4.375,1.012,360.100,88.510,22.960,6.707,baseline
1142.000,223.900,46.780,9.175,806.200,134.200,19.510,2.816,110.300,19.900,4.358,1.004,353.500,87.160,22.520,6.605,baseline
1137.000,224.700,46.830,9.130,806.100,133.500,19.600,2.839,110.800,19.740,4.302,0.994,351.900,86.600,22.460,6.667,baseline
1137.000,224.200,46.250,9.124,808.000,132.800,19.450,2.850,107.900,19.640,4.324,0.998,353.300,86.600,22.570,6.629,baseline
1135.000,223.800,46.610,9.157,804.800,132.900,19.500,2.823,109.900,19.860,4.325,0.995,353.300,87.030,22.610,6.646,baseline
1135.000,223.900,46.560,9.122,804.600,132.700,19.580,2.820,111.300,19.710,4.304,1.001,353.800,87.580,22.810,6.684,baseline
1137.000,224.400,46.850,9.231,801.900,132.800,19.530,2.844,110.200,19.770,4.356,1.002,355.100,87.560,22.960,6.758,baseline
1140.000,226.300,46.660,9.250,805.900,133.200,19.460,2.869,109.600,19.670,4.332,1.015,356.800,88.340,22.920,6.821,baseline
1143.000,227.300,46.900,9.338,804.800,132.600,19.650,2.841,110.000,19.730,4.378,1.013,359.400,88.400,23.050,6.843,baseline
1146.000,225.000,47.080,9.307,803.300,133.100,19.520,2.849,109.900,19.910,4.352,1.009,358.500,88.180,22.830,6.731,baseline
1141.000,225.600,46.910,9.100,805.300,131.900,19.540,2.827,110.600,19.710,4.324,0.997,350.000,86.150,22.320,6.529,baseline
1133.000,223.500,46.450,9.076,806.100,132.400,19.440,2.790,108.700,19.160,4.314,0.989,346.400,85.380,22.150,6.506,baseline
1133.000,223.300,46.770,9.060,806.900,132.400,19.620,2.861,109.800,19.360,4.239,0.986,344.100,84.710,21.970,6.456,baseline
1134.000,224.300,46.570,9.010,805.900,132.600,19.410,2.844,107.400,19.140,4.249,0.973,342.200,83.890,21.710,6.414,baseline
1134.000,223.200,46.320,9.088,809.400,132.700,19.250,2.857,107.300,19.050,4.236,0.963,339.500,83.330,21.590,6.369,baseline
1135.000,224.500,46.430,9.167,805.700,133.100,19.690,2.846,106.200,19.350,4.214,0.975,341.000,83.590,21.780,6.444,baseline
1139.000,224.900,47.050,9.174,809.700,133.400,19.580,2.843,108.000,19.280,4.206,0.972,342.200,84.500,21.960,6.476,baseline
1141.000,225.500,46.870,9.264,807.200,133.300,19.640,2.853,106.000,19.080,4.258,0.972,344.600,84.780,22.310,6.634,baseline
1143.000,226.600,47.090,9.356,808.300,133.800,19.730,2.857,108.000,19.500,4.276,0.989,350.900,86.710,22.620,6.709,baseline
1145.000,227.500,47.400,9.306,811.700,133.200,19.650,2.850,110.600,19.330,4.324,0.983,349.000,85.980,22.110,6.521,baseline
1136.000,226.500,46.830,9.159,804.100,133.700,19.580,2.837,107.300,19.530,4.272,0.975,343.800,84.710,21.900,6.437,baseline
1129.000,223.200,46.630,9.150,804.300,133.500,19.630,2.844,107.700,19.270,4.230,0.982,341.800,84.510,21.980,6.477,baseline
1130.000,224.100,46.250,9.162,801.400,133.100,19.680,2.833,107.100,19.500,4.236,0.977,342.600,84.640,22.020,6.478,baseline
1132.000,224.300,46.630,9.177,801.900,133.600,19.640,2.863,108.000,19.550,4.273,0.979,341.200,84.740,21.950,6.512,baseline
1131.000,223.900,46.380,9.193,806.600,133.100,19.670,2.860,108.100,19.370,4.240,0.976,342.700,84.500,21.920,6.486,baseline
1136.000,224.000,46.950,9.190,806.800,133.500,19.620,2.869,107.200,19.310,4.246,0.981,342.500,85.060,22.270,6.552,baseline
1139.000,224.800,47.260,9.292,805.100,133.200,19.590,2.881,107.800,19.500,4.265,0.989,346.000,85.360,22.320,6.585,baseline
1142.000,226.800,47.300,9.336,807.200,133.600,19.500,2.864,109.100,19.300,4.294,0.987,347.700,85.880,22.300,6.674,baseline
1145.000,226.600,47.330,9.331,811.300,133.800,19.690,2.845,109.400,19.690,4.308,0.999,347.500,85.410,22.270,6.530,baseline
1140.000,225.400,46.750,9.164,811.600,133.600,19.580,2.810,107.900,19.410,4.244,0.976,339.200,83.890,21.900,6.434,baseline
1134.000,223.300,46.400,9.191,802.800,132.400,19.590,2.811,108.000,19.350,4.209,0.977,338.200,83.360,21.690,6.422,baseline
1133.000,223.700,46.990,9.163,806.400,133.000,19.580,2.861,108.500,19.040,4.253,0.969,338.700,83.110,21.760,6.429,baseline
1133.000,224.400,46.630,9.239,805.400,133.600,19.630,2.878,107.100,19.550,4.234,0.966,339.300,83.680,21.880,6.441,baseline
1132.000,224.400,46.780,9.203,810.300,132.700,19.580,2.854,105.800,19.140,4.230,0.969,338.800,83.880,21.910,6.487,baseline
1136.000,225.500,46.860,9.224,806.900,133.300,19.740,2.896,106.400,19.460,4.239,0.976,341.600,84.740,22.160,6.532,baseline
1139.000,224.600,46.850,9.267,804.400,133.700,19.580,2.867,108.100,19.280,4.231,0.989,343.400,85.380,22.270,6.575,baseline
1143.000,226.800,47.590,9.352,812.000,133.800,19.720,2.865,107.900,19.410,4.256,0.973,345.900,85.790,22.530,6.649,baseline
1146.000,226.000,47.550,9.349,812.100,134.200,19.630,2.878,106.800,19.340,4.281,0.980,344.700,85.120,22.150,6.555,baseline
1140.000,226.200,46.800,9.277,813.200,134.300,19.780,2.866,108.100,19.360,4.307,0.978,340.100,84.080,21.840,6.490,baseline
1136.000,223.200,46.460,9.172,809.400,133.900,19.550,2.863,107.300,19.510,4.284,0.972,339.900,84.320,22.080,6.476,baseline
1135.000,224.500,46.990,9.235,809.800,133.900,19.570,2.834,106.800,19.250,4.236,0.969,339.600,84.560,21.960,6.484,baseline
1136.000,224.600,46.420,9.219,807.300,133.200,19.700,2.859,108.500,19.440,4.209,0.975,339.800,84.120,22.060,6.522,baseline
1136.000,223.900,47.010,9.322,803.800,133.600,19.750,2.857,107.500,19.310,4.246,0.963,342.100,84.990,22.190,6.525,baseline
1139.000,223.900,47.050,9.287,807.600,134.000,19.700,2.888,108.100,19.390,4.242,0.974,342.600,85.520,22.420,6.668,baseline
1143.000,226.000,46.980,9.284,814.500,134.000,19.770,2.868,109.000,19.510,4.280,0.973,346.400,86.250,22.530,6.711,baseline
1145.000,228.700,47.740,9.423,816.300,134.600,19.690,2.905,108.400,19.420,4.306,0.980,349.500,86.940,22.690,6.747,baseline
1149.000,227.600,47.870,9.390,816.800,134.700,19.710,2.895,107.800,19.200,4.285,0.990,352.000,87.590,22.890,6.793,baseline
1153.000,230.200,47.920,9.509,814.700,135.500,19.750,2.906,109.800,19.750,4.308,0.983,355.000,87.550,22.910,6.774,baseline
1152.000,228.300,47.680,9.253,813.700,135.000,19.600,2.893,108.800,19.590,4.307,0.988,346.200,85.700,22.390,6.595,baseline
1144.000,226.500,47.010,9.256,810.700,133.600,19.530,2.852,109.200,19.610,4.272,0.976,344.700,85.560,22.330,6.575,baseline
1142.000,225.000,46.890,9.253,810.800,133.800,19.490,2.866,108.900,19.380,4.275,0.957,346.600,85.860,22.550,6.618,baseline
1144.000,223.200,46.770,9.297,810.300,133.500,19.640,2.891,109.800,19.580,4.250,0.970,344.800,85.820,22.330,6.635,baseline
1143.000,226.100,46.590,9.323,809.400,134.000,19.670,2.854,108.800,19.380,4.234,0.965,346.200,86.020,22.580,6.604,baseline
1144.000,225.900,47.150,9.344,812.900,134.200,19.750,2.857,109.800,19.440,4.260,0.985,348.700,86.900,22.660,6.684,baseline
1148.000,227.600,47.500,9.449,814.800,134.600,19.820,2.887,109.400,19.890,4.266,0.981,349.900,87.050,22.950,6.788,baseline
1151.000,229.800,48.040,9.455,815.600,134.200,19.950,2.901,108.600,19.600,4.321,0.983,352.800,87.900,23.030,6.801,baseline
1154.000,229.500,47.480,9.424,816.500,135.200,19.900,2.912,108.200,19.700,4.301,0.985,354.600,88.440,23.090,6.845,baseline
1158.000,229.800,47.910,9.566,819.100,133.700,19.870,2.905,109.700,19.930,4.297,0.992,358.400,88.840,23.280,6.906,baseline
1161.000,230.100,48.000,9.532,816.900,135.100,19.840,2.884,112.100,19.590,4.301,0.988,355.200,87.650,22.950,6.762,baseline
1154.000,228.500,47.490,9.381,816.100,134.700,19.660,2.856,110.200,19.820,4.275,0.970,348.300,86.790,22.620,6.666,baseline
1150.000,227.100,47.290,9.288,816.200,133.900,19.780,2.888,108.900,19.620,4.299,0.978,349.300,86.700,22.700,6.667,baseline
1149.000,228.400,47.460,9.388,812.600,135.000,19.570,2.879,109.700,19.560,4.267,0.981,350.700,87.020,22.810,6.701,baseline
1150.000,226.800,47.260,9.420,810.100,134.600,19.580,2.847,110.700,19.800,4.304,0.984,349.600,86.950,22.730,6.690,baseline
1150.000,228.900,47.620,9.391,813.100,134.200,19.720,2.851,110.300,19.690,4.293,0.979,352.800,87.100,22.940,6.716,baseline
1154.000,229.200,47.370,9.495,813.600,134.700,19.850,2.894,110.600,19.460,4.303,0.984,354.700,88.250,23.100,6.799,baseline
1159.000,230.300,47.790,9.524,818.500,135.500,19.750,2.897,109.200,19.830,4.289,0.993,358.100,88.640,23.210,6.849,baseline
1161.000,231.500,47.940,9.510,816.000,135.400,19.780,2.885,109.300,19.960,4.367,0.993,359.500,89.420,23.350,6.935,baseline
1164.000,233.000,48.200,9.614,818.900,135.600,19.990,2.922,111.500,20.030,4.332,1.000,361.700,89.880,23.480,6.979,baseline
1168.000,232.900,48.600,9.639,822.900,134.900,20.000,2.898,110.400,19.780,4.398,0.993,363.300,90.240,23.560,6.918,baseline
1167.000,231.700,48.110,9.520,816.100,135.500,19.800,2.872,111.300,20.000,4.337,0.982,355.800,88.070,22.990,6.736,baseline
1158.000,229.600,47.970,9.478,816.400,135.400,19.680,2.873,110.900,19.680,4.304,0.978,353.600,87.330,22.740,6.687,baseline
1154.000,228.200,47.600,9.356,812.300,135.100,19.750,2.853,110.800,19.740,4.280,0.978,352.900,87.560,22.900,6.735,baseline
1155.000,226.900,48.220,9.425,820.700,134.600,19.740,2.866,110.300,19.760,4.290,0.980,353.900,87.780,22.940,6.727,baseline
1155.000,230.200,47.580,9.394,813.600,134.400,19.790,2.869,111.300,19.590,4.312,0.983,354.600,87.840,22.950,6.773,baseline
1157.000,229.200,47.780,9.486,817.700,135.000,19.810,2.901,110.500,19.940,4.293,0.993,356.200,87.900,23.010,6.782,baseline
1160.000,230.100,47.730,9.508,816.000,135.500,19.840,2.882,110.500,19.760,4.331,0.993,358.200,88.430,23.120,6.815,baseline
1163.000,232.400,48.280,9.551,814.600,135.600,19.910,2.873,111.300,19.960,4.340,0.990,360.000,89.270,23.240,6.888,baseline
1166.000,232.200,47.920,9.537,817.100,135.800,19.740,2.896,111.500,19.790,4.345,0.995,361.000,89.420,23.600,6.918,baseline
1170.000,231.800,48.600,9.724,820.700,135.800,19.990,2.932,112.700,19.820,4.377,1.002,363.400,90.200,23.690,7.001,baseline
1171.000,233.600,48.920,9.614,822.300,134.900,19.770,2.866,112.800,20.030,4.339,1.000,359.900,88.870,23.250,6.799,baseline
1164.000,231.000,47.910,9.453,820.200,136.000,19.790,2.877,110.500,19.860,4.339,0.987,355.300,87.640,22.840,6.727,baseline
1158.000,229.800,47.740,9.414,816.300,135.100,19.770,2.874,110.900,19.650,4.321,0.981,353.400,87.830,22.980,6.767,baseline
1157.000,230.500,47.240,9.428,814.900,134.700,19.680,2.880,110.100,19.580,4.310,0.975,355.500,87.930,22.850,6.734,baseline
1157.000,228.400,47.320,9.419,818.700,134.800,19.640,2.854,109.500,19.860,4.333,0.978,356.300,88.030,22.930,6.719,baseline
1158.000,229.800,47.790,9.382,816.000,135.000,19.750,2.845,111.300,19.840,4.316,0.986,356.000,88.520,23.000,6.773,baseline
1160.000,228.700,47.900,9.507,819.100,135.300,20.040,2.864,111.100,19.860,4.292,0.984,357.000,89.170,23.190,6.780,baseline
1164.000,231.900,48.090,9.601,820.800,135.600,20.010,2.872,111.300,19.880,4.327,0.994,360.100,89.060,23.260,6.894,baseline
1167.000,232.300,48.260,9.570,823.200,135.100,19.930,2.888,110.100,19.670,4.365,0.998,360.900,89.830,23.440,6.893,baseline
1169.000,230.700,48.080,9.708,824.900,135.500,19.980,2.888,111.500,19.570,4.339,0.999,363.400,90.100,23.700,6.971,baseline
1173.000,233.100,48.410,9.658,825.700,135.700,20.050,2.902,112.400,19.990,4.370,1.009,365.700,90.480,23.570,6.954,baseline
1172.000,232.700,48.310,9.542,821.400,135.900,19.800,2.882,110.800,20.020,4.332,0.990,357.200,88.420,22.970,6.785,baseline
1163.000,230.100,47.440,9.395,817.500,135.000,19.800,2.866,110.100,19.910,4.342,0.994,355.900,87.720,23.010,6.756,baseline
1159.000,229.500,47.510,9.438,821.000,134.600,19.640,2.898,111.000,19.610,4.352,0.986,355.000,88.190,22.940,6.737,baseline
1159.000,231.200,47.960,9.399,819.400,135.500,19.660,2.887,112.300,19.830,4.314,0.985,354.900,88.050,22.880,6.763,baseline
1158.000,229.200,47.620,9.428,817.400,135.300,19.800,2.873,109.800,19.870,4.332,0.978,355.500,88.160,23.030,6.804,baseline
1160.000,229.900,48.020,9.462,822.900,135.500,19.770,2.889,109.900,19.900,4.328,0.998,357.500,88.540,23.040,6.794,baseline
1163.000,230.400,48.040,9.532,818.000,135.200,19.650,2.901,111.700,20.000,4.359,0.988,358.700,89.260,23.120,6.835,baseline
1167.000,231.500,48.200,9.605,825.900,135.700,19.850,2.921,110.800,19.970,4.347,0.999,361.900,89.340,23.360,6.900,baseline
1169.000,232.700,48.510,9.700,820.900,135.900,19.810,2.908,112.600,20.150,4.377,1.015,363.600,90.180,23.510,6.918,baseline
1173.000,233.100,48.860,9.595,820.800,136.300,19.810,2.915,111.400,20.200,4.381,1.013,363.200,89.630,23.410,6.832,baseline
1166.000,231.500,47.730,9.429,819.700,134.600,19.590,2.866,111.800,19.820,4.364,1.004,354.400,87.440,22.790,6.682,baseline
1158.000,229.200,47.950,9.373,822.200,135.700,19.630,2.884,111.500,19.650,4.290,0.981,352.300,86.780,22.660,6.672,baseline
1154.000,229.800,47.200,9.424,818.800,134.500,19.660,2.866,109.800,19.640,4.310,0.981,353.800,87.130,22.670,6.713,baseline
1154.000,227.000,47.500,9.331,815.600,134.600,19.720,2.880,107.000,19.750,4.328,0.979,352.900,86.830,22.670,6.692,baseline
1154.000,229.200,47.720,9.413,818.500,134.600,19.670,2.892,109.300,19.650,4.333,0.984,354.100,87.230,22.720,6.728,baseline
1154.000,229.900,48.010,9.410,819.000,135.700,19.890,2.896,109.800,19.750,4.360,0.984,353.200,87.700,22.880,6.737,baseline
1157.000,230.400,47.740,9.534,816.700,134.800,19.840,2.889,109.500,19.700,4.341,0.986,357.100,87.640,23.010,6.782,baseline
1161.000,229.100,48.030,9.489,818.300,135.600,19.880,2.876,111.700,19.570,4.375,1.008,356.500,88.600,23.200,6.803,baseline
1162.000,231.400,48.030,9.596,821.600,136.200,19.890,2.922,110.400,20.030,4.389,0.993,359.200,88.840,23.190,6.911,baseline
1166.000,230.500,48.630,9.578,821.100,136.100,19.900,2.859,111.900,20.080,4.358,0.994,361.600,88.720,23.190,6.818,baseline
1161.000,230.000,47.580,9.380,817.400,135.700,19.700,2.880,109.700,19.950,4.356,0.993,352.300,86.540,22.540,6.609,baseline
1151.000,227.300,47.020,9.255,816.300,134.600,19.770,2.867,110.700,19.880,4.331,0.978,348.800,86.450,22.520,6.592,baseline
1147.000,226.500,47.070,9.252,814.600,133.700,19.600,2.855,107.700,19.530,4.289,0.989,350.000,86.210,22.500,6.591,baseline
1148.000,229.000,47.120,9.292,816.400,134.900,19.630,2.860,109.100,19.980,4.299,0.982,349.200,85.680,22.380,6.586,baseline
1145.000,226.500,46.830,9.277,817.500,134.500,19.550,2.866,110.100,19.350,4.320,0.994,351.400,86.200,22.520,6.599,baseline
1145.000,226.200,46.820,9.296,818.100,134.400,19.840,2.868,108.300,19.760,4.260,0.979,351.400,86.540,22.620,6.613,baseline
1148.000,227.100,47.310,9.311,820.300,134.900,19.820,2.903,110.200,19.610,4.316,0.989,351.100,86.900,22.690,6.665,baseline
1151.000,227.800,47.150,9.339,820.100,135.300,19.730,2.867,111.800,19.650,4.311,0.994,353.700,87.080,22.700,6.694,baseline
1153.000,228.900,47.780,9.438,822.400,135.700,19.840,2.851,109.700,19.910,4.309,1.000,354.700,87.810,22.860,6.741,baseline
1155.000,229.200,47.780,9.418,820.300,135.100,19.870,2.880,109.300,19.780,4.373,1.000,356.200,87.590,23.150,6.816,baseline
1158.000,230.600,47.860,9.425,820.900,135.200,19.790,2.906,111.000,19.800,4.389,1.006,352.800,87.020,22.590,6.601,baseline
1150.000,226.200,47.060,9.239,818.500,134.100,19.800,2.856,111.300,19.730,4.330,0.988,347.200,85.770,22.330,6.546,baseline
1143.000,225.100,46.330,9.147,817.800,134.600,19.660,2.865,108.000,19.390,4.284,0.987,347.300,85.100,22.220,6.565,baseline
1141.000,225.900,47.080,9.230,817.600,134.700,19.800,2.861,108.500,19.510,4.317,0.989,347.500,85.560,22.260,6.560,baseline
1140.000,223.900,46.600,9.260,814.200,134.300,19.580,2.899,109.700,19.610,4.279,0.992,345.700,85.600,22.160,6.537,baseline
1140.000,225.000,46.820,9.236,814.500,134.200,19.560,2.866,106.800,19.530,4.296,0.991,346.400,85.430,22.240,6.597,baseline
1142.000,226.700,47.190,9.261,818.000,134.700,19.690,2.900,109.700,19.750,4.339,0.986,348.600,86.200,22.580,6.564,baseline
1144.000,225.500,47.100,9.297,813.400,134.700,19.910,2.878,110.000,19.750,4.315,0.994,350.100,86.230,22.620,6.632,baseline
1146.000,226.500,47.160,9.309,817.600,134.500,19.790,2.900,110.400,19.940,4.342,0.999,352.000,86.760,22.690,6.701,baseline
1149.000,227.800,47.150,9.325,815.200,135.400,19.860,2.890,110.600,19.570,4.332,0.993,352.500,86.810,22.790,6.719,baseline
1151.000,227.700,47.340,9.385,820.800,135.000,19.860,2.897,111.500,20.100,4.336,0.998,351.700,86.350,22.580,6.578,baseline
1145.000,225.500,47.020,9.219,814.500,134.800,19.750,2.860,108.500,19.300,4.341,0.987,346.700,85.510,22.240,6.488,baseline
1139.000,224.000,46.350,9.177,815.100,134.800,19.710,2.894,110.400,19.740,4.274,0.987,346.300,85.250,22.220,6.536,baseline
1139.000,226.200,46.930,9.196,818.900,134.300,19.740,2.886,110.200,19.570,4.273,0.990,345.800,85.370,22.310,6.520,baseline
1139.000,225.000,46.320,9.191,815.300,134.100,19.670,2.859,110.800,19.800,4.308,0.986,347.300,85.360,22.280,6.507,baseline
1139.000,224.000,46.520,9.197,813.800,134.800,19.820,2.867,108.700,19.490,4.276,0.987,346.000,85.550,22.340,6.529,baseline
1141.000,225.500,46.780,9.229,817.200,135.000,19.720,2.867,108.800,19.680,4.378,0.984,347.700,85.870,22.410,6.578,baseline
1145.000,226.900,46.780,9.286,811.300,135.800,19.810,2.885,109.100,19.590,4.308,0.996,348.200,86.880,22.620,6.614,baseline
1146.000,227.200,47.210,9.299,817.300,135.400,19.730,2.868,109.500,19.650,4.323,0.996,351.500,86.530,22.600,6.641,baseline
1150.000,228.300,47.330,9.338,817.000,134.700,19.880,2.908,109.500,19.870,4.331,1.008,351.500,87.500,22.810,6.709,baseline
1152.000,229.100,47.690,9.414,822.100,135.600,19.770,2.886,111.400,19.700,4.311,0.998,353.000,87.180,22.540,6.606,baseline
1149.000,228.700,46.910,9.280,814.000,135.000,19.710,2.868,109.800,19.680,4.326,0.994,346.900,85.400,22.300,6.525,baseline
1141.000,226.100,46.540,9.163,815.900,134.900,19.780,2.861,108.200,19.390,4.280,0.984,345.100,85.410,22.190,6.470,baseline
1137.000,225.900,46.080,9.197,815.000,134.600,19.580,2.880,107.500,19.540,4.308,0.990,346.500,85.470,22.090,6.459,baseline
1137.000,225.100,46.650,9.179,813.200,135.400,19.680,2.872,108.200,19.480,4.254,0.992,345.600,84.870,22.170,6.520,baseline
1137.000,225.200,46.260,9.149,816.400,133.800,19.650,2.858,106.900,19.660,4.304,0.990,345.200,85.950,22.410,6.510,baseline
1138.000,224.800,46.520,9.209,820.600,134.500,19.890,2.856,108.700,19.640,4.316,0.986,346.500,86.020,22.240,6.572,baseline
1141.000,226.400,46.740,9.243,816.900,134.700,19.780,2.884,108.900,19.580,4.295,1.003,346.800,85.920,22.390,6.580,baseline
1143.000,226.100,46.700,9.236,816.500,134.900,19.790,2.892,109.100,19.510,4.352,0.988,349.100,86.570,22.580,6.632,baseline
1145.000,225.900,47.300,9.290,816.900,135.800,19.890,2.907,110.200,19.850,4.321,0.992,350.800,86.880,22.650,6.661,baseline
1148.000,226.400,47.750,9.395,819.000,134.400,19.890,2.920,109.500,19.700,4.364,0.996,352.100,88.020,22.780,6.707,baseline
1151.000,229.400,47.320,9.343,814.000,134.200,19.710,2.891,110.200,19.830,4.362,1.007,350.800,86.840,22.690,6.555,baseline
1146.000,226.400,47.100,9.215,814.100,134.600,19.710,2.855,109.700,19.650,4.323,0.990,345.100,85.570,22.150,6.498,baseline
1139.000,224.400,46.130,9.216,815.900,133.800,19.640,2.854,108.500,19.470,4.267,0.991,344.200,84.870,22.160,6.462,baseline
1136.000,224.600,46.370,9.178,814.600,134.900,19.700,2.891,108.900,19.700,4.312,0.989,344.500,85.160,22.180,6.491,baseline
1137.000,224.100,46.120,9.126,810.600,134.100,19.750,2.879,109.700,19.900,4.311,0.991,345.300,85.340,22.240,6.460,baseline
1136.000,224.700,46.380,9.127,814.300,134.500,19.640,2.879,108.700,19.470,4.295,0.994,344.800,85.640,22.300,6.529,baseline
1139.000,225.100,46.770,9.164,813.300,134.000,19.750,2.898,109.400,19.800,4.335,0.997,346.800,85.890,22.290,6.540,baseline
1141.000,226.700,46.990,9.214,815.600,134.400,19.750,2.915,110.100,19.610,4.282,0.997,348.300,86.610,22.450,6.580,baseline
1143.000,226.600,47.270,9.287,813.300,134.300,19.880,2.895,108.100,19.710,4.327,0.989,349.700,86.870,22.550,6.601,baseline
1146.000,227.400,46.930,9.247,813.400,134.100,19.730,2.904,110.400,19.650,4.299,0.996,351.700,87.180,22.800,6.680,baseline
1147.000,227.100,47.380,9.319,816.500,135.200,19.780,2.888,109.100,19.660,4.381,1.001,353.500,88.070,22.970,6.737,baseline
1152.000,227.700,47.720,9.448,814.400,134.800,19.900,2.926,109.900,19.810,4.370,1.011,354.600,87.750,22.850,6.698,baseline
1149.000,225.600,47.230,9.198,813.300,134.000,19.750,2.878,110.600,19.970,4.391,0.996,348.500,86.300,22.500,6.528,baseline
1141.000,225.200,46.480,9.156,812.200,133.800,19.710,2.836,108.500,19.870,4.346,0.992,346.400,86.110,22.350,6.516,baseline
1138.000,226.300,46.520,9.135,813.200,133.700,19.690,2.852,109.600,19.650,4.327,0.992,348.500,86.020,22.370,6.511,baseline
1139.000,224.600,46.260,9.129,810.300,134.100,19.500,2.876,109.600,19.620,4.336,0.993,348.900,86.070,22.350,6.482,baseline
1137.000,224.700,46.430,9.124,808.600,133.800,19.560,2.867,110.600,19.540,4.365,0.994,348.400,86.210,22.600,6.548,baseline
1140.000,225.700,46.780,9.162,809.800,134.100,19.600,2.884,110.200,19.830,4.336,0.996,349.900,86.620,22.480,6.597,baseline
1142.000,226.600,46.990,9.222,809.700,134.300,19.690,2.874,110.100,19.800,4.342,1.003,352.200,87.190,22.640,6.654,baseline
1143.000,227.200,46.940,9.317,812.800,134.000,19.600,2.882,109.100,19.770,4.344,0.998,353.500,87.220,22.740,6.692,baseline
1146.000,226.900,47.280,9.313,811.800,134.700,19.770,2.881,110.200,19.800,4.337,1.012,355.400,88.070,23.010,6.728,baseline
1149.000,226.900,47.040,9.345,815.800,135.400,19.600,2.899,110.500,19.900,4.356,1.019,357.500,88.220,23.030,6.755,baseline
1150.000,228.200,47.820,9.389,812.300,134.000,19.660,2.886,109.800,19.880,4.425,1.003,354.300,87.330,22.600,6.579,baseline
1142.000,225.900,46.310,9.184,808.600,134.100,19.480,2.874,111.600,19.910,4.324,1.001,350.300,86.700,22.460,6.524,baseline
1137.000,224.200,46.480,9.128,807.700,133.400,19.470,2.836,109.700,19.680,4.302,0.987,349.600,86.310,22.550,6.545,baseline
1137.000,225.200,46.590,9.165,811.200,133.800,19.540,2.836,109.900,19.800,4.333,0.998,351.100,86.410,22.600,6.532,baseline
1138.000,225.000,46.360,9.132,809.200,133.300,19.520,2.837,110.400,19.700,4.353,0.992,350.400,86.330,22.450,6.517,baseline
1137.000,225.400,46.700,9.201,809.500,133.200,19.650,2.844,110.400,19.850,4.345,0.985,352.200,87.120,22.500,6.571,baseline
1141.000,227.600,47.050,9.272,811.800,133.700,19.430,2.865,110.900,19.700,4.302,0.998,353.800,87.610,22.690,6.677,baseline
1142.000,227.400,47.030,9.328,811.600,134.000,19.640,2.855,109.600,19.710,4.365,1.017,355.300,88.110,22.850,6.692,baseline
1146.000,226.800,47.060,9.258,811.000,134.400,19.630,2.869,112.100,19.840,4.385,1.008,356.800,88.100,22.960,6.718,baseline
1148.000,227.300,47.500,9.349,813.900,134.500,19.680,2.868,110.800,19.910,4.396,1.006,359.400,88.750,23.050,6.773,baseline
1153.000,228.100,47.710,9.434,814.900,134.700,19.700,2.886,111.400,19.860,4.369,1.002,360.800,89.200,23.120,6.827,baseline
1154.000,229.600,47.620,9.351,814.600,133.700,19.600,2.854,112.100,20.070,4.408,1.012,355.800,87.650,22.650,6.641,baseline
1144.000,224.300,47.080,9.281,810.800,134.000,19.510,2.835,109.500,19.980,4.350,1.000,351.800,86.740,22.470,6.530,baseline
1139.000,223.900,46.880,9.169,805.700,133.300,19.410,2.834,111.300,19.780,4.358,1.001,350.200,86.530,22.410,6.566,baseline
1137.000,225.900,46.380,9.213,802.500,134.300,19.560,2.848,110.400,19.590,4.369,1.005,351.300,86.440,22.290,6.511,baseline
1137.000,224.700,47.120,9.151,806.900,133.300,19.630,2.832,110.100,19.760,4.330,1.000,350.900,86.660,22.420,6.529,baseline
1137.000,225.300,46.940,9.212,809.900,133.300,19.460,2.870,110.300,19.570,4.321,1.002,352.200,86.800,22.470,6.594,baseline
1140.000,225.400,46.820,9.250,811.000,133.600,19.430,2.885,110.700,19.610,4.329,1.006,353.100,87.030,22.620,6.606,baseline
1143.000,226.400,46.940,9.319,813.800,133.200,19.510,2.894,111.400,19.750,4.377,1.010,354.900,87.210,22.690,6.670,baseline
1144.000,226.700,47.440,9.355,815.200,134.000,19.670,2.897,110.100,19.960,4.371,1.006,355.700,87.630,22.780,6.665,baseline
1148.000,228.500,47.300,9.371,814.600,133.700,19.660,2.883,110.700,20.300,4.389,1.023,358.400,88.340,23.080,6.743,baseline
1151.000,228.100,48.130,9.423,812.500,134.000,19.730,2.877,109.100,19.920,4.405,1.005,361.300,88.830,23.040,6.834,baseline
1155.000,227.600,47.580,9.398,812.500,133.800,19.700,2.869,111.000,20.010,4.385,1.019,359.100,88.180,22.720,6.633,baseline
1149.000,225.800,47.010,9.367,809.400,133.900,19.600,2.858,110.800,19.840,4.380,0.991,352.500,86.710,22.320,6.545,baseline
1143.000,225.100,46.620,9.186,808.800,133.500,19.790,2.828,112.100,19.800,4.369,0.989,351.700,86.200,22.440,6.528,baseline
1141.000,224.600,47.220,9.160,807.500,133.800,19.620,2.862,109.100,19.640,4.341,1.002,351.900,86.610,22.530,6.518,baseline
1142.000,226.100,46.570,9.173,807.200,132.900,19.350,2.844,110.400,19.920,4.360,1.007,351.000,86.640,22.330,6.554,baseline
1140.000,226.600,47.010,9.234,810.100,133.700,19.560,2.833,110.000,19.690,4.340,0.997,352.600,86.430,22.450,6.549,baseline
1143.000,225.300,46.930,9.209,808.100,134.100,19.650,2.817,109.700,19.830,4.328,1.007,353.200,86.730,22.640,6.606,baseline
1145.000,227.700,47.180,9.322,810.400,134.100,19.610,2.865,110.600,19.590,4.370,1.002,355.100,87.090,22.650,6.624,baseline
1148.000,226.900,47.430,9.238,809.800,134.700,19.660,2.873,109.500,20.070,4.369,1.012,356.700,87.780,22.820,6.646,baseline
1151.000,227.200,47.510,9.414,816.400,134.400,19.570,2.874,110.800,19.910,4.357,1.009,359.100,87.840,22.890,6.718,baseline
1154.000,228.600,47.790,9.428,813.700,134.500,19.760,2.868,112.100,20.080,4.394,1.019,359.800,88.190,22.870,6.691,baseline
1154.000,226.000,47.210,9.357,811.100,133.700,19.660,2.851,112.000,19.730,4.379,1.011,352.300,86.670,22.440,6.514,baseline
1147.000,225.500,47.130,9.229,815.200,134.200,19.590,2.854,110.500,19.800,4.311,0.991,351.100,86.020,22.390,6.531,baseline
1143.000,225.200,47.230,9.242,807.400,133.600,19.630,2.848,110.000,19.630,4.311,0.993,351.500,86.250,22.360,6.537,baseline
1144.000,226.300,47.060,9.313,811.800,133.600,19.630,2.853,109.200,19.990,4.336,1.002,350.500,86.110,22.390,6.536,baseline
1144.000,227.900,46.960,9.309,811.100,133.900,19.590,2.814,110.300,19.540,4.360,1.001,352.100,86.950,22.380,6.593,baseline
1146.000,226.800,47.140,9.276,813.800,133.700,19.690,2.829,110.400,19.880,4.353,1.007,352.500,87.070,22.520,6.634,baseline
1148.000,228.000,47.220,9.339,816.100,133.900,19.730,2.891,111.200,19.720,4.396,1.018,353.500,87.200,22.680,6.657,baseline
1152.000,229.000,47.770,9.400,815.000,134.000,19.870,2.878,110.000,19.680,4.398,1.002,355.500,87.270,22.910,6.690,baseline
1154.000,228.300,47.710,9.444,818.800,134.400,19.560,2.905,110.700,19.810,4.390,1.014,357.500,87.920,22.790,6.748,baseline
1158.000,229.900,48.180,9.495,816.700,134.600,19.800,2.902,110.400,19.590,4.420,1.015,360.800,88.590,23.110,6.778,baseline
1161.000,230.500,48.400,9.533,812.300,135.400,19.610,2.854,111.000,20.020,4.411,1.015,358.500,88.030,22.830,6.683,baseline
1156.000,228.900,47.430,9.380,813.400,135.000,19.690,2.838,110.900,19.860,4.368,1.005,352.500,86.390,22.430,6.563,baseline
1151.000,227.100,47.170,9.294,814.400,134.800,19.750,2.873,110.700,19.810,4.364,0.996,350.900,86.260,22.450,6.523,baseline
1148.000,227.400,47.080,9.292,811.000,133.700,19.710,2.842,109.700,19.700,4.329,1.007,351.200,86.180,22.420,6.553,baseline
1149.000,225.600,47.290,9.335,808.900,133.900,19.740,2.897,111.700,19.800,4.406,1.001,350.100,86.210,22.420,6.554,baseline
1149.000,226.900,47.470,9.368,814.200,133.300,19.540,2.888,111.100,19.580,4.375,1.012,351.900,86.250,22.540,6.577,baseline
1150.000,228.700,47.580,9.356,816.000,134.400,19.660,2.902,110.500,19.710,4.377,1.007,352.400,86.750,22.570,6.619,baseline
1154.000,228.500,47.590,9.391,815.700,135.200,19.830,2.876,110.500,19.780,4.356,1.010,353.400,87.360,22.710,6.672,baseline
1156.000,229.300,47.700,9.426,814.200,135.100,19.560,2.897,110.700,20.060,4.375,1.009,355.600,87.440,22.910,6.713,baseline
1160.000,230.100,47.770,9.451,815.700,135.900,19.990,2.892,110.500,19.720,4.401,1.010,358.100,87.860,23.020,6.752,baseline
1162.000,231.400,47.840,9.490,816.700,134.800,19.720,2.919,111.000,19.840,4.438,1.013,359.300,88.540,23.190,6.790,baseline
1164.000,230.600,47.950,9.485,819.800,134.700,19.740,2.878,110.500,19.730,4.395,1.025,353.500,87.190,22.590,6.585,baseline
1158.000,228.500,47.450,9.381,814.400,134.400,19.700,2.876,110.500,19.920,4.368,1.006,350.600,86.460,22.520,6.563,baseline
1155.000,226.300,47.690,9.288,815.000,134.600,19.620,2.882,111.000,19.610,4.335,1.011,351.000,86.410,22.570,6.591,baseline
1154.000,228.900,47.470,9.349,815.300,134.500,19.710,2.858,110.200,19.690,4.385,1.011,351.400,86.680,22.520,6.585,baseline
1154.000,228.000,47.300,9.315,815.300,134.500,19.690,2.881,110.500,19.860,4.356,1.009,350.800,86.530,22.450,6.599,baseline
1157.000,229.000,47.340,9.370,813.000,134.200,19.850,2.889,111.500,20.010,4.332,1.006,352.000,86.700,22.560,6.661,baseline
1159.000,229.100,47.890,9.370,813.700,134.300,19.700,2.898,109.200,19.620,4.381,1.006,353.200,87.090,22.850,6.727,baseline
1161.000,230.700,47.710,9.460,813.100,134.600,19.730,2.864,110.800,20.050,4.355,1.003,356.200,87.640,23.020,6.739,baseline
1163.000,230.800,48.010,9.487,816.900,134.600,19.740,2.895,111.100,19.990,4.395,1.014,356.200,88.250,23.120,6.768,baseline
1165.000,232.300,48.310,9.592,817.400,134.600,19.980,2.877,110.000,20.060,4.388,1.019,360.700,88.850,23.190,6.841,baseline
1168.000,233.200,48.210,9.581,819.000,134.600,19.710,2.901,111.200,19.740,4.442,1.030,357.800,88.070,22.870,6.718,baseline
1163.000,229.800,48.260,9.438,816.200,134.700,19.890,2.916,109.700,19.750,4.400,1.013,352.900,86.590,22.660,6.650,baseline
1159.000,229.000,47.620,9.336,813.300,134.400,19.790,2.871,110.100,19.970,4.416,1.003,352.500,87.360,22.720,6.663,baseline
1159.000,229.300,47.510,9.461,817.100,134.200,19.680,2.882,110.000,19.890,4.378,1.000,354.000,87.150,22.680,6.672,baseline
1159.000,228.900,48.130,9.360,813.300,135.000,19.530,2.875,109.900,19.850,4.362,1.007,352.900,87.500,22.770,6.688,baseline
1158.000,229.800,48.150,9.504,813.200,134.200,19.880,2.878,110.800,19.820,4.361,1.016,353.500,87.180,22.810,6.723,baseline
1160.000,231.000,47.660,9.473,809.200,134.500,19.770,2.853,109.300,20.060,4.378,1.011,355.800,88.090,22.990,6.745,baseline
1164.000,231.200,48.050,9.475,814.500,135.800,19.710,2.880,111.600,19.950,4.392,1.017,357.000,88.200,22.930,6.813,baseline
1166.000,231.700,48.080,9.448,816.100,135.100,19.810,2.915,112.200,19.840,4.375,1.017,359.600,88.660,23.140,6.863,baseline
1168.000,231.800,48.320,9.635,820.000,135.300,19.830,2.913,110.700,20.070,4.453,1.023,361.400,89.240,23.430,6.891,baseline
1171.000,233.400,48.390,9.650,819.500,135.300,19.720,2.892,112.500,20.050,4.404,1.037,360.100,88.520,23.000,6.717,baseline
1166.000,231.400,47.950,9.412,815.700,134.600,19.760,2.861,110.800,20.030,4.374,1.007,352.300,87.070,22.820,6.650,baseline
1158.000,228.900,47.890,9.325,815.900,134.500,19.660,2.875,112.000,19.670,4.379,1.009,351.800,87.000,22.600,6.683,baseline
1156.000,230.000,48.120,9.434,814.000,134.600,19.860,2.852,110.200,19.790,4.396,1.017,352.500,86.660,22.570,6.661,baseline
1156.000,227.800,47.530,9.369,816.100,133.800,19.560,2.857,112.000,19.850,4.397,1.014,353.200,86.880,22.600,6.682,baseline
1155.000,227.100,47.790,9.347,812.800,133.900,19.720,2.860,110.300,19.860,4.381,1.005,352.700,86.970,22.840,6.668,baseline
1157.000,229.700,47.670,9.415,808.500,134.500,19.810,2.876,110.500,20.060,4.397,1.004,354.900,87.500,22.980,6.760,baseline
1160.000,228.800,48.090,9.418,812.500,134.500,19.800,2.880,110.600,19.700,4.378,1.018,356.000,88.080,23.040,6.808,baseline
1160.000,230.200,48.100,9.609,815.200,135.100,19.860,2.893,109.600,20.070,4.437,1.010,357.600,88.450,23.100,6.798,baseline
1164.000,228.100,48.360,9.563,815.600,134.900,19.790,2.908,111.100,19.940,4.373,1.014,358.600,88.780,23.330,6.862,baseline
1166.000,233.200,48.130,9.545,815.500,134.900,19.860,2.906,111.100,19.810,4.397,1.024,362.800,89.350,23.290,6.874,baseline
1167.000,231.200,48.200,9.457,818.900,134.300,19.800,2.877,112.500,20.340,4.438,1.029,354.700,87.110,22.720,6.687,baseline
1157.000,228.000,47.460,9.327,810.700,133.800,19.780,2.876,110.000,20.080,4.379,1.013,351.700,86.260,22.550,6.646,baseline
1150.000,228.900,47.020,9.333,815.700,134.200,19.740,2.874,111.400,19.840,4.348,1.011,351.200,86.440,22.600,6.636,baseline
1150.000,227.900,46.660,9.176,809.500,133.800,19.640,2.868,111.800,20.010,4.360,0.996,350.400,86.520,22.460,6.628,baseline
1148.000,225.700,47.750,9.317,807.600,134.100,19.730,2.852,110.300,19.840,4.414,1.006,350.600,86.680,22.590,6.698,baseline
1148.000,226.900,47.540,9.262,808.500,134.100,19.770,2.849,110.800,19.450,4.345,1.019,351.100,86.660,22.530,6.656,baseline
1149.000,228.200,47.250,9.372,811.800,134.600,19.700,2.851,109.400,20.010,4.380,1.018,353.900,87.600,22.590,6.753,baseline
1151.000,226.200,47.540,9.397,810.000,133.500,19.600,2.885,110.200,19.790,4.384,1.018,356.000,87.990,22.860,6.809,baseline
1154.000,230.200,47.370,9.407,812.900,134.800,19.790,2.877,110.900,20.090,4.376,1.026,358.100,88.100,23.110,6.840,baseline
1156.000,230.500,47.720,9.452,814.400,135.200,19.750,2.891,111.700,20.260,4.398,1.003,361.200,88.530,23.330,6.907,baseline
1161.000,232.000,47.720,9.528,814.800,134.900,19.870,2.874,110.400,20.060,4.414,1.024,362.200,88.960,23.080,6.791,baseline
1158.000,229.000,47.710,9.393,814.200,134.400,19.620,2.848,112.700,20.040,4.373,1.006,354.300,87.190,22.570,6.646,baseline
1148.000,227.900,47.110,9.259,812.100,134.000,19.580,2.884,110.600,19.860,4.379,1.003,351.800,86.680,22.510,6.624,baseline
1145.000,226.400,47.140,9.258,810.800,133.800,19.570,2.860,109.200,19.660,4.358,1.006,352.100,86.740,22.520,6.686,baseline
1146.000,226.700,47.620,9.334,813.600,133.700,19.720,2.857,109.200,19.750,4.381,1.012,352.100,86.820,22.670,6.660,baseline
1145.000,227.800,47.260,9.280,810.900,133.600,19.690,2.864,110.700,19.980,4.339,1.014,353.600,86.980,22.660,6.703,baseline
1145.000,226.300,47.160,9.288,806.200,135.100,19.660,2.870,110.400,19.870,4.377,1.002,355.500,87.550,22.710,6.732,baseline
1147.000,228.400,47.520,9.406,810.000,134.200,19.780,2.869,111.900,19.560,4.392,1.009,356.900,87.970,23.030,6.759,baseline
1150.000,228.000,47.320,9.358,812.500,134.200,19.860,2.863,109.600,19.960,4.413,1.021,360.200,88.080,23.030,6.813,baseline
1152.000,227.600,48.060,9.440,812.900,134.600,19.890,2.892,112.500,20.070,4.409,1.014,361.600,88.930,23.260,6.915,baseline
1156.000,229.300,47.760,9.461,813.100,134.800,19.840,2.886,110.700,20.070,4.416,1.032,361.000,88.470,23.010,6.829,baseline
1152.000,229.800,47.390,9.306,811.400,134.300,19.680,2.874,110.500,20.090,4.422,1.012,353.700,87.180,22.620,6.659,baseline
1146.000,226.700,46.960,9.245,814.000,134.400,19.780,2.869,109.600,20.080,4.344,1.007,353.900,87.160,22.630,6.703,baseline
1146.000,226.600,47.130,9.265,815.600,134.200,19.780,2.874,110.800,20.090,4.363,1.009,354.900,87.110,22.750,6.728,baseline
1146.000,228.000,47.050,9.308,814.900,134.500,19.770,2.847,110.200,19.900,4.429,1.007,353.600,87.080,22.610,6.696,baseline
1145.000,227.100,47.650,9.300,818.000,134.700,19.770,2.856,110.300,19.980,4.399,1.012,356.200,87.640,22.830,6.776,baseline
1148.000,228.800,47.830,9.389,816.700,135.400,19.840,2.892,112.300,19.840,4.366,1.014,357.100,88.300,22.900,6.820,baseline
1151.000,229.300,47.930,9.375,814.000,135.200,19.780,2.902,110.500,20.170,4.424,1.003,361.000,88.860,23.170,6.885,baseline
1155.000,228.300,47.800,9.521,818.500,135.600,19.850,2.892,113.600,19.890,4.396,1.018,361.900,89.100,23.340,6.885,baseline
1158.000,230.600,48.300,9.520,822.500,135.200,19.920,2.916,110.900,20.420,4.437,1.017,364.400,89.990,23.430,6.951,baseline
1160.000,230.800,47.710,9.512,819.000,134.400,19.880,2.888,111.000,20.150,4.415,1.024,358.800,87.770,22.890,6.750,baseline
1153.000,228.700,47.570,9.378,817.400,134.300,19.810,2.849,110.700,19.930,4.392,0.998,353.700,87.020,22.590,6.651,baseline
1148.000,226.600,47.370,9.339,814.300,134.900,19.720,2.855,111.600,19.840,4.362,1.001,353.700,87.270,22.610,6.726,baseline
1148.000,228.200,47.500,9.358,818.900,135.100,19.810,2.899,110.000,19.760,4.336,1.000,354.300,86.890,22.550,6.679,baseline
1148.000,229.100,47.490,9.333,814.100,135.000,19.930,2.878,110.100,19.880,4.371,0.998,354.400,87.120,22.650,6.711,baseline
1147.000,228.800,47.590,9.387,816.100,135.800,19.850,2.895,110.200,19.900,4.368,1.009,355.600,87.490,22.850,6.752,baseline
1151.000,229.000,47.470,9.478,816.400,135.000,19.830,2.907,109.600,20.080,4.382,1.014,356.100,87.840,22.970,6.800,baseline
1155.000,229.500,47.980,9.508,819.200,135.800,19.980,2.892,113.100,19.850,4.384,1.006,360.100,88.560,23.140,6.832,baseline
1159.000,229.600,47.930,9.580,819.200,135.800,19.940,2.929,112.900,20.120,4.405,1.017,363.300,89.050,23.110,6.901,baseline
1162.000,232.500,48.520,9.576,818.500,135.700,19.850,2.897,112.000,20.140,4.451,1.022,365.900,89.590,23.350,6.869,baseline
1162.000,228.700,47.910,9.530,820.000,136.000,19.820,2.876,113.400,19.870,4.388,1.012,356.400,87.200,22.620,6.668,baseline
1152.000,227.800,47.650,9.400,816.800,135.500,19.930,2.876,110.200,19.950,4.321,1.006,351.100,86.440,22.460,6.613,baseline
1148.000,227.600,47.810,9.404,819.300,134.900,19.720,2.849,109.600,19.730,4.361,1.004,351.200,86.150,22.400,6.629,baseline
1148.000,228.700,47.390,9.359,818.000,134.900,19.820,2.863,111.700,19.830,4.334,1.009,351.600,86.650,22.340,6.630,baseline
1149.000,229.200,47.370,9.417,819.900,134.800,19.960,2.877,110.900,19.990,4.355,1.000,350.900,86.440,22.590,6.653,baseline
1149.000,229.000,47.610,9.370,816.400,134.800,19.980,2.910,112.700,19.710,4.341,1.008,353.200,86.780,22.600,6.676,baseline
1152.000,229.100,47.680,9.475,821.200,135.400,19.960,2.918,111.400,19.870,4.376,0.997,354.700,87.280,22.830,6.712,baseline
1155.000,230.700,48.230,9.529,820.900,135.600,19.970,2.926,110.200,19.940,4.412,1.020,356.300,88.010,22.960,6.769,baseline
1159.000,230.900,48.580,9.503,822.400,135.300,19.970,2.952,111.000,20.140,4.391,1.011,359.000,88.500,23.200,6.819,baseline
1162.000,231.600,48.350,9.618,826.900,136.600,20.080,2.935,108.500,20.170,4.429,1.019,362.500,88.910,23.210,6.920,baseline
1165.000,231.900,48.770,9.654,822.800,135.700,19.950,2.907,113.100,20.360,4.432,1.017,359.700,88.030,22.900,6.687,baseline
1160.000,231.500,47.910,9.426,822.100,135.900,19.760,2.899,109.100,19.770,4.365,0.991,352.400,86.470,22.370,6.647,baseline
1154.000,229.000,47.570,9.499,821.300,136.700,19.950,2.890,110.900,19.640,4.368,1.006,349.000,85.860,22.250,6.582,baseline
1151.000,228.800,47.800,9.461,821.400,135.500,19.880,2.895,109.100,19.730,4.335,0.996,349.100,85.950,22.460,6.557,baseline
1150.000,228.300,47.390,9.401,822.800,135.000,19.970,2.889,109.600,19.640,4.343,1.004,349.900,85.780,22.340,6.607,baseline
1151.000,228.500,47.480,9.450,827.600,136.200,19.900,2.900,109.500,19.750,4.310,1.004,349.000,86.120,22.400,6.582,baseline
1152.000,228.200,47.760,9.484,825.300,135.600,19.860,2.892,109.500,19.690,4.338,1.000,350.900,86.410,22.520,6.662,baseline
1155.000,230.600,47.680,9.549,823.000,136.100,19.940,2.920,111.900,19.690,4.347,1.008,354.000,87.150,22.780,6.707,baseline
1158.000,229.700,48.260,9.590,826.800,136.100,19.990,2.922,109.800,19.790,4.351,1.007,355.400,87.660,22.950,6.770,baseline
1162.000,231.500,48.370,9.611,824.100,135.800,19.950,2.924,110.500,20.060,4.427,1.009,357.800,88.200,23.030,6.805,baseline
1164.000,232.700,48.690,9.707,831.600,136.400,20.090,2.924,111.000,20.020,4.383,1.013,362.600,88.750,23.410,6.851,baseline
1170.000,230.600,48.900,9.733,833.300,136.300,20.070,2.942,113.000,20.130,4.432,1.017,362.700,88.780,22.950,6.764,baseline
1168.000,232.100,48.410,9.639,822.500,136.300,20.010,2.929,110.700,19.930,4.391,1.009,351.400,86.380,22.480,6.608,baseline
1160.000,231.000,48.580,9.501,825.300,136.600,19.980,2.908,111.100,19.860,4.325,1.002,349.200,86.200,22.260,6.571,baseline
1157.000,229.400,47.570,9.514,828.200,136.600,19.890,2.931,111.100,19.760,4.336,1.001,349.800,86.510,22.450,6.596,baseline
1158.000,229.100,48.200,9.528,824.100,135.700,20.030,2.915,108.400,20.010,4.377,1.005,349.600,86.370,22.440,6.577,baseline
1158.000,229.600,48.050,9.560,825.900,136.300,20.050,2.934,109.700,19.810,4.324,1.013,349.900,86.140,22.550,6.600,baseline
1160.000,232.600,48.240,9.578,822.400,136.400,19.940,2.897,109.200,19.900,4.407,1.011,351.400,86.700,22.710,6.680,baseline
1163.000,229.400,48.550,9.633,825.900,136.600,20.210,2.937,109.500,19.930,4.378,1.006,354.000,87.220,22.700,6.763,baseline
1167.000,232.800,48.610,9.627,827.100,137.100,20.040,2.962,110.000,20.080,4.364,1.016,357.500,87.670,23.000,6.761,baseline
1170.000,233.500,49.100,9.643,826.300,136.700,20.140,2.935,109.700,20.010,4.389,1.020,359.000,88.480,23.080,6.821,baseline
1173.000,234.500,48.790,9.786,829.100,137.600,20.150,2.932,111.900,19.850,4.413,1.011,362.100,89.160,23.200,6.839,baseline
1175.000,231.900,49.060,9.660,830.400,136.200,20.110,2.907,113.300,19.920,4.396,1.010,352.400,87.010,22.440,6.611,baseline
1167.000,232.700,48.390,9.530,826.300,136.700,20.090,2.939,109.200,20.030,4.338,0.997,348.900,85.980,22.310,6.581,baseline
1163.000,230.800,48.200,9.592,830.600,136.600,20.150,2.899,110.400,19.650,4.297,0.993,348.700,86.090,22.430,6.568,baseline
1163.000,230.700,48.260,9.560,824.100,136.200,20.140,2.895,112.200,19.770,4.388,0.995,349.100,85.600,22.290,6.553,baseline
1163.000,230.200,48.110,9.548,829.100,136.800,20.120,2.905,107.800,19.870,4.339,1.002,349.100,85.930,22.330,6.601,baseline
1163.000,231.200,48.160,9.524,833.200,136.800,20.090,2.915,110.900,19.850,4.338,0.993,351.300,86.380,22.350,6.619,baseline
1165.000,231.200,48.270,9.611,829.600,136.000,19.980,2.959,110.900,19.620,4.382,1.010,352.000,86.790,22.790,6.668,baseline
1168.000,233.600,48.820,9.614,830.800,136.900,20.160,2.947,109.500,19.740,4.375,1.012,354.600,87.670,22.890,6.713,baseline
1170.000,232.600,48.880,9.722,830.500,137.600,20.230,2.988,112.000,19.680,4.353,1.019,356.300,87.790,23.000,6.762,baseline
1173.000,234.900,49.280,9.774,836.800,137.300,20.240,2.973,111.900,19.980,4.422,1.015,359.600,88.800,23.120,6.868,baseline
1178.000,234.800,49.570,9.871,829.700,137.600,20.110,2.980,111.300,20.220,4.408,1.027,362.100,88.780,22.840,6.762,baseline
1175.000,234.000,48.700,9.615,832.800,137.800,20.190,2.904,111.700,19.740,4.401,1.000,349.300,85.830,22.230,6.536,baseline
1166.000,230.900,48.710,9.531,828.200,136.800,19.980,2.932,110.800,19.810,4.381,1.000,346.300,85.270,22.080,6.488,baseline
1163.000,231.000,47.860,9.444,831.200,136.600,20.070,2.933,110.200,19.610,4.334,0.995,346.000,85.260,22.200,6.472,baseline
1160.000,229.600,48.220,9.483,833.200,136.900,19.980,2.919,109.300,19.610,4.377,0.997,346.200,85.070,22.200,6.469,baseline
1159.000,228.300,47.430,9.505,826.400,136.700,20.030,2.922,109.100,19.830,4.345,1.004,345.500,84.960,22.140,6.496,baseline
1158.000,228.000,47.680,9.432,829.900,137.200,20.080,2.925,110.900,19.750,4.390,0.998,347.100,85.690,22.210,6.549,baseline
1161.000,230.100,48.230,9.513,831.500,137.000,19.970,2.918,110.000,19.650,4.345,1.007,348.700,86.180,22.450,6.606,baseline
1164.000,230.500,47.980,9.493,834.900,137.700,20.090,2.922,108.000,19.980,4.397,1.003,351.100,86.720,22.580,6.649,baseline
1167.000,232.900,48.490,9.629,829.600,137.300,20.120,2.952,108.900,19.870,4.401,1.003,353.900,87.160,22.700,6.650,baseline
1169.000,230.500,48.740,9.642,830.100,137.500,20.160,2.970,110.600,19.890,4.392,1.006,356.600,88.130,22.820,6.725,baseline
1173.000,234.600,49.240,9.678,831.600,137.800,20.250,2.922,110.800,19.700,4.411,1.024,357.200,87.870,22.700,6.638,baseline
1171.000,231.200,48.420,9.537,830.300,137.900,20.090,2.940,111.500,20.180,4.374,0.995,346.000,85.280,21.920,6.470,baseline
1160.000,228.900,47.840,9.418,830.200,137.300,19.870,2.896,110.600,19.680,4.333,0.996,344.200,84.200,21.800,6.384,baseline
1155.000,228.300,47.520,9.435,827.300,137.200,20.160,2.894,111.000,19.630,4.342,0.985,343.100,84.420,21.950,6.464,baseline
1154.000,229.200,47.310,9.371,824.600,136.500,20.070,2.917,107.800,19.780,4.301,1.001,342.500,83.670,21.780,6.430,baseline
1152.000,227.900,47.260,9.353,825.800,137.000,20.200,2.914,109.700,19.570,4.352,0.993,341.900,84.500,22.020,6.424,baseline
1152.000,230.200,47.840,9.374,826.100,136.900,20.100,2.915,109.200,19.580,4.345,1.000,344.600,84.820,22.010,6.431,baseline
1155.000,229.200,47.910,9.487,834.400,137.100,20.030,2.915,110.000,19.870,4.321,1.000,346.200,85.050,22.150,6.538,baseline
1158.000,229.600,47.700,9.443,830.200,138.000,20.050,2.905,109.600,19.710,4.338,1.008,348.800,85.850,22.500,6.529,baseline
1158.000,231.200,47.810,9.483,831.500,137.500,20.220,2.929,109.600,19.660,4.386,1.015,351.000,86.660,22.640,6.606,baseline
1162.000,232.000,47.880,9.589,830.600,138.200,20.160,2.934,109.500,19.630,4.380,1.020,353.600,87.280,22.650,6.687,baseline
1164.000,231.500,48.310,9.439,829.200,137.600,20.030,2.899,111.300,19.910,4.395,1.009,348.500,85.690,22.060,6.450,baseline
1157.000,228.400,47.730,9.362,830.800,137.200,19.950,2.939,109.400,19.960,4.331,1.004,340.900,83.840,21.820,6.350,baseline
1150.000,226.700,47.310,9.295,825.400,137.600,19.950,2.919,110.000,19.760,4.335,0.986,341.800,83.920,21.620,6.369,baseline
1150.000,228.700,47.340,9.348,830.300,137.500,19.990,2.923,109.100,19.560,4.346,0.989,342.900,84.190,21.730,6.349,baseline
1148.000,226.300,47.230,9.325,823.700,137.100,19.920,2.915,108.600,19.650,4.360,0.995,341.500,83.750,21.780,6.381,baseline
1147.000,225.700,47.120,9.322,825.900,137.000,19.880,2.901,111.300,19.560,4.330,1.005,341.900,83.880,21.810,6.395,baseline
1150.000,228.400,47.260,9.294,828.800,136.500,20.080,2.921,107.900,19.790,4.369,1.012,344.200,84.580,22.080,6.453,baseline
1152.000,229.800,47.020,9.411,826.600,136.900,20.160,2.932,111.000,19.620,4.358,1.005,346.100,85.510,21.990,6.457,baseline
1153.000,230.500,47.630,9.430,834.900,138.000,20.030,2.929,110.400,19.900,4.365,1.012,348.900,85.760,22.310,6.564,baseline
1157.000,228.500,47.820,9.461,831.900,137.400,20.280,2.953,111.300,19.810,4.412,1.004,352.000,86.350,22.410,6.591,baseline
1160.000,230.700,47.950,9.432,835.300,137.400,20.220,2.949,112.200,19.970,4.425,0.996,347.400,85.060,21.960,6.402,baseline
1153.000,227.900,47.830,9.281,831.100,136.500,20.000,2.886,111.500,19.770,4.309,0.996,340.500,83.810,21.540,6.339,baseline
1146.000,227.100,46.800,9.246,828.200,136.200,20.020,2.897,108.800,19.490,4.317,1.003,340.500,83.510,21.660,6.374,baseline
1145.000,228.700,47.040,9.263,833.000,136.800,20.050,2.924,110.200,19.630,4.360,0.995,341.000,83.860,21.700,6.334,baseline
1145.000,227.600,47.310,9.241,828.400,137.300,20.130,2.910,107.700,19.780,4.360,1.000,341.000,83.870,21.780,6.366,baseline
1145.000,226.200,46.830,9.227,829.100,136.800,19.960,2.926,108.300,19.790,4.351,0.998,341.500,83.770,21.820,6.390,baseline
1145.000,226.500,47.070,9.326,828.400,136.600,20.160,2.886,110.600,19.610,4.324,1.011,343.400,84.380,21.830,6.449,baseline
1148.000,227.400,47.340,9.341,830.500,137.300,20.110,2.902,109.300,19.520,4.374,1.002,345.100,84.540,22.050,6.469,baseline
1151.000,228.900,47.470,9.429,835.600,138.000,20.220,2.917,108.000,19.610,4.391,1.002,347.500,85.480,22.300,6.531,baseline
1154.000,230.500,47.740,9.377,829.300,138.300,20.160,2.968,109.300,20.050,4.374,1.018,350.900,85.540,22.300,6.517,baseline
1152.000,229.200,47.410,9.254,831.000,137.800,20.110,2.916,111.200,19.940,4.366,1.006,341.400,83.550,21.610,6.335,baseline
1143.000,226.500,46.730,9.176,829.500,137.400,20.060,2.908,108.300,19.510,4.306,1.000,337.000,82.590,21.530,6.290,baseline
1139.000,225.400,46.940,9.158,826.900,137.000,19.930,2.933,110.800,19.440,4.306,0.988,337.800,82.820,21.500,6.261,baseline
1140.000,225.400,47.090,9.168,830.500,137.000,20.090,2.939,109.400,19.670,4.290,0.990,337.000,82.600,21.380,6.295,baseline
1138.000,225.400,46.590,9.173,825.900,137.300,20.130,2.896,107.800,19.380,4.337,0.988,336.800,82.450,21.470,6.300,baseline
1137.000,226.400,46.790,9.214,825.400,137.200,20.160,2.924,108.900,19.510,4.304,0.995,338.500,83.090,21.580,6.313,baseline
1139.000,225.200,46.980,9.258,824.900,136.900,19.930,2.923,108.600,19.500,4.300,1.007,340.100,83.810,21.660,6.332,baseline
1142.000,227.100,46.800,9.347,830.700,136.700,20.080,2.937,109.400,19.650,4.337,1.002,341.900,84.240,21.720,6.390,baseline
1145.000,226.900,47.120,9.349,829.200,136.800,20.190,2.936,110.000,19.710,4.379,0.998,343.100,84.460,22.050,6.450,baseline
1147.000,226.700,47.470,9.326,831.900,137.700,20.090,2.951,110.800,19.760,4.321,0.987,344.800,84.500,21.810,6.394,baseline
1144.000,226.300,47.160,9.136,831.900,136.800,20.170,2.925,108.100,19.660,4.336,0.999,335.900,81.890,21.350,6.153,baseline
1135.000,225.000,45.970,9.165,825.900,136.200,20.030,2.915,109.400,19.500,4.316,0.994,332.000,81.140,21.030,6.173,baseline
1130.000,223.700,46.170,9.009,827.200,136.500,19.980,2.903,106.900,19.530,4.282,0.992,331.800,81.430,21.210,6.136,baseline
1129.000,224.200,46.260,9.038,827.800,136.600,19.940,2.930,107.000,19.160,4.332,0.982,331.700,81.150,21.010,6.102,baseline
1127.000,222.400,45.910,9.059,827.300,137.000,20.080,2.938,107.900,19.610,4.291,0.982,331.700,81.240,21.040,6.120,baseline
1127.000,223.000,46.130,9.074,822.900,136.500,19.840,2.911,108.800,19.510,4.305,0.979,332.900,81.740,21.140,6.161,baseline
1130.000,224.300,46.040,9.059,824.600,137.300,20.070,2.927,107.000,19.330,4.310,0.994,334.200,82.260,21.380,6.223,baseline
1131.000,222.900,46.630,9.165,828.000,136.000,20.000,2.887,108.600,19.420,4.326,0.990,335.200,82.380,21.400,6.234,baseline
1132.000,224.400,46.420,9.215,827.900,135.700,20.280,2.924,108.600,19.620,4.320,0.992,337.400,83.020,21.500,6.298,baseline
1137.000,226.900,46.660,9.284,830.700,137.100,20.080,2.942,108.500,19.730,4.383,1.001,340.600,83.380,21.790,6.360,baseline
1140.000,226.700,46.880,9.229,828.600,136.900,20.110,2.911,108.100,19.550,4.327,1.000,337.300,82.100,21.310,6.157,baseline
1132.000,223.300,46.340,9.066,827.700,136.200,19.950,2.932,108.600,19.320,4.294,0.993,329.800,80.810,20.830,6.019,baseline
1124.000,223.400,45.730,8.981,826.000,135.900,19.830,2.887,109.100,19.160,4.271,0.994,327.300,80.250,20.690,6.043,baseline
1119.000,222.200,45.870,9.001,822.000,135.900,19.900,2.896,106.700,19.320,4.216,0.983,327.100,80.140,20.730,6.033,baseline
1118.000,221.100,45.910,8.923,824.000,136.000,19.780,2.923,107.300,19.220,4.253,0.981,325.900,79.640,20.640,6.001,baseline
1117.000,220.400,45.410,8.899,830.500,135.400,19.840,2.905,106.800,19.320,4.280,0.985,327.500,80.160,20.860,6.043,baseline
1118.000,221.700,45.890,8.999,825.400,136.500,19.880,2.914,106.800,19.290,4.286,0.980,328.800,80.640,21.020,6.110,baseline
1119.000,222.200,46.010,8.936,821.500,135.500,19.990,2.908,108.400,19.340,4.310,0.992,330.600,81.080,21.030,6.107,baseline
1121.000,223.100,45.770,9.086,826.300,136.400,19.890,2.942,109.300,19.430,4.294,0.986,332.500,81.660,21.220,6.130,baseline
1124.000,221.700,46.220,9.127,824.000,136.800,20.040,2.929,108.800,19.470,4.274,1.004,335.000,81.880,21.440,6.205,baseline
1127.000,223.100,46.240,9.177,826.300,136.700,20.110,2.963,108.000,19.330,4.356,1.006,336.600,82.660,21.480,6.275,baseline
1131.000,223.400,46.460,9.242,824.800,136.400,19.950,2.949,108.100,19.290,4.330,1.010,340.100,82.990,21.580,6.239,baseline
1127.000,222.100,45.770,9.027,830.200,136.700,19.820,2.897,108.200,19.450,4.312,0.996,330.100,80.230,20.890,6.040,baseline
1116.000,221.000,45.540,8.928,823.600,136.700,19.920,2.885,108.000,19.520,4.311,0.988,326.300,80.180,20.730,6.041,baseline
1112.000,219.400,45.230,8.887,822.400,135.200,19.760,2.908,107.200,19.240,4.278,0.985,326.200,80.440,20.770,6.026,baseline
1110.000,222.000,45.230,8.964,820.800,135.200,19.930,2.916,109.300,19.230,4.275,0.996,327.400,80.240,20.730,6.030,baseline
1108.000,220.100,45.050,8.993,822.900,134.700,19.860,2.923,107.600,19.300,4.301,0.977,326.100,80.300,20.780,6.012,baseline
1109.000,220.800,45.260,8.993,819.100,134.700,19.790,2.909,106.400,19.370,4.230,0.988,328.600,80.760,20.920,6.063,baseline
1112.000,220.100,45.410,9.027,819.200,135.100,19.950,2.928,107.300,19.220,4.334,0.983,329.700,80.540,21.150,6.125,baseline
1114.000,220.800,45.820,9.016,819.800,136.100,19.920,2.917,108.200,19.490,4.291,1.006,332.800,81.390,21.170,6.182,baseline
1116.000,222.800,46.000,9.097,820.300,136.200,19.930,2.930,107.900,19.610,4.317,0.992,334.300,82.010,21.370,6.216,baseline
1119.000,224.300,45.840,9.179,821.400,136.300,20.010,2.929,110.200,19.440,4.318,1.003,336.600,82.850,21.490,6.290,baseline
1123.000,221.300,46.260,9.085,824.700,136.300,20.040,2.901,109.500,19.640,4.360,1.003,340.100,83.290,21.560,6.260,baseline
1123.000,221.400,45.810,9.057,824.700,135.600,19.840,2.903,110.100,19.600,4.316,0.995,330.700,81.350,21.140,6.116,baseline
1113.000,220.400,45.550,8.910,821.600,135.300,19.790,2.892,109.800,19.360,4.278,0.991,329.100,80.440,21.000,6.068,baseline
1108.000,221.700,45.220,8.909,817.800,135.100,19.840,2.900,107.300,19.160,4.243,0.980,329.100,80.970,20.940,6.080,baseline
1108.000,218.800,45.300,8.970,818.700,135.200,19.600,2.875,106.900,19.330,4.282,0.990,329.900,80.660,20.940,6.053,baseline
1108.000,220.800,45.470,8.905,822.700,135.300,19.690,2.912,107.600,19.580,4.293,0.988,330.100,80.980,21.010,6.126,baseline
1108.000,220.100,45.580,8.945,819.100,135.300,19.700,2.912,107.800,19.620,4.285,0.983,331.700,81.220,21.080,6.127,baseline
1111.000,220.400,45.420,9.072,818.600,136.200,19.860,2.903,109.800,19.590,4.337,0.986,333.700,82.110,21.360,6.164,baseline
1113.000,219.900,45.970,9.052,818.600,136.100,19.870,2.900,106.300,19.560,4.277,0.993,335.500,82.660,21.370,6.249,baseline
1117.000,221.100,45.960,9.106,821.200,135.800,19.930,2.933,108.800,19.480,4.351,1.001,338.300,83.150,21.650,6.295,baseline
1120.000,222.200,46.130,9.183,821.200,135.800,20.040,2.897,108.600,19.600,4.332,1.008,341.100,84.050,21.870,6.335,baseline
1122.000,224.300,46.040,9.117,825.200,136.000,19.970,2.909,110.200,20.010,4.381,1.007,339.500,82.990,21.500,6.200,baseline
1116.000,221.500,45.740,9.050,822.000,135.300,19.810,2.861,109.000,19.470,4.356,0.993,333.200,81.910,21.260,6.107,baseline
1108.000,218.600,45.170,8.963,817.300,134.600,19.770,2.877,107.800,19.420,4.324,0.984,332.600,81.360,21.170,6.066,baseline
1104.000,221.300,45.370,8.942,819.200,134.600,19.840,2.897,107.800,19.540,4.332,0.978,332.700,81.470,21.230,6.144,baseline
1106.000,220.700,45.060,8.977,821.400,134.600,19.580,2.887,108.600,19.280,4.302,0.989,332.300,81.650,21.080,6.133,baseline
1106.000,220.300,45.420,8.993,814.800,135.400,19.780,2.907,109.100,19.500,4.306,0.985,332.900,81.730,21.420,6.204,baseline
1108.000,219.500,45.430,8.929,818.400,135.300,19.810,2.917,106.800,19.630,4.310,0.998,336.300,82.640,21.540,6.208,baseline
1110.000,220.300,45.920,9.077,820.100,136.000,19.840,2.873,109.900,19.580,4.310,1.002,337.100,83.170,21.600,6.274,baseline
1114.000,220.600,45.680,9.168,821.200,135.600,19.790,2.897,108.800,19.560,4.345,0.997,339.700,83.520,21.730,6.319,baseline
1115.000,221.300,45.580,9.107,818.800,135.300,19.850,2.937,109.200,19.770,4.314,1.003,342.500,84.050,22.000,6.372,baseline
1119.000,223.200,46.330,9.216,823.100,135.700,19.960,2.925,110.200,19.620,4.359,1.013,345.800,84.480,22.000,6.425,baseline
1121.000,223.200,45.910,9.140,822.600,135.200,19.660,2.907,111.100,19.760,4.374,1.003,341.800,83.570,21.590,6.246,baseline
1112.000,221.200,45.690,9.093,818.800,135.400,19.740,2.838,108.300,19.550,4.316,0.999,335.400,82.300,21.460,6.155,baseline
1104.000,217.900,45.500,8.883,815.800,134.000,19.780,2.862,108.700,19.680,4.326,0.992,335.600,82.160,21.310,6.142,baseline
1102.000,219.400,45.300,8.874,814.600,134.100,19.730,2.838,109.200,19.760,4.312,0.992,336.400,81.870,21.320,6.163,baseline
1102.000,218.400,44.870,8.897,812.600,134.500,19.570,2.847,109.100,19.330,4.340,0.983,335.700,82.120,21.440,6.174,baseline
1101.000,217.400,45.550,8.911,816.100,134.200,19.520,2.899,109.200,19.600,4.333,0.983,338.900,82.660,21.430,6.225,baseline
1104.000,218.500,45.420,8.927,815.000,134.800,19.580,2.887,108.500,19.580,4.329,0.985,338.700,83.140,21.660,6.231,baseline
1106.000,218.900,45.890,9.074,814.200,135.600,19.780,2.895,109.900,19.470,4.342,0.988,340.300,84.010,21.860,6.252,baseline
1109.000,220.600,45.680,8.999,812.700,135.200,19.800,2.921,109.500,19.670,4.335,0.996,341.800,84.520,21.840,6.375,baseline
1111.000,221.800,45.750,9.084,815.000,134.800,19.770,2.860,110.300,19.860,4.361,1.001,344.500,84.930,22.160,6.426,baseline
1114.000,222.900,45.700,9.108,817.300,135.200,19.880,2.885,110.000,19.840,4.349,1.004,347.600,85.180,22.300,6.489,baseline
1120.000,224.100,46.300,9.261,820.400,136.100,19.850,2.892,108.700,19.670,4.363,1.005,350.600,85.650,22.390,6.464,baseline
1120.000,222.200,46.140,9.086,818.800,135.400,19.750,2.888,112.100,19.770,4.396,0.998,344.000,83.870,21.800,6.308,baseline
1108.000,220.600,45.430,8.983,814.500,135.100,19.700,2.820,109.000,19.830,4.304,0.996,340.100,83.590,21.630,6.230,baseline
1104.000,218.000,45.130,8.872,815.300,134.400,19.570,2.857,109.800,19.540,4.284,0.994,339.300,82.900,21.520,6.255,baseline
1103.000,218.000,45.070,8.928,817.100,134.300,19.710,2.839,110.300,19.650,4.299,0.993,342.000,83.110,21.730,6.283,baseline
1102.000,218.200,45.040,8.888,813.700,134.200,19.650,2.867,110.700,19.700,4.361,0.993,338.900,83.100,21.560,6.255,baseline
1104.000,218.100,45.860,8.972,813.500,134.000,19.730,2.883,110.000,19.760,4.318,0.995,341.200,83.800,21.770,6.328,baseline
1107.000,220.300,46.160,9.060,815.700,135.400,19.700,2.888,109.800,19.630,4.309,0.994,343.700,84.060,21.750,6.394,baseline
1110.000,220.600,45.990,8.991,810.400,134.600,19.730,2.875,107.600,19.400,4.343,1.004,345.100,84.320,22.010,6.409,baseline
1111.000,221.700,45.980,9.136,813.000,135.700,19.720,2.922,110.000,19.660,4.315,1.001,346.600,85.010,22.040,6.425,baseline
1116.000,222.400,45.940,9.136,814.400,134.500,19.860,2.890,109.700,19.720,4.356,1.007,350.000,85.790,22.230,6.495,baseline
1119.000,224.400,45.990,9.254,819.900,135.600,19.850,2.885,108.400,19.880,4.363,1.014,351.000,86.510,22.320,6.537,baseline
1122.000,222.200,46.430,9.173,817.700,134.800,19.650,2.847,108.900,19.740,4.388,1.009,349.600,85.400,22.090,6.411,baseline
1116.000,221.400,45.750,9.094,819.100,134.300,19.700,2.855,111.300,19.770,4.367,0.997,344.500,83.810,21.760,6.341,baseline
1111.000,221.500,45.380,9.086,815.800,134.700,19.480,2.891,110.400,19.490,4.367,0.994,343.500,83.910,21.740,6.366,baseline
1110.000,220.600,45.880,9.076,813.000,134.400,19.650,2.865,108.600,19.790,4.332,0.989,344.700,84.140,21.800,6.354,baseline
1110.000,220.600,45.580,9.022,814.400,134.800,19.710,2.858,109.700,19.600,4.322,1.002,343.300,84.050,21.890,6.345,baseline
1110.000,220.800,45.800,9.065,813.000,134.700,19.610,2.867,108.800,19.610,4.389,0.999,343.700,84.300,21.880,6.377,baseline
1113.000,222.700,46.520,9.173,814.100,134.800,19.760,2.885,110.800,19.700,4.328,1.000,346.400,84.750,22.200,6.414,baseline
1118.000,222.000,46.490,9.116,814.800,134.900,19.860,2.871,109.600,19.800,4.343,1.012,346.800,85.020,22.200,6.455,baseline
1121.000,222.400,46.230,9.219,815.100,135.500,19.850,2.904,110.200,19.810,4.416,1.004,350.100,85.710,22.180,6.536,baseline
1125.000,222.800,46.710,9.244,818.500,135.200,19.910,2.872,109.000,20.100,4.369,1.010,352.100,86.050,22.420,6.571,baseline
1128.000,225.900,46.620,9.263,819.000,135.400,19.820,2.900,110.400,19.800,4.426,1.019,354.900,86.720,22.560,6.568,baseline
1126.000,225.400,46.420,9.236,819.800,134.200,19.900,2.859,111.600,19.940,4.416,1.014,347.400,84.800,21.920,6.327,baseline
1119.000,223.300,46.090,9.117,821.100,135.000,19.750,2.892,108.400,19.840,4.382,1.005,343.700,84.230,21.710,6.344,baseline
1115.000,221.600,45.940,9.105,817.000,135.100,19.690,2.892,109.600,19.660,4.345,0.993,341.800,83.960,21.760,6.378,baseline
1115.000,223.800,45.980,9.087,816.900,135.000,19.680,2.876,107.800,19.600,4.320,0.998,342.000,83.680,21.690,6.344,baseline
1115.000,220.400,46.110,9.060,812.300,134.800,19.680,2.881,109.300,19.530,4.315,0.996,341.800,84.190,21.740,6.345,baseline
1115.000,220.100,46.030,9.124,815.200,135.300,19.710,2.855,108.400,19.640,4.329,1.012,343.200,84.090,21.920,6.413,baseline
1118.000,222.800,46.500,9.208,817.600,134.800,19.760,2.900,109.200,19.850,4.351,1.014,345.700,84.130,22.060,6.437,baseline
1120.000,221.900,46.960,9.220,815.500,136.300,19.990,2.893,107.600,19.650,4.358,1.008,348.200,85.010,22.120,6.452,baseline
1124.000,222.200,46.540,9.271,816.600,135.700,19.990,2.874,109.700,19.820,4.327,1.011,349.500,85.440,22.250,6.500,baseline
1127.000,224.800,46.840,9.282,818.900,135.500,20.050,2.877,110.600,19.530,4.374,1.018,350.700,85.850,22.470,6.551,baseline
1131.000,226.900,47.050,9.343,818.800,136.400,19.940,2.918,109.900,19.910,4.395,1.022,354.100,86.740,22.470,6.635,baseline
1132.000,225.800,47.160,9.250,818.600,135.100,19.890,2.899,110.800,19.850,4.410,1.019,348.200,84.980,21.930,6.396,baseline
1123.000,223.300,46.530,9.122,819.100,134.900,19.710,2.841,109.000,19.610,4.339,1.003,342.900,83.460,21.610,6.326,baseline
1115.000,222.200,45.910,9.040,815.000,135.000,19.720,2.875,108.000,19.460,4.315,0.987,340.100,83.330,21.570,6.316,baseline
1113.000,220.900,45.570,9.082,813.900,135.300,19.650,2.864,109.600,19.800,4.255,0.996,340.600,83.090,21.660,6.291,baseline
1112.000,222.200,45.700,9.072,813.100,134.700,19.640,2.873,107.800,19.460,4.267,0.988,339.200,82.710,21.490,6.271,baseline
1111.000,222.900,45.750,9.012,813.100,135.000,19.630,2.846,109.700,19.490,4.328,0.995,340.600,82.740,21.660,6.293,baseline
1113.000,221.300,45.710,8.996,816.600,135.100,19.620,2.874,108.200,19.290,4.293,1.000,341.400,83.770,21.710,6.356,baseline
1115.000,220.300,46.580,9.090,816.300,135.200,19.620,2.861,109.100,19.750,4.324,0.992,344.000,83.920,21.710,6.419,baseline
1117.000,221.900,46.500,9.170,814.600,134.400,19.750,2.866,109.400,19.470,4.347,1.000,344.700,84.600,22.090,6.405,baseline
1120.000,223.200,46.570,9.113,818.100,135.300,19.830,2.836,110.000,19.830,4.405,1.003,346.500,85.020,22.040,6.470,baseline
1123.000,224.400,46.920,9.234,817.700,134.800,19.810,2.867,111.200,19.600,4.404,1.009,350.700,85.490,22.250,6.539,baseline
1126.000,223.400,47.090,9.236,819.100,135.700,19.740,2.877,110.600,20.090,4.385,1.013,348.200,84.750,21.890,6.383,baseline
1120.000,221.700,45.650,8.974,817.300,134.900,19.830,2.869,110.500,19.570,4.329,1.000,340.600,83.150,21.550,6.288,baseline
1111.000,221.200,45.490,8.967,816.300,135.100,19.650,2.873,110.400,19.490,4.284,0.996,339.200,82.400,21.430,6.233,baseline
1109.000,221.100,45.230,8.914,812.500,134.000,19.780,2.872,108.100,19.240,4.338,0.977,339.400,82.770,21.360,6.241,baseline
1108.000,220.600,45.510,8.970,815.600,134.300,19.530,2.843,108.700,19.520,4.282,1.001,338.700,82.770,21.530,6.256,baseline
1105.000,220.100,45.590,8.950,811.200,134.700,19.400,2.835,109.600,19.220,4.330,0.991,339.200,83.000,21.430,6.237,baseline
1107.000,219.400,45.560,8.988,810.700,134.200,19.700,2.872,109.600,19.310,4.330,0.990,342.100,83.180,21.670,6.320,baseline
1110.000,221.100,45.850,9.048,811.700,134.600,19.780,2.869,108.600,19.790,4.368,0.994,344.300,83.280,21.760,6.374,baseline
1112.000,220.400,46.250,9.042,811.600,135.300,19.670,2.850,110.700,19.980,4.378,0.998,345.400,84.000,21.980,6.432,baseline
1115.000,221.400,46.260,9.014,813.100,134.200,19.920,2.899,109.700,19.810,4.392,1.009,347.300,84.850,22.120,6.477,baseline
1118.000,223.300,46.130,9.152,810.600,135.000,19.900,2.897,112.600,19.900,4.385,1.001,350.400,85.570,22.210,6.498,baseline
1121.000,224.400,46.600,9.241,820.500,135.000,19.690,2.886,110.400,19.790,4.408,1.016,352.500,85.860,22.160,6.463,baseline
1119.000,222.500,46.300,9.052,813.300,135.700,19.730,2.856,110.800,19.780,4.404,0.996,342.300,83.180,21.570,6.283,baseline
1109.000,220.000,45.440,8.899,810.700,133.700,19.600,2.865,110.100,19.460,4.297,1.002,340.900,82.710,21.530,6.237,baseline
1106.000,220.800,45.030,8.973,809.400,134.200,19.650,2.858,110.800,19.520,4.325,1.014,340.300,83.240,21.620,6.288,baseline
1106.000,218.500,45.330,8.922,810.900,134.400,19.620,2.869,110.000,19.630,4.339,1.003,340.300,82.810,21.690,6.275,baseline
1105.000,220.500,45.790,8.917,813.700,134.400,19.600,2.822,108.800,19.430,4.330,1.011,340.700,83.160,21.560,6.309,baseline
1106.000,220.300,45.230,8.942,808.100,134.300,19.780,2.889,108.100,19.550,4.301,1.003,342.100,83.320,21.750,6.323,baseline
1108.000,219.300,45.470,9.066,815.700,135.000,19.690,2.891,108.900,19.620,4.360,1.002,344.800,84.360,21.790,6.375,baseline
1112.000,221.400,45.860,9.179,812.800,135.600,19.810,2.880,111.100,19.530,4.396,1.011,347.600,84.590,22.110,6.458,baseline
1115.000,222.100,45.950,9.077,813.100,134.900,19.780,2.908,110.300,20.020,4.392,1.017,348.600,84.970,22.100,6.462,baseline
1119.000,224.000,46.140,9.170,816.800,135.900,19.780,2.895,112.800,19.660,4.388,1.016,351.800,85.600,22.250,6.553,baseline
1120.000,224.300,45.880,9.139,815.600,134.700,19.700,2.862,112.600,19.740,4.365,1.022,347.100,83.990,21.750,6.382,baseline
1114.000,221.000,45.480,8.938,820.100,135.500,19.570,2.841,111.000,19.770,4.356,1.006,341.400,83.090,21.710,6.243,baseline
1108.000,220.500,45.860,8.879,812.200,134.200,19.790,2.871,110.400,19.590,4.339,0.995,341.600,83.060,21.500,6.297,baseline
1106.000,222.600,45.220,8.974,811.200,133.700,19.620,2.897,108.700,19.570,4.327,1.008,341.400,82.960,21.570,6.291,baseline
1106.000,218.400,45.410,8.913,811.900,133.800,19.620,2.852,109.500,20.060,4.299,1.008,340.500,82.880,21.620,6.311,baseline
1106.000,220.000,45.600,8.921,813.800,134.500,19.720,2.838,109.700,19.880,4.380,1.006,341.800,83.610,21.560,6.315,baseline
1108.000,220.700,45.050,8.951,811.200,135.100,19.750,2.871,110.000,19.890,4.353,1.011,344.700,83.830,21.830,6.392,baseline
1113.000,220.800,45.660,9.016,816.100,135.300,19.710,2.874,110.700,19.980,4.387,1.007,346.200,84.670,22.020,6.448,baseline
1115.000,220.900,45.790,9.037,815.400,135.400,19.780,2.875,111.400,19.960,4.399,1.017,347.400,85.040,22.100,6.477,baseline
1118.000,221.900,46.130,9.027,820.300,136.700,19.840,2.874,109.800,19.810,4.407,1.014,350.600,85.540,22.320,6.510,baseline
1122.000,223.700,46.190,9.149,814.900,135.300,19.880,2.868,110.800,19.930,4.427,1.023,352.000,85.360,22.110,6.442,baseline
1119.000,222.800,45.710,9.060,816.900,135.500,19.740,2.834,109.500,20.010,4.373,1.009,343.800,83.410,21.540,6.263,baseline
1110.000,220.400,45.210,8.895,814.700,134.500,19.700,2.857,109.600,19.710,4.343,1.007,339.000,82.450,21.440,6.296,baseline
1106.000,219.700,44.710,8.936,813.000,134.900,19.760,2.873,110.100,19.420,4.356,0.998,339.500,82.860,21.460,6.269,baseline
1105.000,219.900,45.210,8.930,812.300,135.100,19.680,2.880,108.900,19.390,4.330,0.989,339.000,82.460,21.380,6.245,baseline
1105.000,219.400,45.100,8.885,819.800,135.000,19.550,2.847,108.100,19.690,4.343,0.994,339.600,82.830,21.500,6.251,baseline
1106.000,220.000,45.430,8.969,817.100,134.800,19.690,2.886,109.200,19.790,4.381,1.013,339.400,83.140,21.630,6.284,baseline
1109.000,220.900,45.580,8.911,815.900,135.300,19.810,2.891,109.000,19.780,4.381,1.002,344.200,83.780,21.740,6.373,baseline
1112.000,220.300,45.920,9.003,814.100,135.000,19.730,2.885,109.200,20.010,4.416,1.023,344.700,84.120,21.880,6.404,baseline
1115.000,222.500,45.730,9.107,815.000,136.200,19.810,2.898,110.700,19.850,4.394,1.013,348.600,84.790,22.070,6.472,baseline
1118.000,223.000,46.020,9.049,818.200,136.200,19.900,2.898,108.900,19.970,4.438,1.017,351.200,85.540,22.170,6.527,baseline
1122.000,222.700,46.380,9.123,817.000,136.500,20.020,2.901,111.100,20.080,4.426,1.020,353.200,85.640,22.170,6.432,baseline
1121.000,221.800,45.770,9.007,817.700,135.100,19.730,2.865,109.400,19.910,4.335,0.996,341.200,82.960,21.380,6.247,baseline
1111.000,219.200,45.160,8.905,812.600,134.900,19.700,2.854,110.100,19.620,4.360,1.000,338.600,82.560,21.460,6.207,baseline
1107.000,218.600,45.170,8.883,815.700,135.100,19.810,2.842,107.700,19.730,4.328,1.002,337.200,82.530,21.390,6.208,baseline
1107.000,220.000,45.200,8.893,817.900,134.900,19.770,2.874,109.600,19.460,4.362,0.998,338.000,82.530,21.380,6.221,baseline
1106.000,219.500,44.820,8.872,817.800,134.500,19.630,2.853,110.700,19.690,4.354,1.005,339.100,82.360,21.440,6.253,baseline
1109.000,219.700,45.450,8.916,818.000,135.400,19.730,2.873,107.200,19.710,4.353,1.006,340.100,83.110,21.590,6.294,baseline
1112.000,220.800,45.370,8.946,818.000,135.700,19.680,2.878,109.400,19.770,4.324,1.012,341.700,83.660,21.720,6.337,baseline
1114.000,221.300,45.830,9.039,823.400,135.500,19.690,2.875,109.400,19.520,4.387,1.013,344.200,84.240,21.700,6.427,baseline
1117.000,220.300,46.220,9.066,818.800,135.600,19.980,2.902,111.600,19.770,4.423,1.027,346.400,84.530,21.910,6.438,baseline
1121.000,221.700,46.180,9.100,820.500,136.400,20.000,2.913,110.100,19.640,4.442,1.033,349.000,85.160,22.260,6.471,baseline
1125.000,224.700,46.300,9.203,816.200,136.300,19.830,2.925,110.000,20.090,4.432,1.025,351.600,85.970,22.390,6.499,baseline
1126.000,224.700,46.020,9.110,822.700,135.800,20.010,2.906,112.600,20.260,4.462,1.024,343.000,83.570,21.720,6.272,baseline
1117.000,220.000,45.690,8.988,818.300,134.600,19.720,2.863,109.600,19.790,4.410,1.014,340.300,82.640,21.510,6.245,baseline
1112.000,221.500,45.650,8.983,818.500,135.500,19.760,2.884,109.800,19.540,4.342,1.019,340.000,83.100,21.420,6.238,baseline
1114.000,220.000,45.470,8.941,812.400,134.900,19.770,2.880,111.500,19.780,4.360,0.997,341.200,83.100,21.530,6.281,baseline
1112.000,220.200,45.300,8.956,816.400,135.300,19.770,2.921,109.200,19.680,4.372,1.012,339.400,83.060,21.560,6.282,baseline
1115.000,221.300,45.860,8.961,816.800,135.500,19.980,2.914,108.300,19.980,4.382,1.007,340.300,83.350,21.540,6.302,baseline
1118.000,221.800,45.710,9.018,821.500,135.200,20.040,2.916,108.500,20.110,4.394,1.012,342.700,83.750,21.900,6.376,baseline
1120.000,222.700,45.690,8.978,820.100,136.500,19.800,2.924,110.700,19.690,4.367,1.014,344.900,84.480,21.940,6.408,baseline
1123.000,222.700,46.490,9.072,828.600,136.600,19.850,2.897,109.900,19.990,4.415,1.017,347.300,85.100,22.190,6.489,baseline
1127.000,223.100,46.720,9.213,826.900,136.200,19.990,2.894,108.900,19.940,4.455,1.022,350.900,85.720,22.320,6.508,baseline
1130.000,224.700,46.390,9.181,823.700,136.400,19.990,2.915,110.900,19.740,4.429,1.029,345.100,84.090,21.800,6.302,baseline
1123.000,222.100,45.740,9.066,820.900,136.300,19.740,2.848,112.200,19.780,4.387,1.011,340.700,82.900,21.710,6.266,baseline
1119.000,221.500,46.110,9.007,820.600,136.900,20.070,2.892,109.200,19.700,4.398,0.992,339.200,83.420,21.540,6.283,baseline
1119.000,222.500,45.780,9.039,819.100,135.300,19.900,2.917,108.100,19.800,4.396,1.024,339.500,83.000,21.490,6.284,baseline
1118.000,220.900,45.780,8.953,822.900,135.400,19.800,2.913,109.500,19.740,4.359,1.008,339.600,83.330,21.650,6.299,baseline
1120.000,222.200,46.220,9.039,819.300,135.900,20.000,2.907,109.400,19.600,4.411,1.008,340.600,83.750,21.680,6.333,baseline
1124.000,223.600,46.120,9.040,823.900,136.100,20.020,2.894,110.100,19.690,4.421,1.017,342.600,84.140,21.900,6.376,baseline
1126.000,224.500,46.090,9.102,829.100,136.600,19.970,2.950,111.200,19.830,4.410,1.007,345.900,84.680,22.040,6.414,baseline
1129.000,225.500,46.520,9.188,825.300,136.800,19.990,2.916,109.400,19.900,4.382,1.030,347.600,85.040,22.240,6.467,baseline
1133.000,224.900,46.570,9.218,823.800,137.300,19.990,2.923,110.200,20.070,4.392,1.021,350.200,86.170,22.430,6.540,baseline
1137.000,227.300,46.420,9.216,823.400,137.000,19.980,2.924,112.600,20.030,4.479,1.028,349.500,85.230,22.100,6.388,baseline
1132.000,223.400,46.000,9.090,827.700,136.000,19.980,2.906,110.100,19.850,4.424,1.008,340.100,83.230,21.530,6.273,baseline
1123.000,221.800,46.020,9.032,822.800,136.100,19.850,2.874,110.800,19.560,4.373,1.008,339.200,82.790,21.490,6.234,baseline
1120.000,221.800,45.800,9.028,816.500,136.700,20.010,2.892,110.400,19.840,4.420,1.000,339.000,82.790,21.480,6.236,baseline
1121.000,221.900,45.770,8.977,822.800,135.400,19.900,2.911,111.200,19.710,4.326,1.009,338.100,82.820,21.490,6.224,baseline
1120.000,221.400,45.870,9.022,822.600,135.200,20.070,2.854,109.900,19.720,4.329,1.004,338.900,82.780,21.470,6.248,baseline
1123.000,222.800,45.650,8.980,819.500,135.400,19.870,2.886,110.000,19.870,4.368,1.002,339.700,83.220,21.640,6.299,baseline
1125.000,222.900,46.080,9.070,821.900,136.200,20.010,2.896,109.900,19.720,4.389,1.010,341.400,83.750,21.740,6.345,baseline
1126.000,224.200,46.390,9.147,821.900,136.700,19.970,2.909,109.500,19.830,4.390,1.006,343.700,84.180,21.900,6.337,baseline
1130.000,226.000,46.480,9.105,824.100,136.000,19.980,2.901,110.900,19.690,4.408,1.017,345.100,84.800,22.100,6.395,baseline
1134.000,226.200,46.800,9.093,823.400,136.900,20.010,2.938,110.200,20.080,4.429,1.035,347.300,85.240,22.150,6.485,baseline
1137.000,226.400,46.520,9.198,828.000,136.200,20.080,2.882,111.100,19.980,4.477,1.020,344.400,84.200,21.720,6.298,baseline
1130.000,224.200,46.280,8.958,824.600,136.600,19.830,2.886,110.000,19.950,4.356,0.995,337.400,82.660,21.320,6.178,baseline
1121.000,221.700,45.670,8.915,821.400,135.700,19.870,2.872,109.300,19.830,4.319,0.999,334.900,81.990,21.220,6.207,baseline
1119.000,221.200,45.730,8.973,822.700,136.400,19.900,2.895,109.300,19.610,4.352,1.007,337.100,82.270,21.330,6.170,baseline
1120.000,221.500,45.710,8.979,818.900,136.300,19.850,2.885,108.400,19.610,4.366,1.008,335.200,82.510,21.290,6.200,baseline
1119.000,220.700,45.370,8.946,822.100,136.300,19.840,2.855,108.900,19.730,4.298,1.012,335.700,82.140,21.420,6.255,baseline
1121.000,222.500,45.780,8.952,821.200,136.900,19.950,2.924,110.700,19.600,4.350,1.012,336.100,82.980,21.590,6.253,baseline
1124.000,224.800,45.840,9.011,824.400,135.700,19.940,2.944,110.600,19.510,4.374,1.008,338.700,82.950,21.680,6.262,baseline
1126.000,224.500,46.060,9.075,823.400,136.700,19.940,2.898,108.900,19.870,4.376,1.004,340.900,83.880,21.800,6.330,baseline
1129.000,225.400,46.260,9.058,821.600,136.500,20.140,2.874,108.400,19.780,4.376,1.007,343.200,84.310,21.970,6.345,baseline
1132.000,225.000,46.360,9.173,826.000,136.800,19.960,2.939,109.300,19.760,4.434,1.028,345.600,84.940,22.070,6.459,baseline
1136.000,227.100,46.420,9.184,826.400,136.200,19.990,2.913,110.100,19.840,4.423,1.019,347.600,84.970,22.010,6.366,baseline
1134.000,223.100,45.730,8.986,823.700,136.300,19.810,2.890,109.800,19.860,4.418,1.018,338.300,82.630,21.530,6.223,baseline
1124.000,221.700,45.740,8.978,822.400,136.600,19.900,2.874,109.700,19.790,4.327,1.007,335.500,82.230,21.360,6.187,baseline
1122.000,222.300,45.670,8.914,822.000,136.500,19.950,2.878,109.000,19.600,4.355,1.006,336.200,82.500,21.530,6.200,baseline
1122.000,223.200,45.580,9.031,819.600,135.800,19.860,2.861,108.600,19.860,4.346,1.005,335.600,82.430,21.350,6.180,baseline
1122.000,220.800,46.080,9.015,822.300,135.900,19.960,2.837,108.600,19.390,4.323,1.005,336.300,82.800,21.400,6.229,baseline
1124.000,222.500,45.580,8.980,823.100,135.800,20.020,2.894,109.300,19.610,4.323,1.012,337.500,83.110,21.450,6.276,baseline
1126.000,222.100,45.650,8.962,819.100,136.200,19.750,2.917,110.500,20.100,4.366,1.007,338.900,83.330,21.880,6.343,baseline
1128.000,224.800,45.970,9.002,822.600,136.100,20.050,2.919,110.200,19.750,4.407,1.008,340.600,83.840,21.800,6.326,baseline
1131.000,224.900,46.490,9.120,826.700,135.900,20.000,2.894,109.800,19.970,4.389,1.019,343.700,84.140,21.860,6.400,baseline
1134.000,225.400,46.430,9.167,826.400,135.400,19.990,2.949,109.000,19.770,4.373,1.028,346.100,84.620,22.120,6.446,baseline
1137.000,224.900,46.650,9.147,825.400,136.800,20.010,2.905,110.500,19.810,4.411,1.019,342.900,83.650,21.710,6.300,baseline
1131.000,223.000,46.050,8.997,829.600,136.100,19.770,2.890,111.000,19.810,4.390,1.016,336.300,82.210,21.450,6.239,baseline
1125.000,222.300,46.000,8.995,821.500,136.200,20.030,2.891,109.500,19.590,4.325,1.000,335.300,82.640,21.550,6.237,baseline
1126.000,222.300,45.640,8.986,820.100,135.700,19.900,2.892,108.500,19.590,4.349,0.994,336.700,82.830,21.430,6.251,baseline
1125.000,223.400,45.800,9.008,818.000,136.100,19.960,2.907,110.100,19.760,4.306,0.998,336.400,82.610,21.550,6.227,baseline
1125.000,222.100,46.040,8.973,820.000,136.100,20.040,2.927,109.100,19.350,4.340,0.997,336.900,83.030,21.590,6.282,baseline
1128.000,222.800,46.100,9.009,821.900,136.800,20.040,2.928,110.200,19.760,4.328,1.001,338.200,83.060,21.700,6.317,baseline
1131.000,224.000,46.290,9.064,826.300,135.600,19.890,2.906,107.600,19.610,4.381,1.001,342.100,84.050,21.860,6.379,baseline
1135.000,225.600,46.440,9.063,824.300,136.700,19.880,2.958,110.100,19.640,4.388,1.015,343.600,84.150,22.120,6.381,baseline
1138.000,227.400,46.570,9.155,824.300,136.500,20.060,2.906,109.200,19.730,4.363,1.015,344.800,85.130,22.200,6.497,baseline
1142.000,227.900,46.660,9.227,826.000,136.900,20.110,2.923,109.500,19.580,4.376,1.004,347.900,85.720,22.400,6.540,baseline
1142.000,226.500,46.470,9.163,824.400,137.300,20.010,2.908,111.600,20.040,4.399,1.016,339.100,83.590,21.620,6.306,baseline
1133.000,224.900,46.170,8.966,823.000,136.700,19.970,2.915,108.800,19.580,4.336,0.998,335.700,82.680,21.470,6.254,baseline
1127.000,222.400,46.160,8.897,821.800,135.800,19.770,2.920,107.000,19.610,4.345,1.006,333.800,82.130,21.380,6.269,baseline
1126.000,222.300,46.020,8.952,824.100,136.100,19.890,2.894,111.200,19.480,4.322,0.996,335.500,82.090,21.460,6.241,baseline
1126.000,222.400,45.990,8.937,821.600,136.300,19.760,2.905,109.200,19.380,4.344,1.001,334.700,82.850,21.560,6.251,baseline
1126.000,223.100,45.730,9.050,824.700,135.700,19.850,2.889,107.900,19.640,4.314,0.998,335.900,82.840,21.690,6.269,baseline
1127.000,220.900,45.770,9.036,818.300,135.900,19.880,2.926,108.300,19.510,4.338,1.011,337.400,83.090,21.600,6.349,baseline
1131.000,224.800,46.130,9.054,820.700,135.900,19.850,2.886,109.500,19.520,4.359,1.003,339.600,83.350,21.820,6.387,baseline
1133.000,224.400,45.960,9.084,823.300,137.100,19.930,2.940,109.300,19.590,4.338,1.003,342.000,83.800,22.050,6.409,baseline
1136.000,225.600,46.320,9.132,822.900,135.900,20.020,2.932,109.800,19.910,4.338,1.006,344.700,84.470,22.170,6.506,baseline
1139.000,225.900,46.830,9.188,822.500,136.400,20.130,2.918,108.900,19.730,4.399,1.012,347.200,85.600,22.290,6.550,baseline
1143.000,227.000,46.770,9.228,826.600,137.300,20.000,2.907,110.000,19.770,4.396,1.009,347.100,84.490,21.970,6.406,baseline
1138.000,225.500,46.400,8.968,817.900,136.100,19.870,2.888,109.100,19.690,4.329,1.001,336.700,82.640,21.470,6.276,baseline
1128.000,223.900,46.200,8.884,821.100,136.100,19.840,2.924,109.700,19.610,4.307,0.988,334.000,82.420,21.520,6.282,baseline
1126.000,222.900,45.760,8.915,823.100,135.600,19.850,2.894,108.000,19.540,4.306,0.987,334.700,82.270,21.540,6.239,baseline
1125.000,221.100,45.870,8.843,818.700,136.200,19.710,2.891,108.100,19.320,4.299,0.977,333.800,82.050,21.410,6.260,baseline
1125.000,223.000,45.650,8.910,819.100,136.200,19.840,2.851,109.500,19.740,4.314,0.989,333.900,82.380,21.540,6.293,baseline
1125.000,221.200,45.770,8.970,820.300,134.800,19.770,2.884,107.200,19.450,4.313,0.983,336.200,82.610,21.700,6.306,baseline
1128.000,223.300,46.170,9.002,822.500,135.800,20.010,2.885,110.100,19.510,4.343,0.998,338.000,83.210,21.730,6.324,baseline
1131.000,224.000,45.830,8.987,818.000,134.900,20.020,2.919,108.400,19.820,4.356,1.010,340.900,83.800,21.910,6.413,baseline
1134.000,226.600,46.140,9.074,823.900,136.400,20.010,2.910,109.100,19.670,4.370,0.992,343.300,84.070,22.130,6.487,baseline
1136.000,224.400,46.710,9.096,823.300,136.100,19.950,2.910,109.700,19.640,4.425,1.012,345.900,85.090,22.200,6.508,baseline
1140.000,225.100,46.770,9.102,824.200,135.800,19.960,2.893,109.600,19.820,4.356,0.999,349.000,85.670,22.390,6.541,baseline
1142.000,225.400,46.580,9.029,824.900,135.700,20.000,2.887,111.300,19.710,4.337,1.008,339.500,82.790,21.640,6.306,baseline
1131.000,223.200,45.940,8.997,818.000,135.500,19.740,2.855,108.700,19.550,4.360,0.991,335.500,82.280,21.460,6.282,baseline
1127.000,221.500,45.890,8.877,822.300,134.700,19.750,2.880,107.900,19.500,4.277,0.991,336.100,82.670,21.510,6.266,baseline
1126.000,222.400,45.260,8.983,817.600,135.500,19.750,2.881,108.800,19.380,4.286,0.998,336.600,82.780,21.650,6.273,baseline
1125.000,222.000,45.730,8.928,819.400,135.900,19.760,2.887,107.300,19.610,4.309,0.984,336.400,82.500,21.610,6.308,baseline
1126.000,221.600,45.640,8.945,820.800,135.000,19.780,2.860,108.700,19.680,4.327,0.999,337.700,82.570,21.530,6.338,baseline
1129.000,222.000,46.140,9.001,823.600,135.400,19.870,2.888,108.200,19.590,4.318,1.002,340.000,83.330,21.780,6.376,baseline
1132.000,222.600,45.860,9.060,821.700,135.700,19.950,2.871,110.100,19.590,4.343,1.008,343.300,83.890,22.120,6.452,baseline
1136.000,224.300,46.610,9.058,823.600,136.300,20.100,2.898,110.200,19.660,4.359,1.015,346.000,84.370,22.080,6.486,baseline
1139.000,226.400,46.890,9.134,825.300,136.100,19.900,2.898,110.300,19.890,4.366,1.003,347.700,85.150,22.370,6.540,baseline
1141.000,226.000,46.890,9.203,823.900,137.000,20.070,2.900,111.400,19.770,4.421,1.019,351.800,85.810,22.580,6.635,baseline
1145.000,226.400,46.810,9.255,829.900,136.700,20.050,2.904,109.400,19.950,4.361,1.011,346.500,84.010,21.820,6.375,baseline
1137.000,223.800,45.990,8.975,825.700,135.800,19.770,2.882,108.700,19.810,4.333,0.981,337.200,82.610,21.550,6.277,baseline
1129.000,222.100,45.540,8.908,819.700,135.800,19.780,2.863,108.500,19.700,4.333,0.985,335.000,82.180,21.350,6.271,baseline
1125.000,221.800,45.230,8.929,821.700,136.600,19.740,2.888,109.400,19.620,4.338,0.990,335.900,82.380,21.360,6.271,baseline
1125.000,221.400,45.600,8.948,814.300,135.500,19.930,2.865,109.400,19.320,4.352,0.996,334.800,82.200,21.540,6.261,baseline
1125.000,222.000,45.600,8.918,822.200,135.900,19.940,2.903,109.300,19.700,4.327,0.990,335.500,82.060,21.550,6.277,baseline
1127.000,224.000,45.730,8.936,821.100,136.600,19.960,2.871,109.700,19.730,4.335,0.988,338.900,82.890,21.760,6.344,baseline
1131.000,222.600,46.340,9.077,827.000,136.800,20.140,2.874,111.400,19.440,4.337,1.003,340.200,83.530,21.920,6.409,baseline
1134.000,224.000,46.340,9.140,822.200,136.100,20.070,2.889,108.800,19.900,4.343,1.009,342.700,84.010,22.020,6.452,baseline
1136.000,224.600,46.400,9.147,827.100,136.100,19.970,2.904,111.200,19.750,4.381,1.011,345.100,84.390,22.260,6.522,baseline
1138.000,226.200,46.600,9.153,825.800,136.400,20.020,2.921,110.800,19.800,4.375,1.017,348.600,85.740,22.420,6.518,baseline
1143.000,227.300,47.360,9.192,826.300,137.200,19.910,2.913,110.500,20.260,4.415,1.008,353.100,86.630,22.520,6.644,baseline
1148.000,229.700,47.300,9.273,828.400,137.000,20.020,2.891,113.600,20.210,4.481,1.018,353.000,85.780,22.140,6.502,baseline
1144.000,225.900,46.340,9.056,825.300,136.900,20.050,2.870,110.600,19.880,4.350,1.000,339.800,82.840,21.510,6.274,baseline
1131.000,221.800,45.670,8.922,820.300,136.100,19.700,2.910,111.300,19.850,4.338,0.986,334.200,82.030,21.480,6.234,baseline
1127.000,221.500,45.520,8.893,821.700,135.700,19.880,2.881,109.700,19.800,4.268,0.993,336.500,82.170,21.420,6.258,baseline
1127.000,221.600,45.750,8.937,824.300,135.900,19.900,2.867,109.700,19.720,4.344,0.993,336.300,82.210,21.420,6.206,baseline
1126.000,222.300,45.300,9.019,825.800,135.700,19.970,2.860,109.100,19.840,4.329,1.006,335.500,81.670,21.410,6.257,baseline
1126.000,222.600,45.830,8.984,823.500,136.500,19.860,2.895,109.200,19.730,4.351,0.988,337.700,82.840,21.460,6.316,baseline
1129.000,223.000,46.530,8.993,821.700,136.100,19.900,2.881,108.600,19.780,4.373,0.995,340.400,83.050,21.700,6.367,baseline
1132.000,224.600,46.400,9.048,825.600,136.900,20.010,2.888,111.300,19.920,4.387,1.003,343.100,83.600,21.940,6.412,baseline
1136.000,224.600,46.690,9.117,824.600,136.500,19.880,2.905,111.400,20.160,4.328,1.006,345.400,84.480,22.060,6.464,baseline
1139.000,225.700,46.520,9.125,826.200,136.500,20.020,2.893,111.300,19.710,4.414,1.013,348.300,84.990,22.290,6.526,baseline
1142.000,227.500,46.950,9.154,830.700,137.600,20.000,2.903,110.600,20.250,4.407,1.015,351.000,85.720,22.430,6.593,baseline
1149.000,228.700,47.060,9.277,827.200,137.500,20.120,2.937,110.700,20.030,4.485,1.027,356.700,86.930,22.670,6.677,baseline
1150.000,229.100,47.510,9.271,827.100,136.600,20.030,2.893,112.300,20.030,4.474,1.020,345.900,83.920,21.800,6.396,baseline
1140.000,223.100,46.430,9.011,820.000,136.400,19.840,2.856,113.600,19.940,4.333,1.006,337.500,82.560,21.560,6.317,baseline
1133.000,223.900,46.370,8.933,825.000,136.600,19.840,2.890,109.500,19.800,4.369,1.001,337.100,82.750,21.710,6.300,baseline
1132.000,223.900,45.900,9.034,824.100,136.600,19.900,2.877,110.900,19.720,4.313,1.004,337.000,82.620,21.520,6.293,baseline
1130.000,223.200,45.920,8.991,826.300,136.800,19.860,2.878,109.100,19.850,4.349,0.996,339.000,82.800,21.630,6.290,baseline
1132.000,223.500,45.910,9.077,827.700,135.900,19.870,2.881,109.500,19.640,4.331,0.994,336.800,83.100,21.570,6.321,baseline
1134.000,224.600,46.030,9.074,829.000,137.100,19.930,2.921,110.000,19.670,4.314,1.005,340.400,83.730,21.870,6.332,baseline
1137.000,225.300,46.690,9.081,825.700,136.800,20.000,2.905,111.700,19.970,4.366,1.012,345.000,84.170,22.020,6.429,baseline
1138.000,225.500,46.830,9.240,825.900,136.200,20.250,2.909,110.800,19.950,4.396,1.029,345.500,84.770,22.100,6.487,baseline
1143.000,226.500,46.800,9.163,826.300,137.500,20.170,2.896,110.500,20.000,4.410,1.025,348.900,85.400,22.290,6.552,baseline
1148.000,227.500,47.420,9.288,832.600,137.200,20.120,2.932,109.900,19.870,4.423,1.006,352.200,86.090,22.480,6.572,baseline
1150.000,228.600,47.380,9.215,831.300,137.400,20.010,2.888,112.300,20.340,4.423,1.018,343.700,84.100,21.920,6.322,baseline
1142.000,225.800,46.440,9.090,831.400,137.000,19.930,2.898,110.200,19.530,4.349,0.997,337.400,82.830,21.580,6.308,baseline
1137.000,224.300,46.130,9.049,827.200,136.600,19.940,2.880,108.800,20.110,4.374,1.003,336.800,83.000,21.670,6.346,baseline
1138.000,225.300,46.400,9.081,829.500,136.500,20.040,2.879,110.400,19.650,4.364,1.011,338.900,83.350,21.530,6.324,baseline
1138.000,224.400,46.770,9.156,822.600,136.300,20.020,2.890,110.700,19.830,4.337,0.998,337.600,82.970,21.700,6.291,baseline
1137.000,224.000,46.430,9.072,823.300,137.000,20.210,2.899,110.200,20.010,4.380,1.008,339.300,83.300,21.820,6.348,baseline
1141.000,226.800,46.450,9.154,826.600,137.100,20.060,2.909,110.900,19.620,4.402,1.003,341.700,83.660,21.990,6.417,baseline
1144.000,227.300,46.970,9.193,820.800,137.000,20.210,2.920,109.600,19.910,4.397,1.015,344.500,84.610,21.980,6.448,baseline
1147.000,228.500,47.070,9.252,830.400,136.700,20.100,2.905,109.900,19.990,4.431,1.022,346.100,84.830,22.340,6.488,baseline
1150.000,229.800,47.440,9.272,831.300,138.300,20.250,2.935,111.200,20.080,4.410,1.021,350.800,85.890,22.490,6.587,baseline
1152.000,228.800,47.190,9.267,836.100,137.300,20.070,2.917,113.600,20.300,4.464,1.025,343.700,84.400,21.730,6.349,baseline
1145.000,225.500,46.430,9.096,826.800,136.700,20.010,2.882,110.700,19.740,4.361,1.002,335.800,82.350,21.510,6.250,baseline
1138.000,225.400,46.620,9.123,827.400,136.400,19.880,2.882,109.900,19.610,4.323,0.998,333.700,82.340,21.330,6.230,baseline
1136.000,224.900,46.150,9.086,823.300,136.500,19.940,2.873,109.600,19.730,4.341,0.994,334.700,81.980,21.410,6.226,baseline
1136.000,225.100,46.250,9.023,823.800,136.500,19.840,2.869,109.500,19.800,4.357,0.993,333.900,82.030,21.400,6.244,baseline
1135.000,224.600,45.990,9.160,825.700,136.500,19.850,2.883,108.600,19.850,4.345,1.002,335.900,82.480,21.420,6.283,baseline
1137.000,226.200,46.120,9.147,827.700,136.400,20.060,2.909,108.400,19.770,4.372,1.006,335.800,82.720,21.650,6.269,baseline
1141.000,226.700,46.750,9.109,828.500,137.100,20.070,2.891,109.700,19.730,4.340,1.009,339.400,82.990,21.700,6.359,baseline
1143.000,226.000,46.570,9.159,830.300,137.600,20.190,2.921,108.700,19.620,4.411,1.006,341.800,83.840,21.860,6.409,baseline
1146.000,227.400,47.070,9.278,831.100,137.900,20.130,2.917,110.700,20.060,4.435,1.017,344.100,84.340,22.090,6.431,baseline
1149.000,229.300,47.420,9.266,835.200,137.500,20.120,2.905,110.700,20.050,4.403,1.019,346.000,84.880,21.900,6.401,baseline
1148.000,227.900,47.080,9.138,826.400,136.800,19.990,2.907,111.800,19.720,4.397,1.007,335.500,81.990,21.430,6.173,baseline
1137.000,224.400,46.040,8.992,824.800,137.100,19.940,2.898,109.000,19.550,4.312,1.011,331.200,81.320,21.180,6.086,baseline
1134.000,223.800,45.830,8.886,824.300,136.600,19.910,2.878,107.900,19.580,4.285,0.995,330.200,81.120,21.090,6.076,baseline
1131.000,224.200,45.460,8.928,822.400,136.200,19.810,2.858,108.600,19.380,4.355,0.992,330.600,81.040,21.010,6.110,baseline
1130.000,222.900,45.460,8.953,825.200,135.900,20.010,2.872,107.600,19.570,4.319,1.002,329.000,80.950,21.020,6.074,baseline
1130.000,222.800,45.960,9.033,825.400,136.100,19.910,2.889,108.200,19.690,4.311,0.981,331.100,80.790,21.060,6.132,baseline
1131.000,223.400,46.050,8.998,826.800,136.300,20.070,2.869,108.500,19.510,4.313,1.001,333.200,81.640,21.360,6.166,baseline
1134.000,224.900,45.780,9.028,823.500,136.300,19.960,2.871,108.200,19.710,4.332,0.991,334.600,82.300,21.460,6.234,baseline
1137.000,223.900,46.500,9.028,824.400,136.200,20.170,2.916,108.600,19.500,4.360,0.996,335.700,82.510,21.610,6.270,baseline
1139.000,224.500,46.510,9.125,825.900,136.600,20.060,2.935,109.600,19.770,4.400,1.008,339.300,83.320,21.680,6.299,baseline
1143.000,226.400,46.950,9.206,832.600,136.800,20.070,2.911,110.200,19.860,4.366,1.015,341.100,84.080,21.890,6.398,baseline
1144.000,226.600,46.810,9.107,824.700,136.300,20.000,2.899,110.400,19.980,4.390,1.016,338.000,82.530,21.350,6.120,baseline
1136.000,223.000,45.940,8.972,826.600,137.000,19.820,2.882,110.900,19.670,4.335,0.994,329.300,80.910,20.920,6.059,baseline
1129.000,223.000,45.440,8.906,820.300,135.100,19.810,2.874,107.800,19.480,4.337,0.988,329.000,80.660,20.850,6.038,baseline
1125.000,220.300,45.860,8.923,817.100,136.000,19.720,2.873,106.600,19.660,4.330,0.997,328.300,80.900,20.900,6.030,baseline
1125.000,219.800,45.590,8.813,819.700,135.500,19.780,2.890,109.800,19.240,4.332,1.008,327.200,80.720,20.950,6.018,baseline
1125.000,221.300,45.340,8.803,822.500,135.600,19.770,2.899,108.800,19.510,4.332,0.990,329.200,80.750,20.980,6.024,baseline
1125.000,222.600,45.310,8.879,822.700,135.700,19.950,2.891,108.300,19.610,4.303,0.988,330.200,81.200,21.090,6.105,baseline
1127.000,221.900,45.610,8.981,822.200,136.200,19.860,2.916,111.200,19.540,4.389,1.003,332.000,81.600,21.190,6.122,baseline
1130.000,224.900,45.720,8.978,822.300,136.000,19.970,2.884,106.900,19.790,4.321,1.010,334.900,82.190,21.420,6.176,baseline
1133.000,223.900,46.060,9.039,818.400,136.100,20.110,2.905,108.900,19.620,4.366,1.009,337.300,82.420,21.510,6.261,baseline
1135.000,224.300,45.800,9.042,826.700,137.300,19.980,2.940,109.500,19.680,4.397,1.007,341.100,83.230,21.720,6.320,baseline
1139.000,225.300,46.180,9.058,822.600,136.400,19.990,2.923,109.700,19.950,4.387,1.011,342.600,84.060,21.800,6.320,baseline
1138.000,225.100,46.290,8.943,817.600,135.900,19.890,2.866,110.800,19.920,4.461,1.007,334.500,81.770,21.180,6.163,baseline
1130.000,222.400,45.320,8.933,816.400,135.300,19.800,2.897,108.100,19.500,4.322,1.002,329.300,80.840,20.900,6.068,baseline
1125.000,221.500,45.000,8.797,817.000,135.200,19.710,2.888,108.900,19.480,4.345,0.990,330.100,81.320,21.090,6.126,baseline
1123.000,221.300,45.500,8.868,821.700,135.100,19.850,2.896,108.200,19.520,4.358,0.996,330.600,81.380,21.010,6.082,baseline
1123.000,222.300,45.020,8.780,817.300,135.800,19.790,2.886,108.000,19.700,4.344,0.994,331.200,81.050,21.020,6.088,baseline
1123.000,221.200,45.000,8.831,816.800,135.400,19.890,2.871,110.800,19.600,4.311,0.986,331.300,81.510,21.200,6.139,baseline
1128.000,221.700,45.770,8.869,816.700,135.900,19.790,2.911,108.000,19.740,4.338,0.999,334.600,81.970,21.310,6.186,baseline
1130.000,222.600,45.450,8.926,819.500,135.700,19.730,2.923,110.200,19.910,4.303,1.004,336.500,82.750,21.530,6.234,baseline
1131.000,224.300,46.140,8.976,821.900,135.700,19.920,2.890,111.100,19.800,4.349,1.017,339.300,83.410,21.600,6.272,baseline
1134.000,225.800,45.910,8.976,817.700,135.900,19.980,2.883,109.600,19.790,4.408,1.019,340.300,83.870,21.860,6.310,baseline
1138.000,226.500,46.550,9.115,824.500,136.400,20.010,2.930,111.400,20.010,4.410,1.022,345.000,84.750,21.940,6.347,baseline
1139.000,225.500,46.000,9.005,826.300,136.000,19.830,2.910,111.000,19.900,4.389,1.006,337.000,82.640,21.280,6.157,baseline
