A-DC1,A-DC2,A-DC3,A-DC4,A-DC5,A-DC6,A-DC7,A-DC8,B-DC1,B-DC2,B-DC3,B-DC4,B-DC5,B-DC6,B-DC7,B-DC8,condition
1465.000,337.500,90.050,22.780,1423.000,346.600,84.320,21.090,165.700,48.240,13.630,4.315,342.100,104.200,29.740,9.415,baseline
1467.000,338.200,89.900,22.780,1424.000,346.400,84.440,21.060,165.800,48.050,13.720,4.316,343.500,104.100,29.860,9.417,baseline
1468.000,336.800,89.590,22.780,1422.000,345.700,84.140,20.980,163.900,48.130,13.670,4.322,340.100,103.200,29.400,9.265,baseline
1458.000,335.800,89.140,22.560,1419.000,345.400,83.820,20.970,163.600,47.890,13.610,4.290,339.500,102.700,29.270,9.238,baseline
1454.000,335.200,89.130,22.480,1420.000,344.700,83.880,20.960,164.000,47.600,13.540,4.273,338.400,102.400,29.270,9.227,baseline
1453.000,334.300,88.750,22.420,1417.000,344.300,83.790,20.940,163.700,47.770,13.530,4.284,338.400,102.600,29.130,9.182,baseline
1453.000,334.800,88.510,22.430,1421.000,344.800,83.840,20.920,165.400,47.710,13.570,4.282,338.400,102.600,29.150,9.215,baseline
1454.000,334.500,88.680,22.480,1418.000,345.800,83.920,20.930,165.100,47.810,13.590,4.289,338.700,102.900,29.400,9.254,baseline
1457.000,335.600,89.170,22.510,1419.000,345.800,83.990,20.970,163.500,47.620,13.570,4.284,339.400,103.100,29.510,9.296,baseline
1460.000,336.600,89.610,22.640,1425.000,345.800,83.920,21.010,162.900,47.800,13.540,4.269,341.300,103.300,29.620,9.345,baseline
1462.000,337.500,89.800,22.620,1423.000,345.300,83.790,20.950,164.400,47.600,13.540,4.305,340.900,103.000,29.460,9.265,baseline
1454.000,334.200,88.960,22.370,1418.000,345.100,83.670,20.920,163.000,47.810,13.530,4.262,338.700,102.200,29.110,9.172,baseline
1451.000,333.400,88.810,22.310,1417.000,344.600,83.570,20.890,162.600,47.650,13.520,4.264,337.600,102.000,29.080,9.156,baseline
1449.000,332.200,88.660,22.350,1414.000,344.800,83.720,20.850,162.700,47.490,13.500,4.257,337.400,102.100,29.160,9.154,baseline
1450.000,334.000,88.340,22.420,1417.000,344.500,83.690,20.860,163.900,47.380,13.540,4.251,337.500,102.000,29.290,9.155,baseline
1452.000,334.300,88.520,22.460,1415.000,345.200,83.710,20.940,164.800,47.660,13.530,4.265,338.400,102.800,29.310,9.253,baseline
1455.000,336.300,88.770,22.500,1419.000,346.000,84.050,20.940,164.500,47.560,13.520,4.289,340.400,103.200,29.460,9.319,baseline
1458.000,336.100,89.310,22.600,1420.000,346.000,84.180,21.000,165.100,47.870,13.600,4.297,341.400,103.800,29.570,9.323,baseline
1462.000,337.600,89.460,22.720,1420.000,346.600,84.170,21.040,164.600,47.850,13.580,4.293,342.900,103.600,29.610,9.339,baseline
1460.000,335.700,89.150,22.510,1420.000,345.300,84.060,20.900,162.700,47.670,13.600,4.294,340.200,102.900,29.260,9.184,baseline
1452.000,335.100,88.420,22.400,1420.000,344.700,83.890,20.910,165.100,47.550,13.550,4.268,339.100,102.500,29.290,9.183,baseline
1451.000,334.000,88.580,22.370,1418.000,345.200,83.800,20.930,163.300,47.880,13.530,4.272,339.600,102.600,29.280,9.176,baseline
1451.000,333.800,88.730,22.370,1419.000,344.900,83.890,20.950,165.300,47.610,13.470,4.277,339.900,102.900,29.250,9.184,baseline
1452.000,333.700,88.610,22.390,1419.000,345.700,83.930,20.960,164.400,47.530,13.590,4.272,341.000,102.800,29.440,9.253,baseline
1456.000,335.100,89.070,22.500,1423.000,345.700,83.980,21.000,163.900,47.980,13.660,4.294,341.700,103.400,29.480,9.291,baseline
1458.000,336.300,89.460,22.620,1423.000,345.900,84.160,21.020,165.000,47.870,13.650,4.291,341.900,103.500,29.610,9.351,baseline
1462.000,337.700,89.620,22.660,1424.000,347.600,84.290,21.050,164.200,47.840,13.610,4.295,343.300,104.300,29.760,9.358,baseline
1466.000,336.600,89.340,22.570,1422.000,346.300,84.200,20.950,165.900,47.860,13.630,4.279,341.500,103.400,29.440,9.264,baseline
1457.000,335.900,88.860,22.460,1418.000,345.800,84.030,20.910,163.600,47.730,13.580,4.270,339.900,102.400,29.120,9.179,baseline
1453.000,335.300,88.300,22.350,1423.000,345.800,84.020,20.950,164.100,47.450,13.470,4.262,339.400,102.500,29.220,9.152,baseline
1453.000,334.800,88.660,22.410,1422.000,345.800,83.960,20.970,163.800,47.770,13.510,4.259,339.800,102.600,29.180,9.167,baseline
1454.000,334.200,88.890,22.420,1425.000,345.800,84.130,21.040,163.500,47.300,13.470,4.273,339.900,102.500,29.280,9.208,baseline
1458.000,335.100,89.050,22.510,1426.000,346.600,84.230,21.080,165.400,47.750,13.510,4.276,340.800,102.800,29.360,9.266,baseline
1461.000,336.400,89.360,22.560,1430.000,347.600,84.470,21.070,164.800,48.070,13.550,4.272,341.800,103.500,29.460,9.277,baseline
1464.000,336.500,89.710,22.700,1430.000,346.900,84.590,21.090,165.200,47.810,13.540,4.280,342.600,103.700,29.640,9.351,baseline
1468.000,338.600,90.100,22.740,1428.000,347.900,84.570,21.070,164.900,48.030,13.580,4.290,344.000,103.600,29.630,9.275,baseline
1462.000,335.600,89.400,22.500,1427.000,346.900,84.320,21.080,165.200,47.910,13.540,4.281,339.800,103.100,29.220,9.195,baseline
1459.000,336.500,89.090,22.460,1425.000,347.200,84.240,21.050,164.400,47.540,13.440,4.255,339.400,102.400,29.110,9.151,baseline
1458.000,336.000,88.880,22.420,1427.000,346.900,84.510,21.040,163.900,47.780,13.490,4.256,339.100,102.700,29.080,9.140,baseline
1457.000,335.800,88.920,22.500,1426.000,347.300,84.470,21.060,165.100,47.660,13.480,4.250,339.600,102.600,29.220,9.206,baseline
1459.000,336.200,89.230,22.570,1427.000,347.500,84.360,21.080,163.700,47.700,13.480,4.263,340.900,103.200,29.310,9.210,baseline
1463.000,338.000,89.510,22.630,1432.000,346.900,84.440,21.170,162.700,48.070,13.520,4.268,341.100,103.300,29.500,9.258,baseline
1465.000,338.400,89.500,22.730,1429.000,347.900,84.710,21.140,165.800,47.630,13.560,4.283,342.800,103.700,29.560,9.334,baseline
1469.000,338.800,89.930,22.830,1433.000,348.400,84.690,21.240,163.300,47.770,13.570,4.278,343.700,104.300,29.820,9.364,baseline
1471.000,340.600,90.310,22.790,1430.000,348.100,84.590,21.160,163.600,47.750,13.560,4.289,344.000,103.800,29.510,9.268,baseline
1463.000,337.200,89.330,22.610,1429.000,347.800,84.650,21.110,163.700,47.940,13.490,4.248,341.000,103.000,29.300,9.215,baseline
1462.000,337.100,89.430,22.560,1428.000,347.600,84.510,21.100,163.500,47.560,13.510,4.250,341.200,102.800,29.220,9.180,baseline
1462.000,336.700,89.420,22.540,1428.000,347.800,84.400,21.120,163.900,47.430,13.480,4.256,340.200,103.000,29.360,9.152,baseline
1463.000,337.100,89.530,22.580,1429.000,348.500,84.590,21.120,163.100,47.840,13.440,4.244,340.700,103.200,29.310,9.222,baseline
1466.000,338.200,89.680,22.690,1432.000,347.600,84.830,21.210,164.300,47.560,13.510,4.273,341.800,103.600,29.490,9.281,baseline
1470.000,339.000,89.800,22.790,1434.000,348.400,84.930,21.270,164.400,47.750,13.510,4.270,342.500,103.900,29.580,9.305,baseline
1474.000,341.700,90.290,22.980,1434.000,348.900,85.240,21.310,165.300,47.830,13.510,4.269,343.500,104.100,29.680,9.374,baseline
1477.000,341.700,90.700,23.060,1437.000,349.700,85.240,21.330,164.700,47.950,13.560,4.263,345.800,104.900,29.830,9.440,baseline
1478.000,341.300,90.620,22.870,1438.000,349.500,85.130,21.230,166.200,47.910,13.560,4.271,343.200,104.000,29.640,9.312,baseline
1471.000,339.800,90.480,22.800,1437.000,348.800,85.050,21.270,163.500,47.800,13.580,4.278,342.800,103.700,29.470,9.282,baseline
1470.000,339.400,90.210,22.820,1435.000,348.600,84.920,21.260,165.800,47.710,13.500,4.271,342.500,103.700,29.550,9.305,baseline
1470.000,340.300,90.230,22.830,1436.000,349.100,85.050,21.310,165.200,47.910,13.530,4.269,342.500,104.000,29.590,9.296,baseline
1472.000,339.900,90.480,22.930,1438.000,349.800,85.290,21.360,163.700,48.250,13.550,4.274,343.200,104.200,29.630,9.336,baseline
1475.000,342.100,90.680,22.950,1435.000,350.100,85.140,21.370,164.000,47.790,13.580,4.271,343.900,104.400,29.830,9.415,baseline
1478.000,341.600,90.650,23.040,1438.000,349.800,85.110,21.360,165.700,48.050,13.580,4.290,345.400,105.100,29.940,9.438,baseline
1481.000,343.000,91.060,23.190,1437.000,350.700,85.340,21.370,164.700,47.800,13.610,4.292,346.700,105.300,30.020,9.441,baseline
1479.000,342.400,90.830,23.020,1439.000,349.000,85.230,21.280,167.000,47.700,13.590,4.273,343.100,104.400,29.680,9.278,baseline
1473.000,340.100,90.290,22.870,1438.000,349.700,85.070,21.310,164.500,47.920,13.570,4.260,342.600,103.700,29.660,9.285,baseline
1473.000,340.000,90.260,22.930,1433.000,348.700,85.120,21.300,163.500,47.640,13.520,4.252,342.200,103.900,29.610,9.316,baseline
1474.000,341.700,90.180,22.950,1433.000,349.600,85.170,21.310,163.700,48.020,13.510,4.252,342.500,104.100,29.660,9.301,baseline
1475.000,341.800,90.640,22.950,1436.000,349.200,85.170,21.330,164.400,47.740,13.580,4.259,343.500,104.500,29.770,9.349,baseline
1477.000,341.400,90.720,23.000,1436.000,350.000,85.140,21.390,164.800,47.970,13.590,4.275,344.900,104.800,29.810,9.382,baseline
1480.000,342.400,91.170,23.160,1438.000,350.000,85.250,21.400,164.900,48.050,13.580,4.264,345.400,104.700,29.930,9.410,baseline
1482.000,342.600,91.500,23.170,1441.000,350.000,85.430,21.380,164.200,48.040,13.590,4.286,346.400,105.400,30.080,9.420,baseline
1478.000,341.100,90.560,22.930,1437.000,349.100,85.020,21.240,164.600,47.780,13.550,4.267,344.000,104.100,29.690,9.292,baseline
1473.000,341.100,90.270,22.920,1432.000,348.800,84.980,21.250,163.800,47.710,13.480,4.258,341.500,103.600,29.520,9.265,baseline
1470.000,339.600,90.150,22.880,1434.000,348.600,84.960,21.290,164.500,47.820,13.490,4.234,342.500,103.600,29.620,9.244,baseline
1470.000,340.700,90.080,22.890,1435.000,349.100,85.000,21.300,165.100,47.560,13.530,4.240,340.700,103.900,29.420,9.245,baseline
1473.000,341.700,90.490,22.930,1435.000,349.000,85.050,21.310,162.200,47.890,13.480,4.252,341.800,103.900,29.540,9.292,baseline
1473.000,340.700,90.660,23.000,1435.000,349.100,84.990,21.320,165.300,47.690,13.500,4.251,342.900,104.000,29.580,9.336,baseline
1477.000,341.700,90.650,23.110,1437.000,348.700,85.190,21.340,163.500,47.650,13.490,4.260,343.400,104.400,29.810,9.371,baseline
1480.000,342.300,90.910,23.100,1438.000,349.900,85.010,21.320,164.000,47.760,13.500,4.275,343.900,104.700,29.690,9.330,baseline
1474.000,339.200,90.070,22.870,1436.000,348.200,84.820,21.250,163.600,47.620,13.470,4.240,341.800,103.600,29.480,9.229,baseline
1469.000,339.200,90.050,22.750,1434.000,348.100,84.680,21.260,164.900,47.520,13.480,4.227,340.700,103.200,29.250,9.189,baseline
1467.000,338.500,89.870,22.760,1434.000,347.700,84.880,21.250,163.800,47.510,13.410,4.258,340.600,103.000,29.320,9.211,baseline
1468.000,338.700,90.080,22.760,1433.000,348.400,84.750,21.260,164.400,47.630,13.470,4.251,340.400,103.100,29.360,9.231,baseline
1470.000,338.300,89.930,22.820,1435.000,348.400,84.920,21.220,163.700,47.990,13.530,4.246,341.400,103.700,29.530,9.260,baseline
1472.000,339.600,90.160,22.850,1433.000,348.300,84.900,21.260,163.800,47.560,13.510,4.265,342.200,104.100,29.670,9.305,baseline
1474.000,340.800,90.400,23.010,1435.000,348.500,84.900,21.300,164.300,47.740,13.570,4.271,343.300,104.500,29.660,9.358,baseline
1477.000,340.800,90.550,22.930,1434.000,348.500,84.840,21.210,164.700,47.510,13.580,4.266,342.100,103.900,29.470,9.249,baseline
1470.000,338.500,89.710,22.710,1433.000,347.700,84.660,21.220,164.300,47.250,13.440,4.248,341.200,103.300,29.280,9.175,baseline
1465.000,338.300,89.380,22.660,1431.000,347.500,84.660,21.180,164.000,47.550,13.390,4.255,339.300,102.900,29.200,9.169,baseline
1465.000,338.400,89.740,22.710,1433.000,347.100,84.640,21.170,164.900,47.620,13.490,4.220,340.400,102.800,29.290,9.158,baseline
1464.000,338.500,89.600,22.720,1431.000,347.700,84.550,21.190,162.400,47.450,13.510,4.247,340.200,103.300,29.350,9.200,baseline
1467.000,338.100,89.680,22.770,1432.000,347.700,84.660,21.250,164.200,47.210,13.440,4.247,340.800,103.400,29.430,9.250,baseline
1469.000,338.500,89.920,22.810,1435.000,347.700,84.820,21.260,164.100,47.520,13.480,4.243,341.800,103.600,29.500,9.252,baseline
1471.000,339.700,89.890,22.830,1432.000,348.300,84.720,21.240,164.000,47.360,13.460,4.257,341.800,104.100,29.540,9.351,baseline
1471.000,338.600,89.790,22.730,1427.000,346.900,84.440,21.120,163.500,47.520,13.490,4.257,340.300,103.100,29.300,9.199,baseline
1464.000,335.900,89.160,22.600,1430.000,346.700,84.460,21.130,162.600,47.680,13.480,4.235,340.600,103.200,29.210,9.147,baseline
1461.000,336.100,89.350,22.570,1429.000,345.800,84.340,21.110,164.900,47.540,13.470,4.255,340.000,102.900,29.180,9.172,baseline
1462.000,336.300,89.020,22.570,1426.000,346.600,84.410,21.100,163.300,47.590,13.470,4.252,340.800,103.000,29.210,9.179,baseline
1464.000,337.500,89.190,22.590,1427.000,346.700,84.290,21.110,163.300,47.500,13.420,4.247,341.400,103.300,29.320,9.193,baseline
1465.000,337.700,89.240,22.670,1429.000,346.500,84.340,21.160,164.400,47.590,13.470,4.247,340.700,103.600,29.410,9.252,baseline
1468.000,337.700,89.630,22.720,1430.000,346.800,84.430,21.180,162.900,47.350,13.480,4.269,342.500,103.700,29.420,9.280,baseline
1470.000,338.700,89.420,22.680,1429.000,347.200,84.080,21.130,163.100,47.610,13.490,4.266,343.400,103.900,29.490,9.254,baseline
1465.000,336.200,88.970,22.450,1428.000,346.300,83.950,21.040,163.600,47.490,13.470,4.251,340.200,103.100,29.200,9.172,baseline
1460.000,334.500,88.610,22.340,1426.000,345.200,83.760,21.020,163.700,47.280,13.410,4.242,340.300,102.500,29.050,9.108,baseline
1458.000,334.800,88.370,22.310,1424.000,345.300,84.140,21.070,161.500,47.410,13.380,4.234,338.800,102.700,29.040,9.105,baseline
1458.000,335.200,88.540,22.440,1424.000,345.500,84.070,21.070,163.500,47.250,13.410,4.241,339.300,102.500,29.120,9.123,baseline
1461.000,335.800,88.840,22.450,1426.000,345.500,84.180,21.100,163.100,47.260,13.410,4.227,338.500,102.600,29.160,9.133,baseline
1463.000,337.200,89.240,22.510,1431.000,345.900,84.410,21.130,163.000,47.460,13.510,4.247,339.100,103.100,29.230,9.214,baseline
1467.000,337.000,89.240,22.640,1428.000,347.200,84.490,21.200,163.800,47.410,13.370,4.241,341.900,103.600,29.370,9.221,baseline
1471.000,338.100,89.700,22.780,1429.000,347.600,84.730,21.180,163.300,47.530,13.470,4.250,343.200,104.100,29.560,9.286,baseline
1469.000,338.600,89.180,22.610,1432.000,346.800,84.460,21.170,162.100,47.350,13.430,4.245,340.000,102.900,29.160,9.127,baseline
1464.000,336.800,88.870,22.520,1430.000,346.700,84.420,21.150,163.800,47.310,13.460,4.253,339.800,102.600,29.110,9.122,baseline
1460.000,334.900,88.670,22.470,1430.000,346.500,84.430,21.110,164.600,47.370,13.430,4.235,338.400,102.700,29.070,9.137,baseline
1462.000,337.000,88.870,22.480,1429.000,346.600,84.520,21.210,163.500,47.410,13.450,4.270,339.200,102.900,29.160,9.124,baseline
1463.000,336.500,89.170,22.580,1429.000,346.700,84.570,21.210,162.100,47.620,13.470,4.249,341.200,103.200,29.410,9.180,baseline
1465.000,337.400,89.460,22.610,1432.000,346.700,84.720,21.270,165.500,47.480,13.470,4.267,341.600,103.800,29.450,9.223,baseline
1467.000,338.100,89.590,22.710,1431.000,348.400,84.720,21.290,163.500,47.700,13.540,4.283,342.000,104.000,29.540,9.260,baseline
1471.000,338.600,89.920,22.850,1432.000,349.100,84.930,21.330,164.400,47.760,13.520,4.286,343.400,104.200,29.740,9.313,baseline
1475.000,339.500,90.200,22.930,1435.000,349.100,85.020,21.350,164.500,47.670,13.550,4.288,344.300,104.700,29.840,9.392,baseline
1478.000,341.200,90.520,22.940,1433.000,348.400,84.850,21.310,166.100,47.800,13.550,4.314,345.400,104.600,29.540,9.297,baseline
1470.000,337.600,89.490,22.690,1431.000,347.800,84.950,21.240,164.200,48.000,13.530,4.280,342.400,103.600,29.410,9.201,baseline
1467.000,338.100,89.110,22.660,1432.000,347.900,84.710,21.220,165.400,47.640,13.540,4.292,340.900,103.200,29.350,9.207,baseline
1466.000,336.900,89.510,22.620,1432.000,347.900,84.800,21.230,163.600,47.680,13.510,4.285,341.700,103.600,29.300,9.209,baseline
1468.000,337.400,89.440,22.690,1431.000,347.800,84.940,21.320,163.100,47.750,13.550,4.290,342.700,103.700,29.470,9.228,baseline
1469.000,338.800,89.710,22.760,1433.000,348.500,84.990,21.330,164.000,47.670,13.570,4.281,341.900,104.100,29.550,9.261,baseline
1472.000,339.000,90.080,22.760,1431.000,349.100,84.900,21.360,164.300,47.750,13.510,4.286,343.500,104.200,29.610,9.333,baseline
1475.000,338.900,90.150,22.890,1434.000,348.900,85.040,21.380,164.300,47.800,13.530,4.313,343.500,104.600,29.690,9.360,baseline
1479.000,339.700,90.810,23.000,1433.000,350.000,85.260,21.370,162.400,47.750,13.540,4.299,345.700,104.800,29.860,9.389,baseline
1481.000,340.600,90.360,22.870,1431.000,349.300,85.080,21.290,165.200,47.850,13.470,4.288,343.900,104.000,29.480,9.276,baseline
1474.000,339.800,89.790,22.750,1435.000,348.600,84.920,21.290,163.300,47.470,13.470,4.293,343.100,103.500,29.400,9.236,baseline
1472.000,338.100,89.620,22.730,1432.000,348.800,85.070,21.270,163.200,47.320,13.500,4.259,341.900,103.700,29.420,9.264,baseline
1474.000,338.200,89.690,22.790,1434.000,349.400,85.100,21.290,163.000,47.340,13.480,4.275,341.800,103.600,29.440,9.261,baseline
1475.000,340.300,89.740,22.820,1432.000,349.000,84.940,21.250,162.600,47.730,13.540,4.267,342.000,103.800,29.560,9.296,baseline
1478.000,339.900,90.150,22.850,1436.000,349.600,85.330,21.310,162.800,47.560,13.500,4.294,343.700,104.200,29.570,9.314,baseline
1480.000,341.400,90.320,22.950,1435.000,349.100,85.290,21.350,165.300,47.460,13.520,4.290,344.900,104.400,29.750,9.402,baseline
1485.000,343.100,90.580,23.070,1438.000,349.900,85.250,21.340,163.500,47.670,13.520,4.301,345.300,104.500,29.800,9.394,baseline
1481.000,341.100,90.300,22.900,1437.000,349.300,85.120,21.290,161.700,47.740,13.530,4.293,342.100,103.500,29.470,9.262,baseline
1477.000,340.700,89.790,22.790,1438.000,349.200,85.060,21.280,162.500,47.390,13.450,4.257,341.200,103.400,29.410,9.248,baseline
1476.000,339.600,89.710,22.830,1435.000,349.100,84.840,21.260,162.500,47.450,13.480,4.269,341.600,103.400,29.420,9.277,baseline
1478.000,339.600,90.050,22.760,1435.000,349.300,84.920,21.300,161.700,47.360,13.460,4.275,341.100,103.300,29.450,9.263,baseline
1478.000,340.300,90.440,22.840,1435.000,349.400,85.080,21.310,163.300,47.400,13.420,4.269,341.900,103.600,29.450,9.293,baseline
1481.000,339.500,90.280,22.960,1433.000,349.700,85.080,21.320,162.900,47.320,13.480,4.271,342.500,103.700,29.530,9.326,baseline
1483.000,341.700,90.670,23.080,1436.000,350.400,85.350,21.380,162.200,47.530,13.480,4.274,343.300,104.000,29.580,9.388,baseline
1488.000,343.300,91.000,23.010,1439.000,350.100,85.190,21.360,162.900,47.120,13.420,4.273,342.800,103.300,29.330,9.254,baseline
1481.000,341.000,90.150,22.880,1438.000,350.100,85.190,21.320,163.100,47.440,13.330,4.261,339.300,102.700,29.020,9.150,baseline
1479.000,341.700,90.240,22.830,1437.000,350.200,85.200,21.330,161.500,47.070,13.290,4.251,338.600,102.200,29.010,9.148,baseline
1479.000,340.900,90.080,22.810,1437.000,349.800,85.390,21.340,160.500,46.950,13.320,4.230,338.800,102.100,28.950,9.161,baseline
1480.000,340.200,90.280,22.830,1438.000,349.900,85.450,21.370,161.900,46.670,13.330,4.239,338.900,102.000,29.050,9.157,baseline
1480.000,340.700,90.220,22.890,1440.000,350.700,85.420,21.420,162.500,46.760,13.400,4.226,338.700,102.500,29.110,9.212,baseline
1482.000,341.700,90.460,22.930,1440.000,350.300,85.450,21.440,161.000,46.650,13.290,4.235,339.600,102.500,29.170,9.222,baseline
1483.000,341.800,90.770,22.940,1438.000,350.600,85.280,21.310,162.400,46.500,13.320,4.245,340.800,102.700,29.190,9.215,baseline
1475.000,338.800,89.900,22.620,1434.000,349.100,84.920,21.130,162.000,47.030,13.360,4.255,339.800,102.200,28.840,9.116,baseline
1470.000,338.100,89.450,22.530,1431.000,348.600,84.820,21.160,162.700,46.850,13.370,4.225,337.400,101.200,28.700,9.017,baseline
1468.000,337.400,89.490,22.560,1430.000,348.600,84.760,21.140,160.900,46.610,13.190,4.195,334.600,100.800,28.440,8.975,baseline
1468.000,337.700,89.350,22.520,1431.000,348.600,84.620,21.120,160.900,46.480,13.090,4.156,334.400,100.400,28.390,8.948,baseline
1469.000,338.500,89.230,22.550,1432.000,348.800,84.790,21.110,158.900,46.500,13.090,4.170,335.600,100.800,28.580,9.037,baseline
1472.000,338.900,89.680,22.570,1433.000,349.200,84.980,21.150,161.000,46.870,13.210,4.202,336.800,101.200,28.680,9.050,baseline
1473.000,339.000,89.730,22.640,1433.000,348.500,85.010,21.210,162.900,46.720,13.180,4.186,335.900,100.900,28.560,9.016,baseline
1475.000,339.400,89.600,22.780,1436.000,349.300,84.930,21.250,160.500,46.430,13.090,4.184,334.900,100.700,28.380,8.958,baseline
1468.000,337.600,89.600,22.570,1430.000,348.500,85.080,21.240,159.900,46.360,13.150,4.166,333.100,100.000,28.230,8.922,baseline
1465.000,336.100,89.140,22.510,1429.000,348.000,84.870,21.200,158.600,46.160,13.100,4.153,332.700,99.660,28.100,8.904,baseline
1464.000,337.400,89.180,22.490,1428.000,348.600,84.650,21.200,160.500,46.180,13.120,4.169,331.900,99.870,28.210,8.890,baseline
1466.000,336.800,89.470,22.530,1431.000,348.200,84.870,21.180,158.300,45.930,13.160,4.172,331.600,99.780,28.200,8.899,baseline
1467.000,338.000,89.090,22.600,1431.000,347.800,84.490,21.150,159.800,45.940,13.150,4.187,333.200,100.300,28.330,8.940,baseline
1464.000,336.000,88.940,22.580,1428.000,347.200,84.410,21.150,157.900,46.300,13.120,4.188,333.900,100.100,28.400,9.012,baseline
1464.000,337.400,89.180,22.680,1429.000,348.000,84.430,21.190,157.500,46.410,13.230,4.194,335.700,101.000,28.680,9.080,baseline
1468.000,339.200,89.100,22.530,1430.000,347.300,83.940,21.090,158.100,46.350,13.230,4.203,335.700,100.800,28.560,8.967,baseline
1458.000,334.800,87.990,22.390,1429.000,344.700,83.640,21.010,159.400,46.280,13.230,4.197,333.300,100.300,28.320,8.958,baseline
1454.000,334.400,87.400,22.310,1429.000,345.100,83.320,20.890,159.600,46.410,13.170,4.179,333.400,100.100,28.240,8.917,baseline
1450.000,330.800,86.960,22.000,1419.000,342.000,82.490,20.650,159.300,46.150,13.200,4.183,333.400,100.000,28.250,8.884,baseline
1440.000,328.400,86.460,21.890,1414.000,340.700,82.210,20.550,159.700,46.320,13.180,4.161,332.900,100.500,28.440,8.973,baseline
1437.000,329.900,87.190,22.010,1415.000,342.800,83.610,20.910,159.200,46.870,13.210,4.191,335.300,100.300,28.470,9.005,baseline
1453.000,333.800,88.700,22.470,1426.000,345.600,84.460,21.030,160.200,46.350,13.190,4.209,336.000,101.100,28.650,9.058,baseline
1463.000,337.500,88.930,22.510,1432.000,347.500,84.090,21.070,160.200,46.570,13.180,4.188,337.600,101.500,28.780,9.089,baseline
1469.000,336.700,88.580,22.350,1432.000,347.000,83.790,20.890,160.500,46.850,13.290,4.205,337.600,101.300,28.610,9.052,baseline
1462.000,334.700,88.260,22.250,1427.000,346.600,83.940,21.030,161.900,47.110,13.360,4.205,337.400,101.400,28.670,9.021,baseline
1461.000,335.700,88.950,22.290,1430.000,347.400,84.450,21.120,163.900,46.960,13.290,4.214,336.100,101.100,28.610,9.035,baseline
1463.000,337.200,89.130,22.450,1432.000,347.800,84.690,21.120,160.600,46.990,13.290,4.223,337.400,101.400,28.630,9.061,baseline
1465.000,338.900,89.290,22.570,1432.000,348.800,84.920,21.160,162.900,46.890,13.340,4.238,338.200,101.800,28.830,9.103,baseline
1470.000,337.800,89.360,22.660,1436.000,349.100,84.860,21.210,164.700,47.210,13.430,4.244,338.900,102.200,29.070,9.135,baseline
1475.000,340.400,89.790,22.750,1438.000,350.100,84.860,21.190,163.700,47.340,13.390,4.242,340.800,102.400,29.110,9.204,baseline
1477.000,340.200,89.970,22.690,1436.000,347.700,84.190,21.060,163.300,47.610,13.450,4.271,340.700,103.100,29.240,9.245,baseline
1473.000,337.800,89.050,22.500,1434.000,346.400,84.100,20.990,163.300,47.230,13.390,4.244,339.400,102.300,28.940,9.121,baseline
1466.000,335.400,88.950,22.420,1434.000,346.900,83.890,20.970,164.200,47.230,13.370,4.239,337.200,101.800,28.850,9.098,baseline
1464.000,334.900,88.510,22.360,1430.000,345.700,83.820,20.960,162.800,47.410,13.390,4.225,337.300,101.900,28.890,9.084,baseline
1464.000,335.400,88.820,22.410,1427.000,346.000,83.950,21.000,163.000,47.280,13.370,4.228,338.300,102.100,28.930,9.149,baseline
1464.000,334.800,88.830,22.500,1431.000,346.900,84.270,21.080,163.300,47.020,13.400,4.234,338.800,102.300,29.060,9.181,baseline
1468.000,336.600,89.070,22.610,1431.000,347.500,84.260,21.090,163.500,47.270,13.420,4.233,340.000,102.900,29.220,9.198,baseline
1471.000,338.900,89.380,22.720,1433.000,347.300,84.470,21.130,164.100,47.480,13.450,4.246,341.100,103.300,29.400,9.255,baseline
1473.000,339.300,89.740,22.810,1433.000,348.400,84.390,21.170,163.700,47.550,13.480,4.274,342.100,103.500,29.490,9.296,baseline
1477.000,339.400,89.600,22.710,1429.000,347.000,84.140,21.050,163.800,47.650,13.450,4.256,341.400,103.400,29.120,9.221,baseline
1466.000,336.100,88.860,22.600,1429.000,346.600,83.900,21.050,163.900,47.360,13.460,4.228,340.600,102.700,29.100,9.145,baseline
1463.000,335.700,88.650,22.560,1429.000,346.600,83.830,21.050,163.200,47.460,13.320,4.239,340.200,102.700,29.050,9.173,baseline
1463.000,336.400,88.830,22.540,1428.000,345.700,83.740,21.090,163.300,47.480,13.470,4.255,340.900,103.000,29.170,9.199,baseline
1465.000,336.000,89.100,22.690,1429.000,345.900,83.990,21.090,163.600,47.550,13.440,4.239,341.100,103.200,29.320,9.236,baseline
1465.000,336.500,89.090,22.680,1428.000,345.200,83.770,21.010,165.100,47.370,13.450,4.244,341.600,103.300,29.310,9.258,baseline
1467.000,336.400,89.140,22.730,1428.000,345.900,83.740,21.050,165.400,47.470,13.520,4.265,342.800,103.700,29.640,9.308,baseline
1472.000,338.200,89.640,22.910,1427.000,346.500,84.020,21.100,164.500,47.710,13.530,4.256,343.500,104.100,29.690,9.406,baseline
1473.000,339.300,89.920,22.920,1425.000,346.600,83.970,21.030,166.900,48.540,13.710,4.318,349.000,105.000,29.680,9.375,baseline
1465.000,336.900,89.100,22.720,1424.000,345.800,83.750,21.050,169.200,48.740,13.670,4.295,344.600,104.100,29.380,9.301,baseline
1464.000,336.800,89.080,22.770,1425.000,345.900,83.830,20.950,167.600,48.400,13.700,4.310,345.400,105.100,29.730,9.403,baseline
1463.000,335.800,88.750,22.640,1419.000,343.500,83.330,20.840,169.500,49.060,13.810,4.339,349.300,105.100,29.920,9.366,baseline
1457.000,335.000,88.740,22.570,1417.000,344.100,83.360,20.920,168.200,48.870,13.790,4.334,346.100,104.500,29.610,9.372,baseline
1462.000,336.600,89.290,22.730,1418.000,344.200,83.690,21.000,164.900,48.430,13.640,4.311,344.900,104.400,29.710,9.418,baseline
1465.000,338.300,89.560,22.890,1421.000,345.800,83.910,21.080,166.300,48.380,13.640,4.313,346.000,104.800,29.950,9.445,baseline
1468.000,338.200,89.790,22.980,1426.000,345.700,83.920,21.120,164.700,48.330,13.610,4.321,346.500,105.000,29.970,9.498,baseline
1469.000,338.600,89.500,22.820,1427.000,345.600,83.750,21.080,164.600,48.180,13.600,4.301,344.000,104.600,29.650,9.379,baseline
1462.000,336.000,89.230,22.730,1420.000,345.100,83.710,21.080,165.400,48.080,13.590,4.283,343.800,104.200,29.590,9.330,baseline
1461.000,334.700,89.360,22.790,1419.000,344.500,83.880,21.060,165.700,47.890,13.620,4.278,344.700,104.100,29.700,9.345,baseline
1461.000,336.100,89.290,22.840,1420.000,345.300,83.750,21.030,163.700,48.270,13.570,4.296,343.200,104.200,29.670,9.351,baseline
1463.000,337.400,89.450,22.850,1419.000,345.800,83.840,21.080,164.800,48.160,13.610,4.290,344.200,104.700,29.810,9.414,baseline
1466.000,339.000,89.650,22.990,1421.000,346.200,83.960,21.120,167.400,48.010,13.630,4.300,345.900,104.900,29.940,9.475,baseline
1469.000,339.500,89.860,23.080,1421.000,346.600,84.140,21.140,165.500,48.290,13.660,4.309,346.700,105.200,30.020,9.526,baseline
1472.000,340.600,90.230,23.100,1424.000,346.100,83.950,21.120,164.300,48.220,13.610,4.318,346.600,104.800,29.890,9.417,baseline
1462.000,337.800,89.370,22.830,1420.000,345.200,83.980,21.040,164.000,48.180,13.540,4.290,343.900,104.300,29.720,9.370,baseline
1460.000,337.600,89.010,22.720,1420.000,344.900,83.670,21.010,164.500,47.900,13.580,4.287,343.200,104.000,29.550,9.316,baseline
1458.000,336.600,89.130,22.770,1418.000,345.400,83.840,21.050,165.400,47.970,13.620,4.275,343.600,104.100,29.640,9.366,baseline
1460.000,337.400,89.250,22.740,1419.000,345.400,83.950,21.050,165.700,47.830,13.570,4.275,342.000,104.100,29.580,9.333,baseline
1462.000,337.500,89.600,22.890,1420.000,345.900,84.130,21.090,165.100,48.060,13.590,4.296,343.300,104.200,29.610,9.366,baseline
1465.000,338.000,89.530,22.930,1424.000,346.300,84.130,21.160,164.300,47.950,13.550,4.280,343.400,104.500,29.710,9.430,baseline
1468.000,338.400,90.310,23.060,1423.000,346.700,84.530,21.240,166.100,47.820,13.590,4.267,344.600,104.700,29.910,9.480,baseline
1470.000,338.100,89.860,22.930,1420.000,346.300,84.330,21.150,165.000,47.610,13.530,4.286,343.600,104.200,29.580,9.311,baseline
1461.000,336.600,89.400,22.760,1418.000,346.200,84.050,21.130,163.500,47.810,13.530,4.273,341.500,103.300,29.370,9.285,baseline
1458.000,335.700,89.180,22.680,1419.000,346.200,84.170,21.060,163.600,47.610,13.450,4.256,340.600,103.100,29.470,9.278,baseline
1458.000,336.500,89.000,22.760,1419.000,345.800,84.070,21.100,164.400,47.360,13.440,4.257,340.600,103.200,29.410,9.269,baseline
1457.000,336.300,88.740,22.750,1418.000,345.200,83.990,21.150,161.900,47.670,13.520,4.245,340.300,103.400,29.390,9.305,baseline
1459.000,336.000,89.380,22.800,1421.000,345.600,84.230,21.130,164.600,47.520,13.510,4.259,341.900,103.700,29.500,9.357,baseline
1462.000,337.700,89.430,22.860,1421.000,345.800,84.080,21.150,165.500,47.770,13.520,4.268,342.000,103.900,29.630,9.401,baseline
1464.000,338.000,89.670,22.920,1420.000,346.200,83.980,21.070,163.600,47.770,13.550,4.288,343.000,104.400,29.710,9.388,baseline
1460.000,336.300,89.040,22.690,1421.000,344.400,83.820,20.980,163.800,47.830,13.560,4.280,340.600,103.300,29.370,9.297,baseline
1452.000,335.200,88.670,22.570,1416.000,344.300,83.530,20.980,163.100,47.520,13.450,4.250,338.400,102.700,29.340,9.241,baseline
1450.000,334.500,88.180,22.410,1415.000,344.400,83.540,20.960,162.800,47.450,13.490,4.256,338.700,102.900,29.290,9.244,baseline
1450.000,333.700,88.130,22.370,1415.000,343.700,83.510,20.910,164.200,47.600,13.470,4.253,338.900,102.800,29.180,9.232,baseline
1451.000,333.000,88.360,22.510,1417.000,344.300,83.440,20.990,165.000,47.680,13.550,4.240,338.400,102.600,29.300,9.270,baseline
1456.000,335.300,88.680,22.590,1418.000,344.900,83.680,21.020,162.600,47.610,13.450,4.244,338.800,103.000,29.370,9.311,baseline
1459.000,337.400,89.270,22.790,1419.000,345.700,84.070,21.120,163.300,47.510,13.470,4.261,340.200,103.300,29.420,9.294,baseline
1463.000,338.200,89.540,22.870,1422.000,346.100,84.160,21.150,164.500,47.620,13.510,4.273,340.700,103.300,29.490,9.319,baseline
1457.000,336.700,88.940,22.580,1420.000,345.900,84.140,21.100,164.000,47.390,13.470,4.260,338.100,102.600,29.220,9.226,baseline
1454.000,335.400,88.760,22.640,1420.000,345.400,84.140,21.070,163.300,47.440,13.420,4.257,337.400,102.300,29.150,9.190,baseline
1453.000,334.800,88.720,22.540,1419.000,346.100,84.130,21.110,162.100,47.660,13.430,4.254,337.300,101.900,29.210,9.208,baseline
1453.000,334.100,88.920,22.600,1421.000,345.900,84.130,21.110,163.400,47.530,13.450,4.248,337.200,102.100,29.230,9.219,baseline
1454.000,336.500,88.890,22.630,1419.000,345.800,84.100,21.130,162.600,47.530,13.520,4.248,337.700,102.600,29.300,9.267,baseline
1457.000,336.600,89.430,22.700,1419.000,346.600,84.450,21.160,162.000,47.420,13.500,4.265,338.700,102.800,29.420,9.304,baseline
1461.000,338.300,89.960,22.800,1420.000,346.400,84.400,21.240,163.800,47.820,13.540,4.276,340.100,103.400,29.570,9.383,baseline
1464.000,338.200,89.640,22.840,1419.000,346.600,84.340,21.150,163.100,47.510,13.540,4.286,339.900,102.800,29.250,9.229,baseline
1456.000,336.200,89.100,22.560,1420.000,345.800,84.130,21.090,165.300,47.370,13.500,4.247,337.600,102.100,29.170,9.167,baseline
1452.000,336.000,88.730,22.550,1420.000,345.200,84.160,21.120,163.800,47.390,13.480,4.237,336.300,102.000,29.160,9.174,baseline
1453.000,335.700,88.780,22.480,1420.000,345.700,84.010,21.080,162.600,47.450,13.450,4.247,336.500,102.100,29.100,9.209,baseline
1453.000,335.600,88.540,22.550,1418.000,345.800,84.200,21.120,161.200,47.360,13.500,4.255,337.100,102.400,29.200,9.256,baseline
1455.000,337.500,89.190,22.570,1421.000,346.100,84.190,21.190,164.200,47.470,13.510,4.259,337.800,102.600,29.370,9.262,baseline
1458.000,338.100,89.440,22.660,1422.000,347.100,84.330,21.190,163.100,47.700,13.570,4.280,338.600,103.200,29.310,9.300,baseline
1462.000,339.200,89.520,22.710,1423.000,346.500,84.370,21.250,163.600,47.830,13.550,4.289,339.800,103.500,29.540,9.371,baseline
1463.000,337.800,89.220,22.660,1421.000,347.100,84.320,21.140,164.900,47.710,13.550,4.274,339.000,102.600,29.270,9.260,baseline
1454.000,335.900,88.940,22.550,1423.000,346.100,84.280,21.140,165.800,47.620,13.530,4.266,338.100,102.200,29.190,9.180,baseline
1451.000,335.500,88.660,22.470,1421.000,345.600,84.210,21.140,165.300,47.770,13.460,4.285,336.400,101.900,29.140,9.163,baseline
1451.000,334.400,88.530,22.510,1420.000,346.400,84.250,21.150,165.000,47.480,13.560,4.290,337.400,102.300,29.170,9.196,baseline
1452.000,334.600,88.470,22.520,1422.000,346.500,84.360,21.150,164.400,47.840,13.520,4.263,337.400,102.500,29.200,9.273,baseline
1454.000,335.800,88.730,22.630,1419.000,346.800,84.500,21.210,162.800,47.700,13.550,4.295,337.100,102.600,29.240,9.300,baseline
1458.000,336.100,89.270,22.610,1423.000,346.000,84.630,21.240,163.400,47.950,13.550,4.294,340.100,103.100,29.440,9.316,baseline
1460.000,337.200,89.370,22.750,1423.000,347.300,84.680,21.240,164.600,47.650,13.560,4.300,340.000,103.500,29.670,9.375,baseline
1461.000,336.800,89.140,22.590,1422.000,346.400,84.290,21.140,164.800,47.900,13.560,4.316,338.200,102.400,29.250,9.231,baseline
1453.000,334.800,88.330,22.470,1417.000,345.500,84.250,21.130,163.000,47.670,13.540,4.280,337.300,102.100,29.050,9.139,baseline
1449.000,333.400,88.370,22.360,1416.000,344.900,84.260,21.100,163.600,47.490,13.530,4.259,335.900,102.000,29.080,9.172,baseline
1451.000,334.400,88.340,22.420,1416.000,345.800,84.180,21.120,163.300,47.620,13.520,4.269,337.200,102.100,29.080,9.202,baseline
1453.000,335.600,88.230,22.430,1417.000,346.000,84.210,21.140,162.500,48.100,13.540,4.291,337.100,102.100,29.230,9.200,baseline
1456.000,335.500,88.810,22.490,1419.000,346.500,84.350,21.200,164.600,47.730,13.540,4.289,338.000,102.300,29.360,9.288,baseline
1459.000,336.100,88.920,22.570,1424.000,345.800,84.320,21.210,165.200,47.680,13.610,4.304,339.900,102.700,29.540,9.336,baseline
1461.000,337.200,89.380,22.700,1421.000,347.100,84.620,21.240,165.400,47.660,13.600,4.295,340.200,103.500,29.550,9.315,baseline
1460.000,337.100,88.700,22.450,1420.000,345.300,84.330,21.150,164.600,47.770,13.620,4.294,338.000,102.500,29.210,9.224,baseline
1454.000,334.600,88.320,22.410,1418.000,345.900,84.290,21.150,164.400,47.880,13.540,4.278,336.300,102.000,29.120,9.226,baseline
1452.000,333.900,88.500,22.390,1418.000,345.900,84.330,21.190,163.200,47.830,13.540,4.293,336.500,102.000,29.140,9.180,baseline
1454.000,334.600,88.490,22.490,1422.000,345.900,84.390,21.210,163.800,47.800,13.540,4.270,337.000,102.000,29.120,9.240,baseline
1456.000,336.100,88.870,22.490,1424.000,346.800,84.580,21.230,164.100,47.630,13.540,4.282,337.400,102.500,29.270,9.249,baseline
1459.000,335.900,89.090,22.590,1424.000,347.700,84.790,21.320,163.500,47.840,13.570,4.295,338.900,102.800,29.280,9.306,baseline
1463.000,337.600,89.470,22.640,1422.000,347.500,84.880,21.370,163.900,48.010,13.620,4.300,339.300,102.900,29.540,9.344,baseline
1466.000,338.300,89.880,22.770,1425.000,347.800,84.760,21.320,165.500,47.660,13.670,4.297,340.300,103.200,29.400,9.250,baseline
1458.000,336.900,89.200,22.560,1421.000,347.300,84.620,21.300,162.800,47.550,13.570,4.264,337.500,102.100,29.090,9.176,baseline
1457.000,335.500,88.900,22.550,1420.000,348.000,84.710,21.270,163.300,47.630,13.510,4.266,336.400,101.900,29.020,9.176,baseline
1456.000,335.400,88.960,22.500,1420.000,347.000,84.630,21.250,162.800,47.700,13.570,4.279,338.200,102.100,29.110,9.166,baseline
1457.000,336.400,88.790,22.520,1420.000,346.900,84.840,21.330,164.800,47.610,13.560,4.287,338.000,102.800,29.210,9.209,baseline
1458.000,336.700,88.850,22.570,1423.000,346.200,84.740,21.320,165.400,48.610,13.740,4.334,342.600,103.600,29.600,9.301,baseline
1461.000,336.600,89.340,22.680,1422.000,347.600,84.830,21.380,167.800,48.140,13.770,4.322,341.400,103.400,29.530,9.321,baseline
1465.000,338.400,89.590,22.760,1425.000,347.800,85.060,21.380,166.200,48.120,13.730,4.305,341.000,103.600,29.610,9.343,baseline
1468.000,339.200,89.910,22.820,1426.000,347.600,84.860,21.360,163.500,48.430,13.650,4.334,341.300,103.700,29.480,9.281,baseline
1461.000,336.600,89.120,22.540,1423.000,346.100,84.720,21.300,165.200,48.300,13.660,4.309,339.700,102.900,29.260,9.185,baseline
1457.000,336.700,88.970,22.500,1424.000,347.500,84.810,21.350,166.200,47.930,13.620,4.305,337.400,102.300,29.140,9.164,baseline
1456.000,336.300,89.010,22.610,1423.000,347.500,84.690,21.350,164.500,47.920,13.570,4.300,337.700,102.400,29.140,9.209,baseline
1456.000,335.400,89.230,22.570,1424.000,347.900,84.940,21.390,165.800,47.770,13.620,4.295,338.200,102.700,29.190,9.238,baseline
1460.000,336.600,89.320,22.610,1423.000,347.600,85.010,21.420,166.500,47.920,13.610,4.310,339.500,103.200,29.410,9.299,baseline
1462.000,335.900,89.130,22.710,1424.000,347.800,85.040,21.380,164.300,48.250,13.710,4.320,341.000,103.100,29.480,9.293,baseline
1464.000,338.100,89.580,22.770,1427.000,347.400,84.960,21.420,166.800,48.030,13.700,4.331,340.500,103.600,29.580,9.349,baseline
1467.000,338.000,89.600,22.750,1425.000,348.000,84.850,21.320,167.300,48.170,13.760,4.342,341.000,103.100,29.310,9.251,baseline
1458.000,335.500,88.890,22.510,1422.000,346.900,84.810,21.280,165.600,48.290,13.660,4.309,339.200,102.700,29.110,9.164,baseline
1456.000,335.600,88.830,22.430,1420.000,346.800,84.610,21.320,164.800,48.280,13.710,4.301,338.400,102.400,29.170,9.176,baseline
1456.000,334.800,88.880,22.460,1424.000,346.600,84.850,21.350,166.300,48.030,13.670,4.315,339.200,102.400,29.190,9.170,baseline
1458.000,335.200,89.090,22.540,1424.000,346.600,84.850,21.340,163.300,47.890,13.690,4.322,338.700,102.600,29.260,9.190,baseline
1459.000,336.100,89.160,22.510,1423.000,347.600,84.960,21.390,166.000,48.350,13.670,4.328,339.200,103.000,29.300,9.244,baseline
1461.000,336.900,89.310,22.670,1424.000,347.800,85.100,21.430,166.600,48.130,13.730,4.331,340.800,103.100,29.430,9.341,baseline
1465.000,339.100,89.780,22.730,1424.000,348.100,85.160,21.470,166.000,48.270,13.770,4.350,341.200,103.700,29.540,9.363,baseline
1468.000,339.200,89.530,22.760,1423.000,347.900,85.040,21.350,165.200,48.210,13.750,4.347,341.400,103.300,29.540,9.254,baseline
1459.000,334.600,88.990,22.530,1422.000,348.000,85.000,21.330,163.700,48.400,13.680,4.333,340.000,102.600,29.170,9.215,baseline
1459.000,335.500,88.850,22.470,1422.000,347.300,84.690,21.360,165.600,47.850,13.700,4.313,337.200,102.400,29.020,9.200,baseline
1458.000,334.700,88.780,22.520,1421.000,347.200,84.970,21.350,163.800,48.180,13.650,4.311,337.600,102.400,29.200,9.210,baseline
1458.000,336.900,89.150,22.540,1421.000,347.400,84.960,21.390,166.100,48.060,13.710,4.336,339.600,102.600,29.270,9.211,baseline
1460.000,336.000,89.200,22.630,1422.000,346.800,84.950,21.410,165.300,48.240,13.720,4.339,339.100,102.800,29.210,9.248,baseline
1461.000,335.200,89.450,22.630,1423.000,347.700,85.020,21.450,164.900,48.300,13.690,4.333,339.800,103.100,29.430,9.268,baseline
1466.000,337.000,89.790,22.780,1427.000,347.700,85.040,21.450,166.600,48.220,13.720,4.349,341.100,103.400,29.560,9.353,baseline
1469.000,337.700,89.900,22.720,1425.000,347.900,85.100,21.390,165.200,48.190,13.780,4.345,339.600,103.100,29.300,9.187,baseline
1461.000,334.600,89.210,22.580,1421.000,347.400,84.900,21.420,165.500,48.200,13.690,4.339,337.000,102.100,29.160,9.168,baseline
1459.000,334.700,88.930,22.470,1422.000,347.400,84.970,21.440,164.000,47.730,13.690,4.324,338.100,102.200,29.090,9.207,baseline
1460.000,336.700,89.390,22.600,1422.000,347.500,85.030,21.460,164.600,47.890,13.700,4.318,337.800,102.400,29.150,9.203,baseline
1461.000,336.800,88.890,22.680,1423.000,348.300,85.110,21.480,165.400,47.990,13.740,4.330,338.700,102.800,29.230,9.222,baseline
1464.000,337.500,89.460,22.740,1421.000,348.600,85.060,21.480,164.900,48.070,13.750,4.340,339.700,103.100,29.470,9.292,baseline
1466.000,338.200,89.360,22.770,1425.000,348.500,85.110,21.490,166.600,48.170,13.740,4.343,340.500,103.500,29.520,9.326,baseline
1469.000,338.900,89.700,22.900,1425.000,348.500,85.440,21.500,165.300,48.430,13.830,4.369,341.600,104.100,29.640,9.387,baseline
1468.000,337.800,89.510,22.620,1426.000,347.900,84.990,21.380,165.700,48.570,13.810,4.371,340.900,103.200,29.310,9.237,baseline
1460.000,336.600,88.780,22.570,1424.000,346.900,84.870,21.400,166.800,48.120,13.750,4.346,339.300,102.700,29.180,9.206,baseline
1459.000,336.400,88.810,22.550,1424.000,347.600,84.790,21.370,165.600,48.180,13.740,4.339,339.900,102.600,29.190,9.238,baseline
1459.000,336.600,88.720,22.550,1425.000,347.300,84.960,21.410,164.900,48.380,13.840,4.385,340.900,103.300,29.420,9.258,baseline
1460.000,336.300,88.820,22.580,1425.000,348.000,85.020,21.400,167.600,48.850,13.890,4.381,342.500,103.700,29.500,9.292,baseline
1462.000,336.600,89.470,22.760,1424.000,347.900,85.000,21.500,167.000,48.860,13.920,4.380,341.300,103.500,29.540,9.280,baseline
1467.000,338.200,89.920,22.790,1424.000,348.300,85.210,21.530,166.200,48.540,13.810,4.374,341.300,103.500,29.400,9.351,baseline
1468.000,339.400,90.200,22.890,1425.000,349.100,85.340,21.490,166.100,48.410,13.800,4.390,341.800,103.800,29.610,9.310,baseline
1465.000,336.800,89.550,22.640,1423.000,348.300,85.080,21.450,166.900,48.410,13.800,4.359,338.900,102.700,29.170,9.185,baseline
1461.000,336.300,89.260,22.580,1422.000,347.900,84.980,21.420,165.900,48.300,13.770,4.358,338.300,102.700,29.100,9.164,baseline
1460.000,336.300,89.030,22.610,1420.000,347.600,85.090,21.470,164.700,48.390,13.750,4.350,339.000,102.600,29.310,9.185,baseline
1460.000,336.300,89.200,22.640,1427.000,349.100,85.190,21.490,165.500,48.270,13.790,4.355,338.400,102.800,29.100,9.232,baseline
1462.000,336.700,89.250,22.650,1425.000,348.500,85.350,21.560,167.100,48.030,13.710,4.345,339.400,103.100,29.200,9.230,baseline
1466.000,338.400,89.570,22.790,1427.000,349.200,85.570,21.560,164.900,48.220,13.770,4.349,339.900,103.200,29.270,9.264,baseline
1470.000,339.100,89.740,22.890,1429.000,349.800,85.690,21.610,165.800,48.310,13.840,4.367,341.300,103.500,29.390,9.339,baseline
1473.000,339.400,90.320,22.900,1427.000,350.100,85.440,21.570,165.600,48.420,13.840,4.388,340.800,103.300,29.270,9.233,baseline
1466.000,338.600,89.430,22.630,1429.000,349.000,85.300,21.510,166.100,48.260,13.830,4.360,339.600,102.700,29.240,9.164,baseline
1463.000,336.700,89.350,22.640,1426.000,348.900,85.320,21.510,165.000,48.400,13.780,4.356,338.300,102.300,29.190,9.148,baseline
1463.000,336.000,89.270,22.650,1423.000,349.100,85.440,21.540,166.200,48.360,13.740,4.359,338.800,102.400,28.890,9.140,baseline
1465.000,336.900,89.310,22.660,1424.000,349.500,85.320,21.560,164.800,48.170,13.740,4.344,338.400,102.400,29.040,9.181,baseline
1465.000,337.800,89.410,22.720,1426.000,349.100,85.380,21.560,164.200,48.190,13.740,4.355,340.000,102.700,29.260,9.214,baseline
1469.000,338.100,89.740,22.810,1426.000,349.700,85.630,21.570,165.500,48.480,13.820,4.381,341.400,103.600,29.460,9.283,baseline
1472.000,339.100,90.040,22.870,1429.000,349.700,85.760,21.620,165.400,48.650,13.880,4.404,341.800,103.900,29.510,9.315,baseline
1473.000,340.000,89.530,22.770,1429.000,349.000,85.440,21.560,166.300,48.590,13.800,4.374,339.700,102.800,29.210,9.207,baseline
1464.000,338.000,89.190,22.620,1429.000,348.200,85.310,21.510,165.900,47.980,13.730,4.369,338.800,102.300,29.150,9.177,baseline
1462.000,337.000,88.970,22.550,1427.000,348.900,85.300,21.500,165.000,48.130,13.810,4.376,338.600,102.600,29.220,9.172,baseline
1465.000,337.200,89.150,22.570,1429.000,349.500,85.330,21.520,165.700,48.780,13.810,4.386,339.100,102.600,29.210,9.173,baseline
1466.000,337.000,89.360,22.620,1425.000,349.000,85.410,21.570,166.400,48.440,13.850,4.377,340.300,102.900,29.220,9.245,baseline
1468.000,338.900,89.320,22.680,1432.000,349.900,85.560,21.550,166.300,48.390,13.870,4.391,341.000,103.400,29.390,9.276,baseline
1471.000,339.200,90.020,22.800,1430.000,350.200,85.840,21.630,164.900,48.430,13.880,4.415,341.300,103.700,29.580,9.316,baseline
1474.000,339.500,90.110,22.850,1430.000,350.500,85.850,21.650,165.600,48.490,13.920,4.387,342.800,103.800,29.620,9.358,baseline
1473.000,339.400,89.710,22.720,1429.000,349.500,85.450,21.590,166.900,48.640,13.830,4.397,340.600,103.000,29.310,9.241,baseline
1466.000,337.900,89.260,22.620,1427.000,349.400,85.410,21.530,164.500,48.510,13.830,4.385,338.900,102.800,29.210,9.211,baseline
1466.000,337.600,89.360,22.620,1427.000,349.300,85.540,21.560,165.600,48.240,13.820,4.371,338.800,103.000,29.220,9.231,baseline
1467.000,336.700,89.180,22.650,1426.000,348.700,85.460,21.550,167.000,48.390,13.860,4.377,338.800,102.900,29.290,9.221,baseline
1467.000,338.000,89.470,22.690,1426.000,350.100,85.570,21.550,164.200,48.130,13.860,4.399,338.900,102.900,29.480,9.256,baseline
1471.000,338.500,89.750,22.670,1429.000,350.200,85.550,21.600,168.300,48.660,13.900,4.409,341.900,103.600,29.530,9.307,baseline
1474.000,340.000,89.810,22.770,1428.000,349.900,85.720,21.590,168.300,48.790,13.930,4.429,342.200,103.900,29.590,9.365,baseline
1475.000,340.800,89.990,22.730,1429.000,350.500,85.440,21.450,166.700,48.910,13.930,4.412,342.600,104.200,29.500,9.313,baseline
1469.000,337.600,88.940,22.500,1426.000,348.900,85.210,21.400,166.100,48.900,13.940,4.412,340.700,103.000,29.230,9.192,baseline
1465.000,336.700,88.910,22.430,1421.000,348.200,85.160,21.420,167.200,48.320,13.810,4.376,338.500,102.600,29.150,9.144,baseline
1464.000,337.100,88.990,22.460,1424.000,348.500,85.040,21.480,165.900,48.300,13.820,4.373,338.000,102.400,29.130,9.204,baseline
1465.000,336.000,89.150,22.530,1427.000,349.400,85.160,21.470,166.700,48.410,13.790,4.379,337.900,102.400,29.160,9.157,baseline
1466.000,336.600,89.170,22.540,1427.000,349.300,85.170,21.500,164.600,48.000,13.710,4.347,336.800,101.600,28.870,9.107,baseline
1469.000,338.200,89.080,22.620,1426.000,349.500,85.300,21.550,164.000,47.560,13.550,4.294,334.300,101.100,28.800,9.059,baseline
1471.000,338.800,89.430,22.660,1428.000,349.300,85.390,21.540,162.600,47.210,13.530,4.270,334.900,101.200,28.750,9.076,baseline
1474.000,339.300,89.650,22.770,1429.000,349.400,85.520,21.570,162.500,47.420,13.530,4.294,335.400,101.500,28.830,9.078,baseline
1466.000,336.700,89.100,22.580,1428.000,348.900,85.460,21.540,162.400,47.580,13.560,4.293,335.000,101.000,28.580,9.031,baseline
1463.000,336.300,88.810,22.450,1429.000,348.000,85.280,21.550,164.500,47.940,13.570,4.314,333.900,101.300,28.910,9.059,baseline
1463.000,337.400,88.880,22.490,1423.000,349.200,85.350,21.560,164.200,47.870,13.660,4.334,335.000,101.500,28.920,9.094,baseline
1464.000,336.900,88.710,22.530,1428.000,349.100,85.330,21.540,163.500,47.900,13.690,4.348,335.900,102.000,28.930,9.105,baseline
1465.000,338.100,89.350,22.570,1423.000,349.500,85.470,21.550,165.400,48.030,13.690,4.346,336.400,102.200,29.050,9.128,baseline
1467.000,337.900,89.140,22.660,1427.000,349.300,85.470,21.600,163.500,47.850,13.750,4.372,337.600,102.400,29.150,9.211,baseline
1470.000,338.800,89.560,22.740,1428.000,349.500,85.660,21.610,163.700,48.260,13.720,4.388,338.400,102.500,29.220,9.240,baseline
1471.000,339.200,89.650,22.740,1428.000,350.000,85.750,21.640,166.200,48.180,13.790,4.387,340.600,103.000,29.400,9.243,baseline
1467.000,338.300,89.080,22.570,1424.000,348.500,85.570,21.580,166.000,48.500,13.800,4.371,337.600,102.100,29.050,9.126,baseline
1463.000,336.200,88.980,22.470,1426.000,348.400,85.500,21.510,165.000,48.250,13.780,4.370,336.100,101.600,28.890,9.092,baseline
1460.000,335.600,88.900,22.460,1427.000,349.200,85.540,21.560,165.600,48.040,13.830,4.364,336.700,102.200,29.000,9.111,baseline
1462.000,336.600,89.100,22.510,1424.000,348.800,85.700,21.600,164.000,48.420,13.760,4.381,336.400,101.900,29.170,9.149,baseline
1463.000,336.400,89.190,22.570,1427.000,348.600,85.610,21.620,165.200,48.230,13.800,4.385,337.600,102.200,29.220,9.170,baseline
1466.000,337.900,89.350,22.690,1426.000,348.900,85.560,21.640,164.600,48.230,13.820,4.375,337.900,102.600,29.290,9.212,baseline
1467.000,338.200,89.440,22.740,1431.000,349.900,85.790,21.650,164.900,48.310,13.830,4.394,339.500,103.100,29.420,9.255,baseline
1470.000,338.700,90.000,22.830,1429.000,350.100,85.910,21.730,165.400,48.300,13.830,4.407,339.900,103.200,29.420,9.315,baseline
1473.000,339.300,89.900,22.800,1431.000,349.200,85.800,21.640,166.300,48.340,13.910,4.394,340.100,102.900,29.280,9.225,baseline
1466.000,337.500,89.480,22.610,1427.000,349.300,85.660,21.650,164.300,48.220,13.800,4.371,337.400,102.200,28.980,9.143,baseline
1462.000,336.800,89.350,22.590,1426.000,349.500,85.760,21.570,165.200,47.920,13.800,4.360,337.500,101.900,29.030,9.144,baseline
1463.000,336.500,89.220,22.610,1427.000,348.100,85.670,21.650,166.500,48.200,13.820,4.389,337.600,102.300,29.200,9.127,baseline
1462.000,336.000,89.300,22.630,1427.000,349.200,85.570,21.600,163.600,48.330,13.780,4.386,338.300,102.200,29.130,9.154,baseline
1465.000,337.400,89.540,22.650,1429.000,349.700,85.760,21.660,165.400,48.430,13.820,4.389,338.800,102.400,29.250,9.204,baseline
1467.000,337.700,89.440,22.810,1427.000,350.100,85.660,21.680,165.600,48.200,13.850,4.400,339.300,103.000,29.330,9.298,baseline
1470.000,339.900,89.910,22.810,1430.000,350.300,85.880,21.700,164.400,48.490,13.860,4.421,340.200,103.500,29.550,9.303,baseline
1474.000,339.600,90.400,22.910,1432.000,350.200,85.920,21.690,164.400,48.270,13.870,4.420,341.600,103.300,29.320,9.233,baseline
1468.000,338.300,89.680,22.640,1430.000,349.600,85.760,21.620,165.500,48.350,13.840,4.387,339.200,102.600,29.240,9.178,baseline
1465.000,338.000,89.550,22.660,1428.000,349.100,85.570,21.640,165.200,48.330,13.810,4.372,338.200,102.200,29.110,9.172,baseline
1464.000,337.300,89.320,22.700,1428.000,349.500,85.820,21.640,164.700,48.340,13.810,4.388,338.500,102.600,29.160,9.161,baseline
1465.000,337.800,89.420,22.650,1427.000,350.100,85.710,21.690,163.800,48.290,13.820,4.380,338.600,102.500,29.200,9.181,baseline
1466.000,337.300,89.820,22.780,1427.000,349.900,85.740,21.680,165.700,48.340,13.800,4.390,340.000,102.900,29.220,9.270,baseline
1468.000,340.000,89.930,22.880,1427.000,350.100,86.020,21.730,166.000,48.200,13.850,4.408,340.500,103.300,29.430,9.283,baseline
1470.000,338.500,90.320,22.910,1428.000,350.500,86.060,21.780,165.600,48.450,13.920,4.419,341.200,103.600,29.510,9.310,baseline
1474.000,340.300,90.310,22.920,1428.000,349.900,85.910,21.680,166.600,48.390,13.910,4.409,339.400,103.100,29.290,9.214,baseline
1465.000,337.700,89.480,22.760,1426.000,350.000,85.680,21.630,165.500,48.200,13.850,4.398,338.300,102.300,29.180,9.175,baseline
1462.000,336.900,89.450,22.650,1427.000,349.300,85.670,21.660,165.600,48.330,13.840,4.393,338.300,102.500,29.090,9.190,baseline
1463.000,337.500,89.640,22.660,1424.000,349.600,85.890,21.670,166.100,47.980,13.830,4.381,338.200,102.400,29.070,9.178,baseline
1464.000,337.000,89.410,22.720,1429.000,349.500,85.790,21.710,165.800,48.520,13.860,4.390,338.400,102.800,29.200,9.193,baseline
1466.000,336.800,89.810,22.810,1427.000,349.700,85.850,21.740,165.600,48.250,13.840,4.383,338.900,102.800,29.350,9.212,baseline
1467.000,338.300,90.020,22.840,1426.000,349.500,85.900,21.700,164.500,48.550,13.860,4.396,340.000,103.200,29.460,9.277,baseline
1469.000,338.000,90.300,22.880,1427.000,350.300,85.860,21.650,166.300,48.270,13.820,4.402,339.100,102.800,29.290,9.202,baseline
1462.000,335.700,89.660,22.650,1428.000,349.300,85.750,21.590,165.800,48.230,13.830,4.396,336.900,102.100,29.160,9.121,baseline
1459.000,335.300,89.270,22.550,1424.000,348.600,85.530,21.590,165.500,48.090,13.790,4.384,336.500,101.700,28.950,9.074,baseline
1456.000,335.400,89.010,22.520,1427.000,348.900,85.460,21.610,163.600,48.410,13.750,4.362,335.800,101.700,28.900,9.093,baseline
1457.000,336.300,89.020,22.570,1425.000,348.500,85.530,21.650,164.600,48.240,13.760,4.374,337.200,102.300,28.970,9.101,baseline
1458.000,336.300,89.400,22.610,1424.000,348.900,85.520,21.560,166.300,48.240,13.810,4.380,336.900,102.100,29.090,9.151,baseline
1459.000,336.200,89.150,22.690,1423.000,348.100,85.540,21.680,165.400,48.260,13.790,4.393,338.500,102.300,29.090,9.163,baseline
1459.000,336.600,89.530,22.740,1423.000,349.100,85.440,21.660,165.600,48.610,13.820,4.391,338.500,102.400,29.280,9.171,baseline
1458.000,335.400,89.100,22.570,1423.000,348.000,85.230,21.570,164.900,48.060,13.820,4.369,337.000,101.700,28.880,9.070,baseline
1451.000,333.500,88.590,22.430,1421.000,347.600,85.090,21.510,164.700,48.310,13.770,4.346,335.100,101.100,28.730,9.006,baseline
1446.000,333.600,88.420,22.340,1423.000,347.800,85.130,21.490,164.800,48.380,13.680,4.352,333.700,100.900,28.670,8.985,baseline
1446.000,334.400,88.500,22.400,1420.000,348.000,85.320,21.530,164.900,48.120,13.710,4.338,334.000,100.900,28.560,8.985,baseline
1447.000,333.200,88.470,22.430,1420.000,348.000,85.330,21.520,166.100,47.790,13.740,4.349,333.600,100.900,28.710,9.020,baseline
1449.000,334.900,88.750,22.470,1422.000,348.300,85.310,21.520,163.800,48.050,13.750,4.361,335.100,101.600,28.790,9.031,baseline
1452.000,334.500,88.900,22.610,1422.000,349.100,85.490,21.590,165.300,48.190,13.730,4.355,334.600,101.600,28.910,9.076,baseline
1455.000,334.300,88.800,22.630,1424.000,348.600,85.600,21.570,164.200,48.360,13.700,4.357,336.100,101.700,28.870,9.060,baseline
1451.000,335.400,88.830,22.460,1424.000,348.200,85.410,21.500,164.000,48.030,13.750,4.353,333.400,100.700,28.500,8.984,baseline
1446.000,332.800,88.390,22.320,1419.000,348.000,85.440,21.480,164.600,48.020,13.660,4.346,332.600,100.200,28.500,8.885,baseline
1443.000,332.500,88.000,22.290,1420.000,347.300,85.310,21.470,165.200,47.910,13.680,4.347,332.200,100.300,28.460,8.903,baseline
1444.000,331.700,88.170,22.340,1419.000,347.500,85.360,21.520,162.800,47.880,13.650,4.324,332.400,100.300,28.400,8.945,baseline
1444.000,332.200,88.520,22.330,1421.000,348.100,85.180,21.480,163.600,48.100,13.800,4.344,332.400,100.500,28.610,8.961,baseline
1447.000,332.500,88.520,22.430,1418.000,348.500,85.280,21.520,163.400,48.080,13.730,4.357,333.700,100.500,28.590,8.992,baseline
1448.000,334.100,88.680,22.490,1423.000,348.700,85.370,21.570,163.600,48.210,13.760,4.350,334.000,101.300,28.790,9.044,baseline
1452.000,334.600,89.020,22.560,1422.000,349.100,85.470,21.610,164.400,47.980,13.740,4.373,335.200,101.600,28.910,9.085,baseline
1454.000,332.900,88.890,22.470,1422.000,347.800,85.420,21.500,165.400,48.070,13.780,4.382,334.400,101.100,28.670,8.967,baseline
1447.000,333.200,88.300,22.270,1418.000,348.100,85.180,21.510,165.300,48.300,13.760,4.360,332.600,100.500,28.430,8.925,baseline
1443.000,332.100,88.050,22.190,1418.000,348.000,85.240,21.470,164.100,47.880,13.730,4.343,331.100,100.300,28.440,8.900,baseline
1443.000,332.000,88.000,22.260,1420.000,348.100,85.220,21.460,163.700,48.060,13.730,4.355,331.400,100.400,28.490,8.907,baseline
1444.000,333.000,88.360,22.290,1420.000,347.800,85.130,21.440,165.000,47.990,13.740,4.355,332.100,100.600,28.650,8.960,baseline
1445.000,334.000,88.410,22.390,1423.000,348.800,85.320,21.510,163.400,47.940,13.710,4.372,333.400,100.800,28.580,8.998,baseline
1448.000,334.000,88.510,22.430,1420.000,348.700,85.420,21.500,164.700,48.000,13.810,4.395,334.200,101.300,28.760,9.051,baseline
1450.000,333.700,88.940,22.500,1422.000,349.300,85.550,21.590,164.300,48.260,13.800,4.387,334.800,101.400,29.030,9.120,baseline
1453.000,335.700,89.400,22.550,1424.000,348.700,85.630,21.540,165.800,48.250,13.820,4.398,335.800,101.700,28.910,9.074,baseline
1451.000,334.400,88.730,22.440,1424.000,349.200,85.380,21.510,166.100,48.250,13.780,4.389,333.900,100.900,28.630,8.988,baseline
1447.000,333.200,88.250,22.320,1422.000,348.200,85.430,21.530,165.500,48.250,13.770,4.371,333.300,100.900,28.470,8.966,baseline
1445.000,331.600,88.490,22.280,1422.000,348.900,85.390,21.520,165.700,48.310,13.720,4.362,333.000,100.500,28.580,8.971,baseline
1446.000,332.700,88.450,22.380,1422.000,348.200,85.340,21.500,164.800,48.140,13.790,4.381,332.600,100.800,28.650,8.994,baseline
1448.000,333.000,88.720,22.470,1421.000,348.800,85.470,21.520,165.200,48.200,13.820,4.372,334.300,101.100,28.830,9.033,baseline
1451.000,333.000,88.760,22.460,1424.000,349.200,85.680,21.570,164.600,48.250,13.810,4.377,334.800,101.400,28.870,9.067,baseline
1454.000,335.300,88.660,22.600,1423.000,349.700,85.660,21.590,165.000,48.190,13.810,4.405,336.200,101.800,28.980,9.130,baseline
1456.000,336.900,89.160,22.630,1425.000,349.800,85.800,21.640,165.500,48.200,13.860,4.412,336.900,102.200,29.210,9.177,baseline
1460.000,337.000,89.390,22.650,1426.000,350.000,85.710,21.620,164.700,48.390,13.890,4.420,336.600,101.900,28.960,9.111,baseline
1455.000,336.000,89.210,22.480,1427.000,349.700,85.570,21.610,165.500,48.670,13.830,4.392,336.000,101.300,28.820,9.063,baseline
1454.000,334.700,88.880,22.430,1426.000,349.600,85.680,21.610,167.000,48.210,13.830,4.380,336.100,101.200,28.880,9.059,baseline
1453.000,335.300,88.860,22.440,1425.000,350.100,85.780,21.600,165.300,48.480,13.850,4.382,334.900,101.600,28.860,9.097,baseline
1453.000,334.100,89.000,22.470,1428.000,350.100,85.910,21.640,165.300,48.470,13.820,4.390,335.800,101.600,28.970,9.115,baseline
1457.000,336.400,89.430,22.570,1430.000,350.100,85.930,21.640,164.400,48.580,13.910,4.396,336.500,101.900,29.060,9.168,baseline
1460.000,336.100,89.430,22.630,1431.000,351.000,86.040,21.660,168.200,48.420,13.930,4.396,337.600,102.500,29.190,9.224,baseline
1461.000,337.700,89.250,22.710,1430.000,350.900,86.030,21.680,164.300,48.290,13.870,4.416,338.500,102.600,29.280,9.264,baseline
1466.000,337.400,89.800,22.770,1431.000,351.700,86.100,21.640,166.000,48.400,13.920,4.443,338.700,102.700,29.220,9.211,baseline
1463.000,336.900,89.530,22.570,1430.000,351.100,86.000,21.620,167.300,48.780,14.030,4.434,339.900,103.200,29.340,9.227,baseline
1462.000,337.300,89.220,22.530,1429.000,350.600,86.020,21.560,168.200,49.160,14.070,4.445,341.400,102.800,29.200,9.112,baseline
1461.000,338.200,89.230,22.530,1430.000,351.200,86.040,21.570,168.200,48.970,13.930,4.416,339.700,102.700,29.080,9.127,baseline
1463.000,336.500,89.450,22.570,1432.000,351.100,85.840,21.610,168.900,48.970,13.960,4.408,339.800,102.500,29.080,9.145,baseline
1463.000,337.700,89.360,22.560,1432.000,350.500,85.880,21.640,168.200,48.890,13.920,4.407,338.900,102.200,29.190,9.220,baseline
1464.000,337.200,89.790,22.720,1434.000,352.200,86.170,21.710,164.700,48.860,13.870,4.414,339.300,102.800,29.300,9.268,baseline
1469.000,339.600,90.200,22.860,1431.000,352.100,86.410,21.790,166.200,48.720,13.940,4.412,339.700,103.000,29.420,9.317,baseline
1472.000,340.300,90.070,22.780,1432.000,351.900,86.400,21.740,166.800,48.720,13.970,4.398,338.200,102.500,29.200,9.216,baseline
1465.000,338.400,89.710,22.640,1432.000,352.300,86.310,21.730,164.200,48.270,13.900,4.396,337.300,102.400,29.130,9.185,baseline
1462.000,337.700,89.640,22.680,1431.000,351.500,86.220,21.710,167.300,48.860,13.850,4.396,337.300,102.100,29.170,9.198,baseline
1462.000,337.400,89.520,22.750,1434.000,352.200,86.330,21.730,165.400,48.510,13.900,4.417,337.600,102.500,29.200,9.228,baseline
1463.000,337.700,89.910,22.750,1431.000,351.300,86.380,21.730,164.700,48.560,13.860,4.405,337.200,102.500,29.360,9.251,baseline
1465.000,339.700,89.880,22.890,1432.000,352.300,86.190,21.820,164.200,48.410,13.900,4.410,339.100,103.100,29.490,9.302,baseline
1469.000,339.900,90.060,22.900,1432.000,352.000,86.390,21.780,167.900,48.440,13.930,4.419,339.000,103.300,29.590,9.355,baseline
1471.000,340.300,90.260,23.030,1436.000,351.700,86.500,21.780,165.400,48.590,13.940,4.415,341.600,103.500,29.600,9.320,baseline
1466.000,338.300,89.830,22.780,1435.000,351.400,86.070,21.720,167.400,48.640,13.890,4.397,339.100,102.800,29.440,9.228,baseline
1462.000,339.100,89.580,22.640,1433.000,351.400,86.120,21.700,166.900,48.490,13.880,4.389,338.100,102.500,29.200,9.203,baseline
1461.000,338.300,89.610,22.700,1433.000,351.600,85.930,21.720,165.800,48.330,13.920,4.392,338.000,102.800,29.280,9.221,baseline
1461.000,337.800,89.480,22.730,1430.000,350.900,86.070,21.710,165.500,48.800,13.850,4.376,338.800,102.700,29.390,9.236,baseline
1462.000,337.800,89.450,22.750,1429.000,351.600,86.290,21.750,165.000,48.410,13.900,4.378,339.600,103.000,29.470,9.329,baseline
1464.000,339.300,90.060,22.900,1433.000,351.900,86.430,21.800,165.200,48.620,13.890,4.400,339.500,103.500,29.520,9.347,baseline
1467.000,339.300,90.240,22.990,1432.000,352.400,86.310,21.760,165.200,48.670,13.870,4.427,341.000,103.900,29.670,9.343,baseline
1465.000,337.900,89.600,22.790,1432.000,351.400,86.100,21.650,166.200,48.600,13.890,4.402,339.700,102.700,29.380,9.258,baseline
1458.000,337.100,89.420,22.690,1431.000,351.000,86.050,21.640,164.300,48.470,13.860,4.405,338.000,102.500,29.260,9.242,baseline
1457.000,336.500,89.410,22.640,1432.000,350.200,85.910,21.660,165.500,48.370,13.860,4.392,338.800,102.700,29.280,9.232,baseline
1458.000,338.100,89.370,22.670,1431.000,350.200,85.860,21.660,168.400,48.470,13.910,4.401,339.200,102.900,29.440,9.283,baseline
1458.000,337.900,89.680,22.760,1433.000,351.100,85.950,21.730,165.800,48.500,13.850,4.418,339.100,103.300,29.530,9.338,baseline
1461.000,337.600,89.820,22.850,1434.000,351.000,86.070,21.720,165.600,48.840,13.960,4.436,341.700,103.700,29.700,9.380,baseline
1464.000,337.900,89.890,22.850,1433.000,350.900,86.160,21.730,167.000,48.910,13.970,4.434,343.600,104.200,29.770,9.452,baseline
1466.000,338.800,89.600,22.760,1431.000,350.500,86.020,21.660,166.600,49.050,14.040,4.419,341.700,103.700,29.560,9.314,baseline
1458.000,337.000,89.100,22.620,1428.000,350.000,85.750,21.630,168.200,49.020,13.960,4.406,340.700,103.400,29.360,9.279,baseline
1456.000,335.400,89.250,22.590,1428.000,349.900,85.750,21.590,168.300,48.780,13.900,4.408,339.400,102.900,29.340,9.291,baseline
1456.000,336.000,89.200,22.650,1429.000,350.200,85.880,21.580,166.700,48.820,13.860,4.387,338.700,103.000,29.310,9.255,baseline
1457.000,337.100,89.140,22.730,1428.000,350.000,85.750,21.670,165.800,48.600,13.860,4.385,338.700,103.000,29.330,9.276,baseline
1460.000,337.900,89.480,22.750,1432.000,350.000,85.960,21.620,164.500,48.300,13.820,4.393,340.000,103.000,29.570,9.301,baseline
1463.000,337.600,89.670,22.890,1429.000,350.800,86.010,21.660,166.000,48.580,13.890,4.402,339.800,103.600,29.620,9.395,baseline
1465.000,339.000,90.170,22.860,1431.000,350.700,85.910,21.660,166.500,48.660,13.850,4.395,340.100,103.300,29.450,9.270,baseline
1459.000,337.400,89.200,22.670,1430.000,350.300,85.850,21.570,164.000,48.490,13.820,4.373,336.600,102.600,29.240,9.247,baseline
1456.000,335.900,89.340,22.670,1427.000,349.400,85.690,21.600,163.900,48.090,13.770,4.366,336.900,102.400,29.120,9.219,baseline
1455.000,335.600,89.400,22.730,1429.000,350.000,85.900,21.650,166.200,48.080,13.750,4.371,337.000,102.200,29.240,9.270,baseline
1456.000,335.900,89.260,22.700,1426.000,350.100,85.950,21.630,165.100,48.210,13.820,4.360,337.100,102.400,29.300,9.263,baseline
1458.000,336.100,89.350,22.760,1429.000,349.900,85.880,21.700,165.500,48.440,13.780,4.364,338.300,102.600,29.450,9.322,baseline
1461.000,337.400,89.580,22.840,1428.000,350.400,85.950,21.730,165.100,48.130,13.780,4.372,340.100,103.200,29.470,9.386,baseline
1463.000,337.500,89.810,22.940,1430.000,350.600,86.060,21.680,163.300,48.580,13.760,4.368,340.900,103.700,29.770,9.447,baseline
1464.000,337.100,89.850,22.870,1427.000,349.900,85.850,21.600,164.900,49.030,14.000,4.412,343.100,104.100,29.740,9.332,baseline
1454.000,335.200,89.250,22.720,1423.000,349.200,85.640,21.560,168.900,48.890,13.940,4.397,341.300,103.600,29.480,9.279,baseline
1452.000,335.100,89.030,22.690,1428.000,348.800,85.660,21.600,169.100,48.610,13.840,4.363,339.700,102.700,29.300,9.241,baseline
1453.000,336.300,89.350,22.740,1429.000,349.300,85.630,21.600,164.000,48.260,13.700,4.333,335.900,102.000,29.130,9.241,baseline
1453.000,336.200,89.340,22.840,1424.000,349.700,85.800,21.620,165.700,48.180,13.710,4.341,336.500,102.000,29.160,9.247,baseline
1456.000,336.200,89.780,22.800,1428.000,349.000,85.830,21.650,167.100,48.060,13.730,4.357,337.500,102.800,29.390,9.327,baseline
1458.000,337.700,89.920,22.890,1431.000,350.400,85.950,21.660,165.000,48.530,13.830,4.361,339.600,103.200,29.520,9.396,baseline
1460.000,338.100,90.070,22.900,1429.000,349.800,85.780,21.610,165.900,48.270,13.790,4.373,339.100,102.700,29.280,9.247,baseline
1452.000,334.400,89.370,22.680,1424.000,349.500,85.640,21.550,163.700,48.090,13.690,4.323,335.100,101.800,29.100,9.175,baseline
1449.000,334.300,88.970,22.650,1424.000,349.100,85.440,21.550,164.200,48.140,13.630,4.332,335.200,102.000,28.980,9.201,baseline
1450.000,334.000,89.200,22.670,1423.000,349.800,85.620,21.610,165.100,47.870,13.610,4.313,335.900,101.800,29.170,9.217,baseline
1451.000,333.900,89.130,22.680,1429.000,349.400,85.670,21.600,164.200,48.010,13.710,4.329,335.800,102.200,29.170,9.259,baseline
1454.000,335.900,89.280,22.810,1425.000,349.400,85.770,21.590,163.700,47.870,13.670,4.326,337.600,102.400,29.320,9.319,baseline
1456.000,336.100,89.860,22.900,1426.000,349.900,85.870,21.630,164.600,47.800,13.730,4.351,337.400,102.800,29.380,9.350,baseline
1459.000,336.500,90.200,22.920,1430.000,350.700,85.880,21.600,166.300,48.240,13.690,4.359,338.900,103.000,29.460,9.356,baseline
1455.000,335.900,88.980,22.690,1427.000,349.400,85.620,21.540,164.000,48.140,13.730,4.342,336.600,102.400,29.170,9.252,baseline
1450.000,334.100,88.810,22.570,1426.000,348.900,85.530,21.520,164.500,47.820,13.630,4.319,335.200,101.900,29.060,9.181,baseline
1448.000,333.900,89.080,22.600,1425.000,349.300,85.590,21.560,164.300,47.690,13.650,4.313,334.900,102.000,29.090,9.194,baseline
1449.000,334.400,89.580,22.620,1425.000,349.100,85.430,21.520,164.100,47.900,13.660,4.320,335.700,102.100,29.070,9.195,baseline
1450.000,334.300,89.300,22.660,1424.000,349.400,85.560,21.540,164.500,47.810,13.640,4.317,336.100,102.300,29.230,9.240,baseline
1452.000,334.900,89.670,22.770,1427.000,349.800,85.620,21.590,166.000,47.950,13.660,4.320,335.800,102.500,29.360,9.293,baseline
1454.000,335.900,89.570,22.860,1426.000,350.200,85.710,21.590,164.400,47.590,13.730,4.342,337.800,102.500,29.340,9.354,baseline
1459.000,336.000,90.000,22.870,1428.000,350.400,85.650,21.560,164.000,48.070,13.700,4.332,337.600,102.600,29.240,9.263,baseline
1451.000,335.900,88.950,22.690,1424.000,348.700,85.430,21.460,164.000,47.830,13.680,4.323,334.700,101.500,29.080,9.177,baseline
1447.000,333.100,88.930,22.580,1425.000,348.700,85.370,21.500,164.500,47.680,13.610,4.304,334.000,101.500,28.880,9.155,baseline
1447.000,333.000,88.760,22.580,1421.000,348.500,85.420,21.490,165.100,47.810,13.590,4.299,334.600,101.400,28.930,9.132,baseline
1446.000,333.300,88.780,22.640,1423.000,348.900,85.400,21.460,162.800,47.440,13.590,4.290,334.500,101.300,29.000,9.173,baseline
1448.000,334.500,89.210,22.650,1426.000,349.200,85.420,21.500,163.000,47.370,13.610,4.302,334.200,101.700,29.040,9.160,baseline
1450.000,335.200,89.310,22.710,1424.000,348.700,85.460,21.550,163.100,47.890,13.670,4.300,335.600,101.700,29.160,9.251,baseline
1452.000,336.100,89.310,22.790,1427.000,349.400,85.620,21.580,164.400,47.960,13.630,4.320,336.300,102.100,29.280,9.274,baseline
1456.000,336.400,89.910,22.860,1429.000,349.800,85.670,21.560,164.000,47.860,13.660,4.324,338.000,102.700,29.380,9.357,baseline
1457.000,335.800,89.600,22.770,1427.000,348.900,85.320,21.490,164.700,48.030,13.680,4.330,336.400,101.800,29.080,9.172,baseline
1448.000,333.600,89.280,22.610,1424.000,348.400,85.420,21.450,165.200,47.960,13.630,4.301,335.400,101.800,28.980,9.114,baseline
1445.000,333.400,88.710,22.550,1423.000,348.600,85.410,21.430,165.300,47.660,13.580,4.308,334.700,101.200,28.850,9.134,baseline
1446.000,333.600,89.060,22.640,1421.000,348.300,85.370,21.470,161.900,47.850,13.600,4.297,333.700,101.500,28.850,9.142,baseline
1447.000,334.000,89.040,22.650,1420.000,348.300,85.350,21.480,166.500,47.910,13.640,4.296,334.100,101.600,28.950,9.152,baseline
1448.000,334.700,89.280,22.730,1423.000,349.400,85.800,21.510,164.500,47.920,13.650,4.301,335.500,101.900,29.110,9.214,baseline
1452.000,336.000,89.490,22.800,1425.000,349.700,85.600,21.540,163.700,48.010,13.670,4.319,337.100,102.400,29.100,9.269,baseline
1455.000,335.600,89.660,22.920,1423.000,349.800,85.790,21.610,163.700,47.900,13.650,4.310,337.500,102.800,29.360,9.298,baseline
1459.000,338.000,90.380,22.930,1427.000,350.100,85.620,21.580,165.100,48.020,13.720,4.344,339.000,103.000,29.420,9.291,baseline
1454.000,335.800,89.750,22.690,1427.000,348.800,85.300,21.530,165.200,48.000,13.680,4.315,335.700,101.900,29.100,9.177,baseline
1450.000,335.000,89.350,22.720,1422.000,348.600,85.370,21.480,165.300,47.940,13.630,4.291,336.300,101.900,29.210,9.197,baseline
1448.000,334.400,89.300,22.780,1421.000,348.900,85.490,21.440,168.000,48.590,13.840,4.372,341.500,103.100,29.330,9.203,baseline
1448.000,334.300,88.870,22.720,1423.000,348.200,85.430,21.480,167.800,48.830,13.820,4.346,339.800,102.900,29.140,9.183,baseline
1450.000,335.100,89.560,22.740,1426.000,349.300,85.420,21.520,166.500,48.600,13.710,4.326,338.700,102.700,29.190,9.198,baseline
1453.000,336.100,89.740,22.840,1424.000,349.400,85.690,21.540,167.500,48.490,13.750,4.327,338.700,102.200,29.130,9.203,baseline
1456.000,336.600,89.800,22.910,1426.000,350.000,85.510,21.610,165.900,47.800,13.650,4.317,337.200,102.400,29.160,9.242,baseline
1458.000,337.400,90.260,22.940,1427.000,349.900,85.600,21.540,163.700,48.330,13.700,4.331,338.300,102.600,29.240,9.234,baseline
1453.000,335.600,89.120,22.710,1425.000,349.000,85.460,21.490,165.000,47.990,13.650,4.320,336.500,102.000,29.020,9.106,baseline
1448.000,335.300,89.350,22.710,1420.000,348.700,85.330,21.450,163.500,48.060,13.690,4.323,337.100,102.000,29.000,9.152,baseline
1446.000,335.300,89.340,22.710,1422.000,348.400,85.420,21.450,166.800,48.320,13.730,4.337,337.200,102.300,29.040,9.183,baseline
1448.000,334.400,89.330,22.670,1420.000,348.700,85.470,21.460,164.600,48.050,13.670,4.331,337.700,102.000,29.070,9.152,baseline
1449.000,335.000,89.340,22.690,1421.000,348.500,85.470,21.500,166.500,48.220,13.720,4.311,337.400,102.100,29.070,9.222,baseline
1453.000,335.800,89.450,22.850,1424.000,349.100,85.610,21.550,164.600,48.060,13.730,4.331,337.100,102.300,29.220,9.262,baseline
1455.000,336.600,90.000,22.920,1427.000,349.900,85.760,21.560,163.700,48.000,13.710,4.319,338.100,102.600,29.370,9.281,baseline
1458.000,338.300,89.880,22.820,1425.000,349.700,85.620,21.450,166.200,47.700,13.670,4.321,335.900,101.900,29.010,9.195,baseline
1448.000,334.400,89.500,22.640,1423.000,348.600,85.460,21.450,162.800,47.620,13.610,4.310,334.800,101.400,28.880,9.124,baseline
1446.000,334.300,88.990,22.660,1422.000,348.400,85.290,21.440,164.000,47.700,13.520,4.319,333.800,101.400,28.740,9.114,baseline
1446.000,333.200,88.960,22.660,1420.000,349.100,85.310,21.400,162.800,47.860,13.670,4.306,333.300,101.500,28.910,9.123,baseline
1446.000,334.700,89.060,22.720,1420.000,348.500,85.320,21.420,164.600,48.000,13.610,4.318,334.700,102.000,28.990,9.230,baseline
1448.000,336.000,89.100,22.750,1423.000,348.300,85.290,21.440,166.900,48.280,13.820,4.369,339.400,102.900,29.400,9.267,baseline
1450.000,335.700,89.450,22.750,1423.000,349.000,85.480,21.500,168.600,48.770,13.790,4.364,340.200,103.300,29.480,9.294,baseline
1452.000,336.700,89.330,22.840,1425.000,349.100,85.330,21.500,167.700,48.560,13.840,4.372,339.800,103.100,29.370,9.272,baseline
1448.000,334.400,89.390,22.710,1424.000,348.700,85.160,21.400,167.100,48.570,13.780,4.348,336.000,101.900,29.070,9.140,baseline
1443.000,333.000,88.850,22.510,1419.000,348.100,85.070,21.380,165.900,47.980,13.750,4.325,334.600,101.600,28.840,9.073,baseline
1442.000,333.500,88.970,22.540,1418.000,347.200,85.330,21.380,166.000,47.980,13.670,4.322,334.600,101.600,28.860,9.073,baseline
1442.000,334.600,88.950,22.570,1417.000,348.000,85.260,21.400,163.900,48.340,13.610,4.323,333.800,101.400,28.830,9.079,baseline
1444.000,333.400,89.110,22.520,1419.000,348.800,85.140,21.390,164.300,48.050,13.650,4.325,334.700,101.800,28.900,9.130,baseline
1448.000,334.000,89.110,22.720,1417.000,348.800,85.450,21.430,164.900,47.720,13.680,4.331,334.500,101.600,28.880,9.129,baseline
1450.000,335.600,89.500,22.800,1419.000,348.900,85.410,21.480,166.600,47.860,13.600,4.315,335.100,101.600,28.990,9.166,baseline
1452.000,336.200,89.270,22.760,1423.000,348.900,85.300,21.420,164.400,47.940,13.700,4.318,334.500,101.600,28.870,9.072,baseline
1445.000,333.800,88.650,22.570,1419.000,348.500,85.280,21.370,163.800,47.570,13.660,4.294,332.400,100.800,28.670,9.043,baseline
1442.000,332.200,88.300,22.510,1417.000,348.400,85.150,21.370,163.300,47.730,13.550,4.286,332.500,100.700,28.630,9.008,baseline
1443.000,333.200,88.790,22.590,1419.000,347.500,85.170,21.360,163.300,47.550,13.570,4.297,330.800,100.500,28.530,9.007,baseline
1443.000,333.400,88.630,22.570,1419.000,348.200,85.160,21.430,164.700,47.580,13.540,4.282,332.300,100.500,28.620,9.065,baseline
1444.000,332.100,88.810,22.630,1418.000,348.700,85.050,21.450,164.300,47.460,13.580,4.300,332.600,101.100,28.630,9.042,baseline
1446.000,334.900,89.180,22.650,1420.000,348.700,85.300,21.450,163.500,47.900,13.600,4.311,332.900,101.100,28.940,9.117,baseline
1448.000,335.100,89.590,22.730,1421.000,349.000,85.420,21.490,165.400,47.910,13.630,4.323,335.000,101.300,28.840,9.104,baseline
1448.000,334.500,88.700,22.590,1422.000,348.200,85.250,21.370,165.000,47.770,13.590,4.300,332.400,100.800,28.530,9.028,baseline
1440.000,332.100,88.470,22.440,1418.000,347.600,84.990,21.380,162.700,47.740,13.540,4.278,331.200,100.600,28.520,8.978,baseline
1439.000,331.600,88.070,22.410,1421.000,347.800,84.970,21.390,163.800,47.650,13.550,4.290,330.200,100.100,28.420,8.958,baseline
1440.000,331.900,88.430,22.430,1417.000,348.300,85.100,21.380,163.200,47.570,13.560,4.285,331.300,100.300,28.480,8.972,baseline
1442.000,332.500,88.340,22.480,1418.000,348.000,85.090,21.430,163.700,47.740,13.600,4.314,333.200,101.200,28.910,9.102,baseline
1443.000,333.900,88.890,22.570,1419.000,348.900,85.170,21.460,166.300,48.630,13.780,4.349,336.700,101.600,28.860,9.060,baseline
1445.000,334.600,88.890,22.600,1420.000,348.400,85.400,21.470,167.000,48.260,13.740,4.337,336.900,101.600,28.830,9.046,baseline
1447.000,334.300,89.080,22.700,1420.000,349.800,85.510,21.490,165.700,48.260,13.670,4.317,336.700,101.800,28.880,9.032,baseline
1445.000,333.500,88.690,22.550,1420.000,349.600,85.470,21.380,165.900,47.930,13.640,4.303,332.600,100.100,28.410,8.909,baseline
1441.000,332.700,88.730,22.410,1423.000,348.700,85.560,21.410,164.800,47.840,13.560,4.272,331.300,99.810,28.130,8.860,baseline
1438.000,331.500,88.570,22.390,1419.000,349.000,85.360,21.400,164.000,47.730,13.610,4.290,330.700,100.100,28.260,8.890,baseline
1440.000,332.200,88.190,22.450,1420.000,349.100,85.540,21.440,162.000,47.550,13.510,4.275,330.100,99.910,28.330,8.887,baseline
1442.000,332.500,88.750,22.440,1419.000,348.800,85.610,21.520,163.200,47.440,13.610,4.282,329.700,99.810,28.340,8.898,baseline
1443.000,333.800,88.800,22.520,1422.000,349.100,85.600,21.490,163.000,47.570,13.580,4.286,331.500,100.200,28.460,8.956,baseline
1446.000,334.400,88.940,22.580,1422.000,349.200,85.840,21.530,161.300,47.760,13.520,4.308,332.000,100.400,28.480,8.992,baseline
1449.000,333.900,89.090,22.650,1424.000,350.200,85.870,21.550,164.500,47.770,13.610,4.300,332.400,100.800,28.640,9.042,baseline
1451.000,334.700,89.370,22.510,1425.000,348.200,85.710,21.440,162.100,47.660,13.630,4.318,331.800,100.200,28.400,8.957,baseline
1442.000,332.000,88.630,22.460,1423.000,348.800,85.520,21.390,163.600,47.430,13.610,4.307,331.200,99.760,28.340,8.893,baseline
1439.000,330.800,88.110,22.380,1421.000,348.800,85.270,21.440,163.300,47.610,13.540,4.294,329.900,99.460,28.260,8.857,baseline
1439.000,332.900,88.470,22.350,1422.000,348.900,85.350,21.460,163.000,47.550,13.570,4.309,330.100,99.700,28.320,8.892,baseline
1440.000,332.500,88.290,22.430,1418.000,348.500,85.380,21.470,163.700,47.710,13.600,4.310,331.500,100.100,28.400,8.926,baseline
1442.000,332.300,88.690,22.430,1424.000,349.000,85.390,21.480,163.700,47.510,13.600,4.313,332.300,100.600,28.480,8.973,baseline
1443.000,333.500,88.560,22.480,1423.000,348.800,85.440,21.490,165.300,47.740,13.620,4.326,332.900,100.800,28.600,9.049,baseline
1444.000,333.200,88.700,22.540,1424.000,349.200,85.590,21.530,163.900,47.880,13.670,4.321,333.700,101.100,28.740,9.082,baseline
1447.000,334.600,89.110,22.610,1423.000,349.300,85.510,21.520,164.200,47.840,13.700,4.361,335.200,101.600,28.990,9.126,baseline
1450.000,334.400,89.090,22.570,1426.000,348.400,85.410,21.460,165.700,48.080,13.710,4.355,334.800,101.200,28.850,9.059,baseline
1442.000,332.200,88.310,22.440,1421.000,348.300,85.390,21.420,162.000,47.930,13.660,4.319,332.700,100.600,28.540,9.021,baseline
1439.000,331.500,88.410,22.330,1421.000,348.100,85.270,21.410,162.500,47.970,13.620,4.317,332.700,100.500,28.510,8.986,baseline
1438.000,332.300,88.210,22.390,1420.000,348.100,85.310,21.380,164.300,47.840,13.690,4.315,332.900,100.900,28.540,9.026,baseline
1439.000,331.500,88.250,22.400,1418.000,348.200,85.460,21.440,163.600,47.890,13.650,4.346,333.200,100.900,28.630,9.046,baseline
1439.000,331.500,88.510,22.460,1421.000,348.500,85.540,21.500,165.500,47.880,13.660,4.350,334.200,101.100,28.760,9.069,baseline
1442.000,332.300,88.870,22.500,1422.000,349.500,85.610,21.520,165.100,47.850,13.720,4.326,335.100,101.700,28.880,9.140,baseline
1445.000,332.900,88.830,22.620,1423.000,350.000,85.620,21.510,164.200,47.820,13.720,4.372,336.600,102.000,29.100,9.216,baseline
1447.000,334.900,89.130,22.640,1423.000,349.300,85.610,21.560,165.100,48.290,13.780,4.377,337.300,102.700,29.220,9.236,baseline
1449.000,334.500,89.260,22.580,1422.000,349.400,85.390,21.500,164.700,48.190,13.770,4.368,337.200,102.100,29.090,9.134,baseline
1442.000,331.800,88.630,22.440,1423.000,348.700,85.480,21.430,165.900,48.190,13.780,4.359,336.500,101.900,28.970,9.138,baseline
1439.000,331.200,88.240,22.440,1424.000,348.400,85.420,21.440,163.900,48.020,13.740,4.371,334.700,101.800,28.820,9.114,baseline
1439.000,331.700,88.340,22.500,1423.000,348.900,85.430,21.430,164.000,47.850,13.690,4.353,335.100,101.300,28.960,9.097,baseline
1440.000,332.400,88.550,22.460,1420.000,348.400,85.450,21.500,164.900,47.910,13.730,4.358,336.300,101.900,28.960,9.169,baseline
1441.000,332.500,88.750,22.480,1423.000,349.100,85.470,21.470,165.900,48.600,13.850,4.384,338.200,102.700,29.270,9.233,baseline
1444.000,334.500,88.770,22.550,1425.000,349.200,85.550,21.510,165.200,48.500,13.930,4.406,339.100,102.900,29.300,9.267,baseline
1447.000,333.700,89.200,22.620,1424.000,349.200,85.540,21.500,166.700,48.390,13.840,4.400,338.700,103.000,29.340,9.272,baseline
1450.000,335.300,89.290,22.740,1424.000,350.300,85.580,21.550,164.700,48.300,13.900,4.390,339.200,103.200,29.550,9.353,baseline
1453.000,335.900,89.640,22.820,1426.000,349.900,85.650,21.520,164.600,48.400,13.800,4.394,339.900,103.100,29.250,9.292,baseline
1445.000,334.200,88.790,22.530,1419.000,349.200,85.370,21.470,167.200,48.500,13.860,4.379,337.200,102.600,29.230,9.239,baseline
1441.000,333.000,88.580,22.490,1419.000,348.700,85.230,21.450,163.400,48.240,13.740,4.368,337.200,102.100,29.060,9.199,baseline
1440.000,331.700,88.680,22.480,1420.000,348.300,85.380,21.440,164.200,48.040,13.710,4.358,336.500,102.100,29.130,9.214,baseline
1441.000,332.600,88.640,22.470,1423.000,349.100,85.290,21.410,165.300,48.060,13.750,4.363,336.600,102.100,29.150,9.221,baseline
1442.000,332.900,88.620,22.560,1420.000,349.000,85.400,21.430,165.300,48.260,13.810,4.371,337.300,102.300,29.220,9.272,baseline
1444.000,333.900,88.850,22.580,1423.000,349.200,85.440,21.470,165.500,48.290,13.760,4.371,337.000,102.800,29.280,9.308,baseline
1446.000,334.000,88.970,22.690,1424.000,348.500,85.520,21.450,165.600,48.050,13.790,4.372,338.400,103.000,29.420,9.333,baseline
1449.000,335.300,89.460,22.770,1425.000,349.200,85.620,21.510,165.300,48.160,13.770,4.396,339.500,103.500,29.610,9.425,baseline
1451.000,334.300,89.350,22.690,1426.000,348.700,85.420,21.430,167.700,48.280,13.760,4.391,339.100,102.700,29.420,9.307,baseline
1443.000,333.000,88.750,22.510,1422.000,349.100,85.300,21.420,164.200,48.360,13.800,4.366,337.900,102.500,29.110,9.257,baseline
1439.000,332.200,88.520,22.530,1423.000,348.700,85.060,21.350,166.700,47.950,13.750,4.376,337.000,102.300,29.130,9.230,baseline
1438.000,331.200,88.480,22.420,1422.000,348.400,85.250,21.360,165.700,48.270,13.700,4.358,336.500,102.500,29.140,9.239,baseline
1440.000,331.200,88.690,22.470,1423.000,348.500,85.300,21.400,165.700,47.970,13.740,4.355,337.400,102.700,29.220,9.275,baseline
1441.000,332.800,88.670,22.580,1423.000,348.900,85.260,21.430,162.900,48.050,13.820,4.369,337.100,103.000,29.470,9.297,baseline
1444.000,332.400,88.990,22.600,1423.000,348.700,85.280,21.400,164.200,47.790,13.790,4.354,337.800,102.700,29.360,9.355,baseline
1447.000,333.600,89.220,22.720,1421.000,349.600,85.610,21.420,164.200,47.870,13.730,4.379,339.200,103.300,29.620,9.408,baseline
1451.000,336.300,89.680,22.710,1425.000,349.200,85.470,21.400,163.900,48.010,13.820,4.360,339.600,103.100,29.430,9.329,baseline
1443.000,333.400,88.710,22.460,1421.000,348.400,85.170,21.360,164.500,48.130,13.720,4.338,337.000,102.100,29.280,9.285,baseline
1439.000,332.200,88.590,22.480,1420.000,348.100,85.070,21.350,163.100,47.720,13.670,4.335,335.400,102.100,29.170,9.208,baseline
1438.000,331.900,88.330,22.470,1417.000,347.700,84.980,21.370,163.800,47.670,13.620,4.342,335.100,102.100,29.100,9.229,baseline
1438.000,332.300,88.730,22.450,1421.000,348.200,85.050,21.340,163.600,47.780,13.600,4.334,335.900,102.200,29.210,9.278,baseline
1440.000,332.400,88.870,22.530,1420.000,348.700,85.150,21.360,164.100,48.050,13.640,4.339,336.000,102.500,29.260,9.278,baseline
1441.000,332.100,88.710,22.570,1422.000,348.900,85.470,21.390,163.700,47.940,13.660,4.337,337.000,102.800,29.370,9.311,baseline
1443.000,333.300,89.080,22.610,1423.000,348.700,85.210,21.410,164.200,47.920,13.720,4.335,337.700,103.000,29.420,9.349,baseline
1445.000,331.900,88.870,22.540,1416.000,347.900,85.050,21.330,162.900,47.920,13.690,4.335,336.400,102.500,29.230,9.251,baseline
1437.000,330.100,88.200,22.430,1419.000,348.000,84.920,21.330,163.300,48.090,13.640,4.323,335.300,102.100,29.180,9.243,baseline
1435.000,330.900,88.050,22.360,1417.000,348.000,85.040,21.340,165.700,47.690,13.570,4.329,334.900,101.800,28.990,9.213,baseline
1435.000,330.800,88.470,22.350,1421.000,347.900,85.240,21.330,162.900,47.640,13.650,4.314,334.700,101.700,29.040,9.225,baseline
1435.000,330.500,87.980,22.420,1416.000,348.000,85.160,21.310,161.600,47.850,13.600,4.302,335.400,101.800,29.100,9.240,baseline
1436.000,332.000,88.270,22.520,1420.000,348.100,85.200,21.370,164.500,47.740,13.670,4.331,335.900,102.200,29.300,9.276,baseline
1438.000,333.500,88.510,22.480,1420.000,348.400,85.210,21.380,163.800,47.760,13.670,4.336,336.100,102.700,29.380,9.321,baseline
1441.000,334.700,89.040,22.570,1423.000,348.200,85.240,21.360,163.700,47.740,13.690,4.336,336.900,102.700,29.290,9.260,baseline
1435.000,331.700,88.340,22.310,1420.000,347.600,85.120,21.270,165.600,47.780,13.610,4.301,334.500,102.000,28.980,9.130,baseline
1431.000,330.700,87.980,22.270,1420.000,347.000,84.860,21.280,165.700,47.560,13.610,4.312,334.900,101.600,28.880,9.121,baseline
1429.000,329.500,87.750,22.190,1417.000,346.800,84.850,21.260,161.700,47.680,13.570,4.292,333.700,101.300,28.980,9.134,baseline
1429.000,330.000,87.880,22.240,1418.000,347.900,84.880,21.300,164.200,47.710,13.600,4.309,333.300,101.400,28.890,9.175,baseline
1430.000,328.900,88.070,22.290,1417.000,348.000,84.970,21.240,163.200,47.890,13.590,4.314,334.600,101.700,29.130,9.207,baseline
1431.000,330.700,87.910,22.330,1421.000,347.500,85.070,21.310,164.400,47.900,13.630,4.327,335.500,102.100,29.220,9.249,baseline
1434.000,331.600,88.230,22.420,1423.000,348.600,85.000,21.340,164.300,47.840,13.590,4.334,336.300,102.300,29.310,9.271,baseline
1438.000,332.800,88.570,22.460,1423.000,348.900,85.170,21.290,166.000,47.850,13.660,4.340,336.600,102.100,29.170,9.224,baseline
1432.000,331.000,87.860,22.200,1421.000,347.700,84.960,21.300,164.500,47.620,13.690,4.325,333.900,101.600,28.900,9.140,baseline
1429.000,329.700,87.350,22.090,1419.000,347.300,84.890,21.240,162.000,47.660,13.630,4.299,333.500,101.100,28.790,9.118,baseline
1426.000,329.300,87.390,22.060,1417.000,346.900,84.830,21.270,164.400,47.770,13.590,4.298,332.400,101.400,28.830,9.106,baseline
1426.000,329.300,87.480,22.120,1416.000,347.500,84.980,21.270,164.600,47.740,13.670,4.310,334.200,101.300,28.770,9.106,baseline
1427.000,329.000,87.570,22.190,1420.000,347.600,84.870,21.300,164.200,47.860,13.640,4.311,334.400,101.700,28.860,9.102,baseline
1430.000,329.400,87.750,22.210,1419.000,347.800,85.200,21.350,165.700,47.740,13.670,4.336,335.100,101.600,29.090,9.161,baseline
1433.000,329.800,88.380,22.320,1418.000,348.100,85.050,21.360,163.300,47.980,13.670,4.331,335.700,102.200,29.100,9.192,baseline
1437.000,331.900,88.250,22.390,1422.000,348.100,85.260,21.390,164.600,47.860,13.720,4.336,336.300,102.500,29.220,9.266,baseline
1440.000,333.100,88.640,22.480,1422.000,349.500,85.420,21.430,165.300,47.850,13.740,4.348,337.700,102.900,29.310,9.243,baseline
1438.000,331.600,88.110,22.270,1421.000,347.800,85.100,21.320,163.800,47.780,13.660,4.337,335.400,101.600,28.910,9.107,baseline
1432.000,330.600,87.820,22.230,1420.000,347.600,84.930,21.330,164.000,47.690,13.600,4.299,334.600,101.600,28.850,9.094,baseline
1429.000,329.600,87.490,22.140,1420.000,347.900,85.140,21.390,164.800,47.840,13.680,4.322,334.300,101.400,28.900,9.093,baseline
1432.000,330.600,87.640,22.160,1420.000,347.900,85.140,21.360,164.900,47.710,13.690,4.340,334.100,101.400,28.980,9.128,baseline
1432.000,331.400,88.100,22.220,1421.000,348.400,85.210,21.390,163.600,47.880,13.670,4.320,334.900,101.700,29.060,9.128,baseline
1435.000,332.000,88.040,22.320,1421.000,349.000,85.230,21.450,163.300,47.670,13.710,4.334,335.500,101.900,29.070,9.168,baseline
1437.000,332.600,88.440,22.320,1424.000,348.900,85.340,21.450,165.100,48.140,13.690,4.354,337.400,102.500,29.190,9.248,baseline
1441.000,333.100,88.810,22.450,1425.000,350.000,85.330,21.480,164.500,48.030,13.750,4.340,338.600,102.700,29.410,9.293,baseline
1445.000,333.500,89.090,22.570,1426.000,349.700,85.680,21.560,164.400,48.080,13.750,4.371,340.000,103.000,29.480,9.324,baseline
1448.000,335.300,89.140,22.570,1430.000,350.100,85.580,21.490,164.400,47.980,13.840,4.376,339.300,103.000,29.320,9.276,baseline
1443.000,333.900,88.590,22.410,1420.000,349.900,85.350,21.450,166.100,48.380,13.700,4.342,337.500,102.500,29.130,9.216,baseline
1439.000,332.500,88.390,22.300,1425.000,349.500,85.420,21.450,163.200,48.100,13.760,4.327,336.300,102.400,29.100,9.143,baseline
1439.000,333.200,88.400,22.360,1423.000,349.500,85.520,21.470,164.600,47.860,13.700,4.349,337.200,102.400,29.150,9.171,baseline
1442.000,333.800,88.660,22.380,1424.000,349.900,85.610,21.460,164.300,48.030,13.740,4.360,336.900,102.200,29.200,9.209,baseline
1445.000,335.800,88.710,22.510,1425.000,349.900,85.730,21.630,165.700,48.210,13.700,4.365,337.600,102.900,29.290,9.221,baseline
1447.000,335.400,89.020,22.510,1426.000,349.700,85.790,21.560,164.500,48.030,13.710,4.372,339.700,103.000,29.400,9.274,baseline
1449.000,334.900,89.020,22.620,1429.000,350.700,85.930,21.610,163.400,48.260,13.780,4.384,339.600,103.700,29.620,9.320,baseline
1453.000,336.200,89.460,22.680,1429.000,350.500,86.010,21.620,165.100,48.140,13.800,4.362,340.700,103.500,29.540,9.289,baseline
1449.000,335.400,88.940,22.490,1429.000,350.100,85.700,21.520,165.500,48.120,13.740,4.355,338.200,102.800,29.170,9.194,baseline
1447.000,333.900,88.620,22.490,1428.000,350.200,85.690,21.520,165.500,47.850,13.720,4.340,336.900,102.800,29.130,9.207,baseline
1447.000,334.400,88.720,22.480,1428.000,350.400,85.720,21.580,164.100,48.010,13.750,4.364,338.000,102.600,29.230,9.214,baseline
1449.000,334.000,89.150,22.520,1430.000,350.300,85.770,21.570,164.100,48.220,13.750,4.358,338.700,103.000,29.330,9.234,baseline
1450.000,334.100,89.180,22.540,1430.000,349.800,85.920,21.590,165.800,48.400,13.770,4.376,338.900,103.000,29.330,9.271,baseline
1453.000,336.000,89.300,22.640,1430.000,350.900,85.960,21.640,164.900,48.160,13.730,4.387,339.900,103.300,29.570,9.315,baseline
1457.000,338.300,89.870,22.690,1432.000,351.000,86.130,21.670,164.600,48.260,13.830,4.378,340.700,103.800,29.610,9.364,baseline
1459.000,337.900,89.590,22.780,1436.000,351.100,86.150,21.640,164.900,48.200,13.850,4.375,341.400,103.600,29.480,9.292,baseline
1455.000,335.400,89.440,22.570,1432.000,350.600,85.910,21.610,165.800,48.340,13.750,4.369,338.700,103.100,29.220,9.230,baseline
1453.000,336.300,89.150,22.500,1431.000,351.300,85.840,21.630,164.700,48.250,13.730,4.363,338.400,102.700,29.120,9.184,baseline
1452.000,334.800,88.880,22.500,1430.000,351.300,86.070,21.640,165.100,48.360,13.750,4.341,338.200,102.400,29.090,9.170,baseline
1454.000,336.900,89.270,22.480,1431.000,351.200,86.150,21.660,163.600,47.740,13.740,4.333,338.000,102.700,29.150,9.179,baseline
1456.000,335.500,89.160,22.600,1431.000,352.600,86.210,21.690,165.800,47.970,13.700,4.362,338.100,102.500,29.190,9.226,baseline
1459.000,337.000,89.750,22.660,1432.000,351.900,86.230,21.710,164.600,47.960,13.760,4.346,338.200,102.700,29.280,9.285,baseline
1463.000,337.300,90.310,22.770,1435.000,351.800,86.340,21.750,164.600,47.900,13.680,4.371,339.400,103.000,29.360,9.245,baseline
1465.000,338.600,90.030,22.780,1434.000,352.000,86.260,21.690,164.200,47.930,13.690,4.394,338.900,102.600,29.260,9.188,baseline
1458.000,336.700,88.840,22.570,1434.000,352.000,86.080,21.640,164.200,47.690,13.680,4.336,336.300,101.900,29.040,9.123,baseline
1456.000,335.700,89.160,22.510,1431.000,351.400,86.170,21.650,163.600,48.020,13.650,4.326,335.300,101.600,28.760,9.062,baseline
1455.000,335.300,88.950,22.450,1434.000,351.400,86.120,21.640,163.200,47.830,13.600,4.319,335.100,101.200,28.900,9.087,baseline
1455.000,334.300,89.200,22.440,1432.000,351.100,86.000,21.620,163.000,47.560,13.630,4.316,335.300,101.300,28.910,9.090,baseline
1455.000,334.800,89.250,22.530,1432.000,350.800,86.060,21.670,162.900,47.530,13.650,4.330,335.700,101.900,29.020,9.138,baseline
1456.000,336.500,89.270,22.570,1430.000,351.600,86.120,21.710,163.500,47.460,13.630,4.327,335.700,102.000,29.100,9.142,baseline
1459.000,336.600,89.490,22.600,1438.000,351.600,86.190,21.700,163.700,47.600,13.690,4.333,335.100,102.000,29.140,9.203,baseline
1461.000,337.500,89.640,22.710,1435.000,351.900,86.270,21.710,162.700,47.810,13.600,4.331,336.700,102.400,29.130,9.135,baseline
1456.000,334.900,88.900,22.500,1429.000,350.500,85.980,21.610,161.100,47.580,13.600,4.327,334.100,101.300,28.860,9.070,baseline
1451.000,333.200,88.900,22.340,1430.000,350.400,85.730,21.550,163.400,47.450,13.610,4.315,333.000,100.700,28.700,9.048,baseline
1447.000,333.400,88.410,22.340,1429.000,350.400,85.840,21.600,163.700,47.600,13.590,4.311,332.100,100.600,28.540,9.000,baseline
1447.000,332.000,88.570,22.330,1429.000,350.200,85.940,21.600,162.100,47.370,13.570,4.315,332.700,100.800,28.630,9.013,baseline
1447.000,332.800,88.530,22.430,1428.000,350.100,85.880,21.560,162.400,47.580,13.570,4.320,333.100,100.900,28.780,9.036,baseline
1448.000,333.500,88.660,22.420,1429.000,349.500,85.780,21.650,163.000,47.170,13.590,4.315,333.100,101.400,28.790,9.066,baseline
1449.000,333.500,88.810,22.430,1431.000,350.300,85.860,21.600,162.800,47.190,13.580,4.324,334.300,101.400,28.930,9.113,baseline
1451.000,334.000,88.870,22.520,1430.000,350.500,85.910,21.670,162.000,47.520,13.620,4.333,335.000,101.300,28.940,9.128,baseline
1452.000,333.400,88.940,22.430,1431.000,349.700,85.760,21.560,163.400,47.310,13.640,4.321,333.100,100.700,28.740,9.028,baseline
1445.000,331.800,88.110,22.290,1427.000,349.300,85.500,21.560,161.800,47.210,13.570,4.296,331.100,100.200,28.570,8.985,baseline
1441.000,331.100,88.220,22.250,1427.000,349.400,85.340,21.530,162.000,47.520,13.540,4.294,330.200,100.200,28.490,8.945,baseline
1441.000,330.800,88.250,22.300,1428.000,349.300,85.660,21.510,163.200,47.120,13.550,4.313,330.400,100.100,28.490,8.978,baseline
1441.000,331.400,88.080,22.290,1427.000,349.500,85.540,21.550,162.700,47.290,13.590,4.293,331.100,100.100,28.570,9.016,baseline
1443.000,332.900,88.380,22.290,1427.000,350.300,85.760,21.520,162.500,47.500,13.530,4.316,331.300,100.700,28.610,9.045,baseline
1444.000,333.200,88.570,22.420,1428.000,349.600,85.730,21.560,163.200,47.600,13.600,4.318,332.500,100.900,28.840,9.068,baseline
1447.000,334.200,88.670,22.450,1431.000,350.100,85.560,21.640,163.300,47.380,13.600,4.323,332.500,100.900,28.940,9.106,baseline
1449.000,333.200,88.760,22.500,1431.000,350.600,85.970,21.580,163.000,47.290,13.580,4.340,333.200,101.200,28.750,9.075,baseline
1445.000,331.700,88.450,22.320,1429.000,349.400,85.580,21.510,161.000,47.310,13.610,4.304,330.500,99.990,28.480,8.989,baseline
1440.000,331.200,87.970,22.230,1427.000,349.200,85.430,21.470,164.100,47.330,13.510,4.296,329.100,99.440,28.410,8.917,baseline
1438.000,331.400,87.850,22.150,1426.000,349.300,85.460,21.500,161.400,47.090,13.500,4.294,329.300,99.150,28.320,8.921,baseline
1438.000,331.300,88.060,22.180,1431.000,348.900,85.350,21.490,161.100,47.260,13.510,4.289,329.200,99.380,28.330,8.921,baseline
1438.000,329.800,87.930,22.220,1426.000,349.500,85.450,21.500,161.700,47.090,13.500,4.296,329.400,99.580,28.370,8.976,baseline
1440.000,329.600,87.960,22.200,1425.000,349.500,85.410,21.510,161.900,46.860,13.440,4.294,329.600,99.740,28.410,8.984,baseline
1442.000,331.500,88.220,22.310,1428.000,350.300,85.600,21.530,161.400,47.230,13.510,4.304,329.600,100.100,28.580,9.039,baseline
1445.000,332.600,88.530,22.450,1428.000,350.800,85.800,21.570,160.600,47.180,13.530,4.298,330.600,100.300,28.610,9.085,baseline
1448.000,333.800,88.760,22.560,1431.000,350.600,85.800,21.570,160.400,47.040,13.510,4.328,331.900,100.200,28.600,9.036,baseline
1444.000,331.700,88.210,22.300,1430.000,349.900,85.670,21.440,161.800,47.260,13.460,4.305,329.400,99.660,28.230,8.959,baseline
1439.000,330.800,87.570,22.220,1429.000,349.800,85.450,21.460,160.400,46.990,13.470,4.275,326.900,99.080,28.200,8.886,baseline
1435.000,329.600,87.310,22.140,1427.000,349.100,85.350,21.410,161.800,46.840,13.430,4.277,327.000,98.900,28.130,8.854,baseline
1435.000,328.700,87.470,22.140,1426.000,349.000,85.330,21.400,160.600,46.550,13.400,4.287,326.800,98.780,28.100,8.877,baseline
1435.000,329.800,87.210,22.140,1425.000,348.500,85.360,21.410,160.500,46.680,13.380,4.269,327.200,98.910,28.150,8.916,baseline
1436.000,330.700,87.680,22.270,1424.000,349.200,85.460,21.480,159.800,46.890,13.450,4.269,328.800,99.210,28.310,8.961,baseline
1439.000,330.200,88.110,22.340,1426.000,349.700,85.720,21.500,160.100,46.630,13.440,4.284,329.900,99.610,28.500,8.996,baseline
1443.000,331.800,88.490,22.380,1429.000,350.800,85.700,21.500,160.500,46.960,13.490,4.306,331.400,100.300,28.880,9.089,baseline
1445.000,332.800,88.670,22.400,1428.000,350.400,85.610,21.520,160.900,47.120,13.570,4.332,332.000,100.300,28.620,9.035,baseline
1439.000,330.200,87.870,22.290,1426.000,349.600,85.510,21.430,160.200,47.260,13.550,4.315,329.400,99.760,28.510,8.979,baseline
1435.000,328.700,87.650,22.170,1427.000,349.000,85.300,21.400,161.100,47.500,13.580,4.315,329.000,99.960,28.400,8.938,baseline
1434.000,329.100,87.460,22.200,1425.000,349.500,85.520,21.370,161.600,47.600,13.610,4.318,329.900,99.820,28.390,8.996,baseline
1434.000,329.500,87.470,22.170,1423.000,348.900,85.400,21.410,162.400,47.340,13.560,4.329,329.100,99.860,28.480,9.019,baseline
1437.000,329.800,88.010,22.240,1427.000,349.900,85.480,21.450,162.200,47.470,13.540,4.329,330.500,100.100,28.620,9.064,baseline
1438.000,330.900,87.810,22.330,1427.000,350.000,85.540,21.460,162.500,47.310,13.630,4.343,331.100,100.400,28.740,9.094,baseline
1440.000,331.900,88.100,22.390,1429.000,350.700,85.680,21.450,163.100,47.460,13.620,4.349,332.400,100.700,28.850,9.176,baseline
1443.000,332.900,88.610,22.470,1431.000,350.300,85.770,21.460,162.500,47.780,13.670,4.358,333.600,101.000,28.860,9.104,baseline
1438.000,331.300,88.050,22.250,1426.000,349.900,85.430,21.430,164.400,47.580,13.650,4.329,330.000,100.400,28.590,9.049,baseline
1435.000,330.800,87.570,22.190,1422.000,349.700,85.480,21.370,165.100,47.480,13.650,4.328,330.600,100.300,28.510,8.981,baseline
1433.000,329.300,87.370,22.200,1423.000,350.000,85.380,21.370,163.100,47.750,13.600,4.333,330.100,100.100,28.560,9.017,baseline
1435.000,329.800,87.890,22.220,1424.000,349.300,85.330,21.370,163.400,47.660,13.660,4.331,330.400,100.300,28.660,9.048,baseline
1435.000,330.900,87.650,22.220,1426.000,349.800,85.460,21.390,163.000,47.730,13.630,4.350,331.900,100.700,28.740,9.106,baseline
1437.000,331.400,88.120,22.330,1426.000,350.000,85.530,21.410,163.400,48.080,13.690,4.356,331.600,101.200,28.870,9.163,baseline
1440.000,331.500,88.250,22.470,1427.000,350.100,85.600,21.400,164.000,47.900,13.700,4.352,332.900,101.300,28.890,9.203,baseline
1443.000,332.700,88.440,22.480,1429.000,349.900,85.550,21.410,164.600,47.780,13.710,4.367,333.200,101.300,28.890,9.154,baseline
1438.000,331.300,87.890,22.240,1426.000,349.400,85.480,21.340,162.800,47.970,13.660,4.355,331.700,100.700,28.620,9.040,baseline
1433.000,330.800,87.560,22.140,1424.000,349.400,85.340,21.390,161.100,47.840,13.670,4.350,329.700,100.200,28.550,9.005,baseline
1432.000,329.100,87.550,22.180,1423.000,349.100,85.300,21.350,163.500,47.730,13.650,4.325,330.200,99.890,28.560,8.995,baseline
1433.000,330.000,87.630,22.240,1424.000,349.700,85.250,21.350,163.800,47.850,13.660,4.346,330.700,100.300,28.480,9.029,baseline
1434.000,331.100,87.620,22.180,1425.000,349.400,85.240,21.360,164.200,47.560,13.700,4.354,331.100,100.300,28.700,9.070,baseline
1437.000,331.100,88.090,22.330,1427.000,350.100,85.670,21.380,162.900,47.670,13.700,4.332,331.800,101.000,28.690,9.115,baseline
1440.000,332.500,88.480,22.390,1428.000,350.500,85.500,21.380,163.900,47.840,13.670,4.338,333.100,101.000,28.870,9.162,baseline
1441.000,330.800,88.920,22.460,1428.000,350.300,85.600,21.420,163.700,47.910,13.710,4.379,333.700,101.200,28.840,9.136,baseline
1437.000,331.200,87.850,22.260,1425.000,349.200,85.410,21.310,163.200,47.830,13.670,4.347,331.600,100.400,28.550,9.001,baseline
1434.000,330.500,88.020,22.140,1424.000,350.000,85.360,21.330,163.300,47.560,13.650,4.338,330.500,99.880,28.410,8.985,baseline
1432.000,330.000,87.740,22.190,1424.000,349.100,85.360,21.330,162.800,47.630,13.660,4.339,330.400,100.300,28.500,9.007,baseline
1433.000,330.400,87.900,22.180,1424.000,350.000,85.490,21.330,163.700,47.520,13.650,4.332,330.300,100.200,28.550,9.025,baseline
1433.000,331.900,87.760,22.300,1423.000,349.400,85.490,21.380,164.000,47.730,13.630,4.346,330.400,100.300,28.670,9.046,baseline
1436.000,331.100,88.200,22.330,1425.000,350.100,85.620,21.420,162.300,47.980,13.670,4.358,331.700,100.700,28.680,9.079,baseline
1439.000,333.000,88.370,22.440,1429.000,350.500,85.680,21.420,164.300,47.950,13.720,4.366,332.500,100.900,28.820,9.123,baseline
1441.000,332.700,88.760,22.460,1431.000,350.400,85.570,21.420,162.700,47.710,13.720,4.350,333.800,101.200,28.740,9.093,baseline
1436.000,331.400,88.310,22.320,1424.000,350.000,85.510,21.360,165.100,47.920,13.650,4.341,331.300,100.500,28.590,9.008,baseline
1435.000,330.100,87.960,22.240,1426.000,349.900,85.570,21.340,163.900,47.560,13.660,4.342,329.900,99.970,28.410,8.962,baseline
1433.000,330.300,88.220,22.270,1426.000,350.000,85.560,21.390,163.200,47.390,13.660,4.320,329.800,99.790,28.530,8.978,baseline
1435.000,330.900,88.070,22.290,1425.000,350.200,85.520,21.330,163.900,47.680,13.640,4.324,330.200,100.200,28.510,8.978,baseline
1435.000,331.900,87.990,22.300,1423.000,349.800,85.500,21.400,162.900,47.560,13.600,4.335,331.100,100.500,28.550,9.001,baseline
1437.000,332.100,88.310,22.370,1425.000,350.800,85.730,21.420,164.500,47.630,13.650,4.323,331.500,100.400,28.640,9.093,baseline
1439.000,332.600,88.540,22.400,1429.000,349.800,85.530,21.370,163.800,47.660,13.680,4.343,333.100,101.000,28.780,9.100,baseline
1439.000,332.300,88.400,22.380,1426.000,349.700,85.590,21.400,164.200,48.000,13.590,4.335,331.100,100.300,28.510,8.989,baseline
1432.000,332.000,87.980,22.250,1421.000,349.300,85.590,21.320,164.000,47.760,13.600,4.327,329.500,99.780,28.390,8.927,baseline
1430.000,330.100,88.070,22.250,1423.000,349.600,85.580,21.360,162.800,47.690,13.610,4.302,329.900,99.720,28.430,8.960,baseline
1432.000,330.100,88.140,22.280,1422.000,349.900,85.370,21.420,163.300,47.550,13.570,4.307,330.400,100.000,28.410,8.978,baseline
1432.000,330.900,88.170,22.340,1422.000,349.700,85.770,21.420,164.800,47.510,13.570,4.322,329.900,100.000,28.450,8.994,baseline
1435.000,332.300,88.390,22.390,1424.000,350.400,85.780,21.460,165.300,47.770,13.650,4.328,331.500,100.400,28.490,9.043,baseline
1439.000,333.000,88.680,22.430,1427.000,350.900,85.890,21.470,161.900,47.680,13.610,4.324,332.200,100.800,28.640,9.061,baseline
1441.000,333.000,88.820,22.450,1423.000,349.500,85.350,21.350,162.900,47.920,13.580,4.308,332.600,100.500,28.530,8.987,baseline
1435.000,331.700,87.730,22.160,1423.000,348.200,85.120,21.290,165.100,47.610,13.600,4.280,329.200,99.360,28.290,8.922,baseline
1430.000,328.500,87.450,22.130,1423.000,348.400,84.990,21.240,163.700,47.360,13.520,4.281,328.200,99.220,28.170,8.867,baseline
1430.000,329.200,87.310,22.020,1421.000,347.000,84.920,21.220,161.800,47.250,13.520,4.284,328.100,99.090,28.240,8.878,baseline
1429.000,328.500,87.180,22.020,1422.000,346.900,84.540,21.140,164.500,47.130,13.510,4.258,327.300,99.010,28.190,8.925,baseline
1428.000,328.200,87.210,22.100,1419.000,346.300,84.500,21.160,163.800,47.260,13.480,4.276,329.000,99.370,28.380,8.930,baseline
1430.000,327.600,87.320,22.010,1420.000,346.300,84.550,21.160,162.400,47.190,13.500,4.278,329.000,99.600,28.450,8.989,baseline
1434.000,328.500,87.230,22.110,1421.000,345.500,84.250,21.070,163.100,47.370,13.500,4.282,330.600,100.200,28.510,9.002,baseline
1436.000,328.200,86.750,21.930,1422.000,344.900,83.750,20.940,164.800,47.220,13.470,4.281,329.200,99.820,28.320,8.909,baseline
1427.000,324.500,85.860,21.730,1419.000,343.400,83.570,20.900,162.500,47.150,13.460,4.246,326.500,98.880,28.040,8.827,baseline
1424.000,324.600,85.670,21.690,1415.000,343.600,83.750,20.960,162.400,47.090,13.330,4.249,325.800,98.700,28.020,8.828,baseline
1424.000,325.200,85.710,21.820,1415.000,344.600,84.100,21.060,161.100,47.040,13.410,4.252,326.600,98.970,28.110,8.868,baseline
1424.000,326.300,86.620,21.910,1420.000,345.800,84.640,21.260,160.800,47.130,13.430,4.271,327.100,99.230,28.260,8.879,baseline
1428.000,328.600,87.440,22.230,1418.000,347.300,85.240,21.330,163.900,47.190,13.460,4.273,328.700,99.400,28.310,8.928,baseline
1427.000,330.000,87.840,22.310,1419.000,348.500,85.340,21.400,164.900,47.320,13.470,4.295,329.800,100.200,28.480,9.005,baseline
1433.000,331.700,88.640,22.570,1425.000,350.800,86.200,21.640,164.700,47.410,13.550,4.329,331.400,100.400,28.700,9.090,baseline
1443.000,335.600,89.860,22.710,1435.000,352.800,86.630,21.660,164.900,47.820,13.560,4.343,332.700,100.800,28.770,9.102,baseline
1444.000,333.900,89.090,22.570,1430.000,352.100,86.220,21.620,164.800,47.630,13.590,4.312,330.500,99.870,28.410,8.993,baseline
1439.000,333.700,88.920,22.490,1429.000,351.400,86.130,21.560,164.200,47.510,13.510,4.305,328.600,99.530,28.290,8.938,baseline
1436.000,332.500,88.620,22.490,1431.000,350.700,86.040,21.600,162.500,47.510,13.550,4.308,329.800,99.900,28.360,8.946,baseline
1437.000,332.300,88.840,22.510,1429.000,350.900,85.910,21.640,162.300,47.350,13.570,4.316,330.800,100.400,28.550,8.966,baseline
1438.000,332.200,89.010,22.530,1428.000,351.000,85.830,21.600,164.300,47.800,13.590,4.314,331.200,100.500,28.590,9.013,baseline
1438.000,332.800,88.830,22.580,1427.000,350.600,85.880,21.590,163.600,47.630,13.620,4.308,331.900,100.400,28.710,9.072,baseline
1441.000,332.000,89.140,22.640,1427.000,350.200,85.980,21.630,163.300,48.050,13.600,4.329,333.300,101.400,28.840,9.114,baseline
1442.000,333.200,89.080,22.690,1428.000,350.400,85.890,21.590,164.300,47.820,13.680,4.335,334.100,101.700,28.880,9.117,baseline
1440.000,332.000,88.660,22.490,1428.000,349.700,85.630,21.500,163.900,47.730,13.610,4.320,331.800,100.600,28.670,8.986,baseline
1430.000,330.800,88.100,22.420,1421.000,349.000,85.300,21.400,163.300,47.510,13.560,4.312,332.200,100.400,28.500,8.997,baseline
1430.000,331.000,87.930,22.390,1423.000,348.700,85.200,21.460,165.100,47.640,13.600,4.324,331.800,100.500,28.570,9.031,baseline
1429.000,330.500,88.190,22.450,1421.000,348.600,85.350,21.530,163.200,47.690,13.580,4.328,331.900,100.700,28.590,9.074,baseline
1429.000,330.900,87.940,22.470,1421.000,348.500,85.210,21.490,164.400,47.810,13.640,4.317,332.800,100.900,28.780,9.071,baseline
1431.000,330.200,88.440,22.570,1422.000,348.700,84.990,21.500,164.700,47.620,13.610,4.331,333.900,101.500,28.980,9.104,baseline
1434.000,331.300,88.740,22.600,1423.000,349.200,85.180,21.480,164.600,47.560,13.650,4.327,335.000,101.700,29.050,9.204,baseline
1437.000,332.500,88.850,22.600,1424.000,348.200,85.020,21.420,164.300,47.770,13.650,4.335,334.900,101.700,28.890,9.086,baseline
1427.000,330.900,87.650,22.400,1421.000,347.100,84.930,21.400,164.200,47.700,13.580,4.300,332.400,100.600,28.690,9.037,baseline
1425.000,328.400,87.610,22.410,1420.000,347.200,84.730,21.400,164.200,47.250,13.560,4.297,333.100,100.600,28.590,9.033,baseline
1425.000,328.500,87.670,22.380,1416.000,347.000,84.680,21.370,164.700,47.410,13.540,4.306,332.600,101.000,28.670,9.044,baseline
1423.000,328.300,87.540,22.400,1415.000,347.100,84.680,21.440,164.600,47.540,13.570,4.302,332.200,101.100,28.710,9.055,baseline
1426.000,331.300,88.070,22.450,1419.000,348.100,85.040,21.500,164.600,47.830,13.580,4.311,334.500,101.200,28.930,9.124,baseline
1428.000,329.800,88.430,22.620,1421.000,348.600,85.190,21.500,163.700,47.690,13.630,4.312,335.900,101.900,29.050,9.189,baseline
1434.000,331.600,89.110,22.700,1421.000,348.700,85.380,21.540,165.400,47.950,13.640,4.334,336.900,102.400,29.300,9.246,baseline
1437.000,330.900,88.620,22.640,1420.000,348.200,85.140,21.490,165.200,47.710,13.600,4.327,335.300,101.900,28.840,9.124,baseline
1426.000,330.000,87.710,22.460,1416.000,347.700,85.030,21.430,162.300,47.520,13.550,4.288,333.500,101.600,28.760,9.079,baseline
1423.000,328.900,87.890,22.340,1415.000,347.200,84.930,21.420,164.500,47.590,13.560,4.313,332.700,101.100,28.790,9.081,baseline
1424.000,329.900,87.850,22.440,1422.000,348.100,85.050,21.460,163.700,47.760,13.590,4.300,334.300,101.200,28.850,9.070,baseline
1426.000,329.900,88.390,22.380,1419.000,348.200,85.000,21.450,163.600,47.760,13.630,4.325,335.600,101.800,29.060,9.174,baseline
1427.000,329.900,88.400,22.500,1422.000,348.100,85.330,21.510,166.100,48.170,13.740,4.351,338.400,102.500,29.320,9.224,baseline
1432.000,330.900,88.680,22.600,1420.000,349.000,85.510,21.530,167.100,48.220,13.720,4.363,338.200,102.700,29.200,9.233,baseline
1436.000,332.600,88.930,22.750,1423.000,349.200,85.460,21.560,165.100,48.070,13.640,4.363,337.400,102.800,29.280,9.252,baseline
1437.000,331.900,88.260,22.580,1421.000,348.000,85.410,21.460,163.100,47.690,13.670,4.337,335.700,101.600,28.990,9.135,baseline
1428.000,330.100,88.290,22.410,1422.000,347.200,85.410,21.460,165.500,47.630,13.590,4.318,334.400,101.300,28.830,9.105,baseline
1428.000,329.400,88.220,22.450,1420.000,347.700,85.270,21.480,163.500,47.760,13.580,4.324,333.700,101.400,28.850,9.130,baseline
1430.000,330.600,88.160,22.520,1422.000,348.800,85.440,21.430,165.300,47.780,13.650,4.337,335.000,101.500,28.870,9.157,baseline
1434.000,331.400,88.390,22.400,1424.000,349.100,85.160,21.350,165.300,47.880,13.660,4.321,334.500,101.700,29.040,9.190,baseline
1434.000,331.800,88.460,22.460,1423.000,349.000,85.470,21.440,163.700,47.990,13.700,4.348,336.500,102.200,29.050,9.244,baseline
1439.000,331.500,88.970,22.580,1423.000,349.900,85.610,21.530,164.900,47.990,13.700,4.336,337.000,102.400,29.260,9.295,baseline
1444.000,332.700,89.210,22.730,1427.000,350.200,85.880,21.570,166.900,47.660,13.740,4.351,338.500,103.000,29.360,9.299,baseline
1444.000,332.500,88.740,22.590,1427.000,349.400,85.620,21.510,165.700,47.960,13.680,4.350,336.400,102.000,29.000,9.217,baseline
1436.000,331.600,88.350,22.500,1424.000,348.800,85.500,21.500,164.500,47.950,13.640,4.331,334.400,101.900,28.960,9.135,baseline
1436.000,330.600,88.630,22.510,1427.000,349.000,85.680,21.540,165.700,47.790,13.680,4.328,334.500,101.600,29.010,9.189,baseline
1438.000,331.800,88.390,22.490,1428.000,350.300,85.600,21.530,164.200,47.730,13.570,4.336,334.800,102.000,29.020,9.212,baseline
1440.000,333.700,88.900,22.600,1426.000,349.800,85.720,21.530,163.400,47.880,13.610,4.329,335.200,102.000,29.110,9.223,baseline
1443.000,333.700,89.180,22.700,1428.000,350.000,85.720,21.580,163.400,47.790,13.670,4.347,335.900,102.300,29.140,9.269,baseline
1446.000,333.800,89.430,22.770,1429.000,350.400,85.970,21.640,164.700,48.120,13.700,4.341,337.200,102.600,29.340,9.308,baseline
1450.000,335.600,89.360,22.750,1431.000,351.000,85.820,21.590,164.200,47.810,13.670,4.365,337.100,102.500,29.070,9.216,baseline
1440.000,332.800,88.790,22.490,1429.000,349.700,85.610,21.470,164.300,48.090,13.630,4.320,334.400,101.700,28.900,9.145,baseline
1438.000,332.600,88.470,22.480,1424.000,350.300,85.520,21.460,165.400,47.750,13.590,4.312,334.000,101.300,28.830,9.139,baseline
1439.000,332.900,88.400,22.510,1427.000,349.700,85.730,21.510,165.400,47.850,13.630,4.309,333.500,101.500,28.990,9.152,baseline
1441.000,332.700,88.590,22.560,1430.000,349.900,85.600,21.560,164.500,47.710,13.560,4.324,333.900,101.800,28.910,9.173,baseline
1441.000,332.700,88.870,22.660,1429.000,349.700,85.580,21.570,164.900,47.450,13.640,4.321,334.500,102.000,29.040,9.232,baseline
1445.000,334.600,89.220,22.720,1430.000,351.400,85.910,21.620,164.600,47.720,13.620,4.320,336.200,102.100,29.170,9.291,baseline
1449.000,334.900,89.210,22.820,1428.000,351.100,85.920,21.570,164.000,47.900,13.620,4.327,336.900,102.300,29.180,9.225,baseline
1444.000,333.200,88.740,22.480,1428.000,349.700,85.470,21.500,165.100,47.470,13.610,4.305,333.600,101.100,28.870,9.152,baseline
1439.000,332.800,88.580,22.500,1429.000,349.400,85.480,21.450,163.500,47.480,13.510,4.314,332.300,101.200,28.670,9.123,baseline
1437.000,331.900,88.170,22.480,1422.000,349.200,85.600,21.470,162.800,47.550,13.540,4.300,332.400,100.900,28.780,9.122,baseline
1437.000,332.700,88.420,22.460,1425.000,349.500,85.490,21.500,163.200,47.180,13.550,4.300,332.500,101.000,28.740,9.109,baseline
1439.000,332.800,88.260,22.560,1423.000,349.200,85.590,21.510,163.600,47.680,13.570,4.294,333.200,101.500,28.860,9.178,baseline
1442.000,332.800,89.020,22.670,1423.000,350.000,85.600,21.500,161.500,47.870,13.530,4.309,334.100,101.700,29.030,9.204,baseline
1445.000,334.600,88.960,22.670,1427.000,350.300,85.670,21.540,164.200,47.720,13.570,4.321,335.200,101.900,29.110,9.237,baseline
1446.000,333.600,88.740,22.600,1425.000,349.000,85.510,21.470,163.500,47.910,13.570,4.322,333.800,100.900,28.740,9.116,baseline
1437.000,331.700,88.340,22.430,1427.000,349.700,85.370,21.420,161.200,47.350,13.530,4.281,331.700,100.600,28.660,9.023,baseline
1435.000,331.800,88.260,22.370,1426.000,349.200,85.530,21.440,162.100,47.460,13.490,4.261,330.900,100.300,28.520,9.018,baseline
1436.000,330.500,88.090,22.380,1420.000,348.800,85.400,21.370,163.300,47.350,13.490,4.278,331.300,100.500,28.530,9.066,baseline
1435.000,332.100,88.230,22.490,1425.000,348.900,85.460,21.420,164.300,47.510,13.470,4.280,331.200,100.700,28.680,9.090,baseline
1438.000,332.300,88.490,22.510,1424.000,349.300,85.560,21.490,162.600,47.510,13.540,4.300,332.200,100.900,28.890,9.108,baseline
1441.000,332.800,88.830,22.610,1427.000,349.500,85.620,21.520,165.600,47.140,13.560,4.298,332.900,101.300,28.890,9.175,baseline
1442.000,334.200,88.850,22.670,1427.000,349.900,85.600,21.520,163.300,47.100,13.510,4.302,333.200,101.100,28.760,9.093,baseline
1435.000,330.800,88.480,22.360,1427.000,350.000,85.390,21.470,162.300,47.390,13.460,4.267,330.900,100.300,28.490,9.014,baseline
1432.000,331.200,87.770,22.380,1424.000,349.000,85.330,21.430,163.900,47.610,13.500,4.271,329.800,100.200,28.500,8.939,baseline
1431.000,330.400,88.010,22.310,1423.000,348.900,85.460,21.430,161.800,47.090,13.470,4.278,330.100,100.200,28.550,9.013,baseline
1432.000,331.400,88.310,22.380,1427.000,348.400,85.470,21.450,162.500,47.580,13.510,4.295,329.900,100.000,28.630,9.014,baseline
1434.000,331.600,88.190,22.500,1424.000,350.000,85.640,21.500,163.000,47.170,13.520,4.291,330.900,100.600,28.660,9.059,baseline
1435.000,331.400,88.670,22.570,1424.000,350.100,85.670,21.540,162.900,47.390,13.530,4.299,332.500,100.800,28.850,9.136,baseline
1439.000,332.900,88.910,22.650,1427.000,350.200,85.720,21.620,162.800,47.710,13.550,4.314,333.300,101.200,28.960,9.164,baseline
1442.000,333.600,88.550,22.500,1427.000,349.600,85.620,21.480,163.800,47.370,13.560,4.297,331.800,100.500,28.650,9.035,baseline
1434.000,331.400,88.030,22.370,1425.000,349.300,85.460,21.480,163.900,47.490,13.500,4.274,331.300,100.100,28.450,8.984,baseline
1432.000,330.800,88.160,22.380,1423.000,349.300,85.470,21.440,163.400,47.230,13.510,4.281,330.100,100.000,28.470,8.978,baseline
1434.000,331.700,88.170,22.360,1424.000,349.600,85.600,21.500,161.800,47.230,13.500,4.295,329.700,99.940,28.520,8.979,baseline
1435.000,331.500,88.190,22.470,1426.000,349.100,85.560,21.550,162.900,47.320,13.520,4.279,330.300,100.200,28.560,9.031,baseline
1436.000,332.300,88.470,22.450,1425.000,350.000,85.900,21.580,163.800,47.520,13.490,4.295,330.700,100.500,28.570,9.063,baseline
1439.000,332.400,88.880,22.580,1427.000,350.100,85.740,21.570,163.700,47.420,13.530,4.287,332.500,100.900,28.740,9.094,baseline
1442.000,332.700,89.060,22.520,1426.000,349.600,85.590,21.460,163.700,47.350,13.530,4.302,331.700,100.500,28.500,8.982,baseline
1431.000,329.800,88.160,22.370,1420.000,348.800,85.540,21.530,164.000,47.430,13.520,4.278,329.700,99.760,28.300,8.941,baseline
1429.000,330.700,88.020,22.310,1422.000,348.800,85.570,21.450,162.000,47.210,13.490,4.268,328.400,99.600,28.400,8.930,baseline
1430.000,330.900,88.260,22.320,1420.000,349.500,85.560,21.480,163.000,47.360,13.510,4.301,328.800,99.860,28.340,8.957,baseline
1432.000,329.900,88.270,22.390,1422.000,349.400,85.700,21.530,163.900,47.370,13.530,4.298,330.200,100.300,28.430,9.004,baseline
1433.000,332.400,88.800,22.440,1422.000,349.400,85.760,21.540,162.100,47.380,13.490,4.317,331.300,100.600,28.650,9.027,baseline
1437.000,333.600,88.470,22.520,1424.000,349.900,85.880,21.620,161.900,47.410,13.560,4.315,332.800,100.800,28.780,9.079,baseline
1439.000,332.300,88.830,22.630,1427.000,349.800,85.680,21.580,163.600,47.490,13.580,4.324,333.700,100.900,28.740,9.029,baseline
1434.000,331.800,88.170,22.380,1426.000,349.500,85.660,21.540,163.400,47.730,13.570,4.302,329.600,100.000,28.430,8.958,baseline
1431.000,330.600,88.150,22.370,1422.000,348.500,85.630,21.510,163.500,47.320,13.590,4.287,330.100,99.790,28.390,8.921,baseline
1429.000,330.500,88.010,22.310,1423.000,349.100,85.520,21.510,162.700,47.520,13.540,4.305,330.500,99.790,28.280,8.955,baseline
1431.000,331.100,88.050,22.320,1423.000,349.000,85.600,21.540,164.500,47.670,13.570,4.307,329.500,100.400,28.420,8.997,baseline
1431.000,331.300,88.280,22.410,1423.000,349.300,85.710,21.580,162.900,47.530,13.580,4.334,331.400,100.500,28.670,9.032,baseline
1434.000,332.700,88.460,22.500,1422.000,349.800,85.900,21.600,164.000,47.560,13.590,4.324,331.300,101.000,28.770,9.086,baseline
1439.000,333.000,89.010,22.590,1424.000,350.300,85.920,21.600,162.500,47.550,13.590,4.335,333.400,101.000,28.780,9.125,baseline
1439.000,332.600,88.540,22.490,1423.000,349.500,85.620,21.550,163.000,47.640,13.580,4.312,330.300,100.300,28.480,8.964,baseline
1431.000,331.100,88.030,22.300,1422.000,348.900,85.620,21.570,164.700,47.430,13.530,4.295,330.000,99.900,28.310,8.944,baseline
1428.000,329.900,87.980,22.310,1420.000,349.100,85.580,21.560,162.600,47.500,13.560,4.312,329.700,99.960,28.330,8.938,baseline
1429.000,330.800,87.880,22.310,1421.000,348.900,85.730,21.560,163.200,47.480,13.590,4.317,329.600,99.860,28.360,8.971,baseline
1432.000,331.600,88.160,22.370,1422.000,349.700,85.580,21.570,163.900,47.450,13.550,4.318,330.600,100.200,28.450,8.987,baseline
1433.000,331.300,88.320,22.440,1422.000,350.200,85.870,21.660,163.900,47.670,13.570,4.328,330.900,100.600,28.700,9.013,baseline
1436.000,332.400,88.580,22.560,1426.000,349.800,85.980,21.690,163.300,47.670,13.600,4.338,332.600,100.800,28.730,9.071,baseline
1440.000,332.900,88.960,22.640,1424.000,350.400,85.950,21.660,163.900,47.750,13.610,4.352,333.700,101.000,28.740,9.051,baseline
1433.000,330.500,88.030,22.380,1423.000,349.800,85.650,21.550,164.900,47.670,13.550,4.318,330.300,100.300,28.400,8.910,baseline
1430.000,330.300,88.150,22.340,1422.000,349.500,85.680,21.580,164.000,47.570,13.580,4.310,330.100,99.870,28.270,8.933,baseline
1430.000,330.200,87.960,22.370,1426.000,349.800,85.710,21.560,163.700,47.470,13.560,4.320,330.800,99.970,28.310,8.928,baseline
1431.000,329.400,88.070,22.360,1425.000,349.700,85.850,21.670,163.200,47.280,13.600,4.321,330.900,99.940,28.440,8.977,baseline
1433.000,331.700,88.180,22.460,1423.000,349.200,85.850,21.630,163.100,47.610,13.560,4.330,332.200,100.200,28.550,8.996,baseline
1436.000,333.600,88.450,22.500,1424.000,350.000,85.890,21.660,163.700,47.860,13.590,4.344,332.300,100.500,28.630,9.065,baseline
1439.000,333.400,88.920,22.590,1426.000,350.800,86.030,21.750,165.100,47.590,13.620,4.343,333.300,101.100,28.790,9.094,baseline
1443.000,333.200,89.110,22.600,1427.000,350.300,86.010,21.670,163.300,47.500,13.590,4.362,334.100,101.000,28.660,8.980,baseline
1436.000,330.100,88.290,22.330,1423.000,349.700,85.940,21.670,163.200,48.040,13.580,4.320,331.300,100.100,28.430,8.928,baseline
1434.000,331.200,88.250,22.350,1424.000,349.900,85.890,21.640,162.700,47.530,13.620,4.314,330.700,100.000,28.370,8.940,baseline
1434.000,332.400,88.130,22.360,1425.000,349.600,85.720,21.680,163.500,47.630,13.580,4.320,331.600,99.960,28.480,8.950,baseline
1436.000,330.500,88.470,22.420,1425.000,349.500,85.820,21.640,163.200,47.740,13.630,4.319,332.000,100.100,28.610,8.973,baseline
1437.000,331.600,88.440,22.510,1425.000,350.300,86.010,21.690,164.700,47.640,13.620,4.334,332.600,100.800,28.660,9.029,baseline
1439.000,332.300,88.920,22.540,1426.000,350.300,86.150,21.730,163.700,47.620,13.620,4.339,333.200,100.800,28.770,9.091,baseline
1442.000,332.400,89.230,22.650,1429.000,350.600,86.250,21.770,161.500,47.660,13.630,4.356,334.900,101.600,28.890,9.116,baseline
1442.000,332.800,88.760,22.560,1427.000,350.000,85.960,21.650,164.000,47.740,13.620,4.331,332.400,100.700,28.470,8.960,baseline
1436.000,330.900,88.360,22.430,1424.000,349.900,85.860,21.640,164.400,47.350,13.610,4.319,331.800,100.500,28.570,8.947,baseline
1436.000,330.800,88.060,22.370,1421.000,349.800,86.010,21.630,163.400,47.570,13.580,4.325,331.700,100.300,28.600,8.947,baseline
1437.000,331.000,88.350,22.430,1427.000,350.100,85.930,21.630,163.500,47.620,13.560,4.319,332.300,100.600,28.520,8.988,baseline
1436.000,332.000,88.370,22.410,1425.000,350.200,85.870,21.690,165.200,47.680,13.590,4.327,333.100,100.700,28.630,9.037,baseline
1439.000,333.000,88.800,22.590,1426.000,349.500,86.120,21.700,163.600,47.380,13.600,4.343,333.400,100.900,28.690,9.063,baseline
1443.000,333.200,89.110,22.650,1424.000,350.200,86.100,21.800,164.300,47.630,13.620,4.333,334.700,101.400,28.940,9.125,baseline
1445.000,334.300,89.490,22.630,1428.000,350.800,86.090,21.720,166.100,47.410,13.580,4.339,334.600,101.300,28.690,9.038,baseline
1439.000,332.400,88.490,22.490,1425.000,350.300,85.930,21.650,162.700,47.630,13.560,4.320,333.100,100.400,28.360,8.935,baseline
1435.000,331.100,88.220,22.390,1424.000,349.600,85.880,21.650,163.600,47.650,13.530,4.299,331.500,100.300,28.460,8.977,baseline
1435.000,331.700,88.460,22.450,1422.000,349.800,85.950,21.650,164.600,47.350,13.510,4.308,332.300,100.300,28.470,8.979,baseline
1436.000,332.000,88.280,22.510,1421.000,349.900,85.880,21.620,162.900,47.290,13.520,4.306,332.000,100.400,28.570,8.983,baseline
