A-DC1,A-DC2,A-DC3,A-DC4,A-DC5,A-DC6,A-DC7,A-DC8,B-DC1,B-DC2,B-DC3,B-DC4,B-DC5,B-DC6,B-DC7,B-DC8,condition
1247.000,245.600,48.980,10.350,893.200,154.000,25.940,5.155,130.900,30.020,7.147,1.780,328.100,76.220,18.630,5.179,baseline
1250.000,246.700,49.170,10.470,894.000,153.500,25.800,5.171,130.400,30.320,7.141,1.777,329.600,76.100,18.630,5.179,baseline
1247.000,244.400,49.180,10.290,887.700,153.200,25.650,5.144,131.600,30.050,7.030,1.760,325.100,74.920,18.210,5.082,baseline
1243.000,245.000,48.570,10.270,883.700,152.800,25.900,5.116,130.700,30.200,7.019,1.762,325.400,74.710,18.120,5.082,baseline
1243.000,243.900,48.940,10.320,888.700,152.900,25.700,5.138,129.900,30.060,7.033,1.747,323.700,74.560,18.280,5.079,baseline
1244.000,245.100,48.980,10.330,885.200,153.300,25.690,5.119,129.200,29.880,7.051,1.754,325.000,74.400,18.140,5.116,baseline
1244.000,243.100,49.160,10.330,886.100,153.200,25.830,5.123,129.500,29.940,7.051,1.748,325.400,75.120,18.300,5.098,baseline
1245.000,243.100,49.020,10.380,885.500,153.200,25.820,5.125,134.100,29.910,7.029,1.759,325.300,75.200,18.440,5.167,baseline
1247.000,244.700,48.810,10.400,888.700,153.300,25.860,5.149,132.000,29.920,7.112,1.768,326.600,75.830,18.430,5.186,baseline
1251.000,246.300,49.130,10.370,889.500,153.100,25.890,5.158,130.700,30.430,7.096,1.770,328.100,75.900,18.630,5.186,baseline
1252.000,245.800,49.230,10.430,890.100,154.000,25.940,5.181,130.500,29.740,7.114,1.786,329.900,76.200,18.870,5.198,baseline
1253.000,247.500,49.770,10.480,892.100,153.900,25.780,5.189,131.800,30.160,7.143,1.778,330.500,76.780,18.820,5.254,baseline
1255.000,247.300,49.310,10.410,893.200,153.200,25.850,5.144,132.700,30.400,7.115,1.773,327.900,76.060,18.490,5.168,baseline
1249.000,246.100,49.360,10.260,889.900,152.800,25.810,5.110,133.800,30.050,7.047,1.763,327.200,75.320,18.370,5.109,baseline
1249.000,244.500,48.770,10.300,889.300,153.000,26.010,5.171,132.100,29.940,7.045,1.757,326.600,75.290,18.370,5.134,baseline
1249.000,244.400,49.080,10.360,888.700,152.900,25.840,5.157,131.000,30.170,7.051,1.749,327.600,75.770,18.450,5.163,baseline
1249.000,245.500,49.070,10.330,889.800,153.200,25.870,5.168,131.300,30.150,7.093,1.743,328.200,76.050,18.460,5.158,baseline
1249.000,244.100,49.090,10.360,889.700,153.100,25.950,5.177,133.900,30.210,7.153,1.762,329.100,76.540,18.530,5.215,baseline
1253.000,246.500,49.370,10.360,892.600,153.700,26.060,5.168,132.200,30.300,7.103,1.759,329.400,76.100,18.710,5.242,baseline
1255.000,246.900,49.320,10.420,892.500,153.300,25.920,5.187,132.000,30.390,7.070,1.759,330.200,76.780,18.780,5.216,baseline
1257.000,248.300,49.610,10.490,896.600,154.400,25.870,5.167,131.700,30.470,7.063,1.780,332.100,77.370,18.840,5.264,baseline
1258.000,246.900,49.580,10.520,894.700,154.900,26.070,5.187,133.700,30.290,7.078,1.763,332.500,77.620,19.140,5.270,baseline
1261.000,246.900,49.690,10.550,895.100,154.500,25.910,5.183,132.800,30.250,7.128,1.778,332.800,77.450,18.890,5.274,baseline
1259.000,246.400,49.440,10.430,893.000,153.500,25.870,5.142,131.500,30.360,7.067,1.748,330.300,76.690,18.500,5.213,baseline
1254.000,245.400,49.220,10.380,895.800,153.800,26.000,5.185,131.800,30.270,7.014,1.748,329.900,76.490,18.600,5.182,baseline
1253.000,245.600,49.310,10.420,897.300,153.400,25.890,5.182,130.700,30.160,7.079,1.761,330.400,76.620,18.720,5.212,baseline
1253.000,245.800,49.300,10.370,892.800,153.800,25.930,5.160,131.700,30.250,7.080,1.749,329.800,76.570,18.650,5.228,baseline
1254.000,245.800,49.280,10.370,891.900,153.700,26.020,5.165,133.200,29.850,7.006,1.736,332.100,76.910,18.710,5.249,baseline
1255.000,245.900,49.340,10.420,895.000,154.400,26.100,5.165,132.800,29.980,7.043,1.768,331.800,77.020,18.890,5.271,baseline
1256.000,247.000,49.570,10.470,895.200,153.600,26.040,5.161,130.200,30.330,7.121,1.760,333.100,77.390,18.800,5.313,baseline
1258.000,246.100,49.820,10.520,895.200,154.600,26.090,5.155,132.700,30.200,7.086,1.770,333.700,77.780,18.960,5.306,baseline
1260.000,247.200,49.900,10.550,893.600,154.700,26.160,5.189,131.500,30.130,7.115,1.758,333.200,78.130,19.030,5.345,baseline
1263.000,248.800,49.750,10.570,895.300,154.900,26.110,5.190,131.100,30.260,7.109,1.746,335.000,78.550,19.040,5.359,baseline
1266.000,248.000,49.790,10.530,898.600,154.900,25.910,5.141,133.100,30.170,7.089,1.740,335.300,77.540,18.780,5.278,baseline
1259.000,247.600,49.780,10.410,897.000,154.400,25.860,5.168,132.800,29.930,7.033,1.731,331.400,77.130,18.730,5.234,baseline
1256.000,245.600,49.460,10.390,895.600,154.300,25.950,5.168,133.300,30.250,7.024,1.742,332.500,77.190,18.670,5.245,baseline
1258.000,246.300,49.650,10.440,897.500,153.900,26.010,5.160,132.300,30.000,7.061,1.751,332.500,77.470,18.750,5.270,baseline
1255.000,247.100,49.390,10.440,893.800,154.200,25.840,5.147,132.400,29.980,7.011,1.736,332.000,77.080,18.870,5.276,baseline
1257.000,246.100,49.430,10.460,898.400,154.400,25.930,5.168,130.300,30.000,7.036,1.731,332.000,77.640,18.940,5.271,baseline
1259.000,246.500,49.530,10.420,894.900,154.600,26.020,5.142,133.200,30.270,7.084,1.745,334.800,77.470,18.950,5.306,baseline
1261.000,246.700,49.870,10.520,895.800,154.600,26.110,5.159,133.000,30.130,7.023,1.743,334.300,78.040,19.020,5.354,baseline
1263.000,248.700,49.540,10.490,900.200,154.100,26.140,5.195,132.200,30.060,7.094,1.753,335.800,78.540,19.120,5.379,baseline
1266.000,248.900,49.980,10.560,900.900,155.200,26.010,5.145,132.800,30.550,7.105,1.743,335.700,78.340,19.020,5.330,baseline
1262.000,249.000,49.670,10.480,898.100,154.600,26.010,5.109,132.200,30.020,7.071,1.747,333.000,77.180,18.830,5.265,baseline
1257.000,246.500,49.260,10.450,893.800,154.700,25.920,5.142,130.100,29.940,6.982,1.720,332.400,77.400,18.840,5.306,baseline
1258.000,246.200,49.350,10.520,898.000,154.100,25.900,5.176,132.500,29.930,6.995,1.735,332.500,77.500,18.900,5.310,baseline
1258.000,247.300,49.600,10.440,896.600,154.200,25.970,5.144,129.600,29.900,7.011,1.732,332.600,77.600,18.940,5.285,baseline
1257.000,246.200,49.530,10.490,894.600,154.600,25.900,5.154,132.800,29.770,7.032,1.730,332.300,77.550,18.920,5.315,baseline
1258.000,247.600,49.530,10.460,899.800,154.900,26.010,5.163,132.000,30.080,7.026,1.721,332.600,78.220,18.940,5.338,baseline
1262.000,248.200,50.000,10.530,896.600,154.900,25.980,5.172,131.600,29.760,7.027,1.740,333.500,78.310,19.070,5.388,baseline
1264.000,249.200,49.730,10.660,899.900,155.500,26.070,5.170,130.800,30.490,7.009,1.743,335.000,78.670,19.120,5.367,baseline
1267.000,248.800,50.050,10.530,898.100,155.000,25.950,5.121,130.100,30.250,7.023,1.726,333.700,78.040,18.930,5.317,baseline
1258.000,247.200,49.350,10.500,899.900,155.000,25.890,5.114,132.100,29.580,6.975,1.711,332.100,77.420,18.820,5.263,baseline
1257.000,245.300,49.740,10.510,896.900,153.800,26.020,5.127,130.100,29.700,6.930,1.713,333.100,77.340,18.970,5.254,baseline
1258.000,246.600,49.370,10.480,901.200,154.100,26.010,5.142,132.000,29.990,6.978,1.715,333.100,77.530,18.900,5.274,baseline
1257.000,246.000,49.300,10.460,894.400,154.800,25.860,5.117,131.700,29.860,6.991,1.721,332.900,77.400,18.830,5.285,baseline
1258.000,247.600,49.760,10.520,898.600,154.500,25.920,5.128,129.800,29.920,6.947,1.716,332.500,77.820,18.870,5.366,baseline
1260.000,248.300,49.670,10.570,896.200,154.800,25.890,5.126,130.600,30.370,7.013,1.734,333.000,78.160,18.970,5.363,baseline
1262.000,248.400,49.920,10.560,901.000,154.600,26.030,5.158,131.900,30.110,7.000,1.716,334.600,78.500,19.190,5.386,baseline
1265.000,249.400,49.760,10.590,900.700,154.500,26.020,5.111,133.700,29.690,7.033,1.729,335.000,78.360,18.860,5.275,baseline
1259.000,247.600,49.620,10.480,897.400,154.600,25.760,5.109,128.500,30.170,6.941,1.714,330.900,77.250,18.670,5.251,baseline
1256.000,246.400,49.560,10.440,897.100,154.300,25.880,5.089,129.100,29.810,6.938,1.713,331.400,77.120,18.820,5.271,baseline
1258.000,247.500,49.490,10.500,894.700,153.600,26.000,5.094,131.400,30.090,6.991,1.713,332.800,77.460,18.990,5.313,baseline
1258.000,246.900,49.660,10.520,895.200,154.600,25.910,5.096,131.200,29.920,6.965,1.722,331.500,77.480,18.800,5.330,baseline
1258.000,248.000,49.640,10.570,896.600,154.100,25.850,5.096,131.400,29.800,6.974,1.718,333.600,77.780,18.950,5.317,baseline
1260.000,246.700,49.830,10.510,894.100,154.200,25.940,5.089,132.800,29.950,6.986,1.730,333.900,78.060,19.090,5.368,baseline
1262.000,247.500,49.910,10.570,894.500,154.400,25.900,5.136,132.300,29.850,7.026,1.722,334.600,78.300,19.110,5.360,baseline
1265.000,248.100,49.860,10.630,901.900,155.100,25.970,5.115,128.800,29.860,6.996,1.722,334.100,78.140,18.970,5.339,baseline
1260.000,246.200,49.390,10.480,896.700,154.500,25.830,5.114,130.300,29.860,6.939,1.700,332.500,77.370,18.810,5.277,baseline
1257.000,246.700,49.680,10.500,896.600,154.400,25.850,5.114,132.800,29.730,6.947,1.726,331.600,77.220,18.820,5.275,baseline
1258.000,246.700,49.910,10.480,896.700,154.400,25.950,5.104,131.200,29.750,6.956,1.715,333.400,77.770,18.890,5.274,baseline
1259.000,246.200,49.680,10.550,894.900,154.500,25.730,5.101,127.900,29.960,6.963,1.709,332.600,77.730,18.810,5.279,baseline
1258.000,246.300,49.850,10.590,897.600,155.700,25.870,5.079,129.900,29.860,6.955,1.711,332.700,77.780,18.960,5.305,baseline
1258.000,248.100,49.930,10.520,892.900,154.800,25.930,5.103,130.900,29.870,6.972,1.706,332.500,78.270,19.080,5.361,baseline
1261.000,247.800,49.640,10.570,899.100,154.300,25.960,5.083,132.800,30.040,6.948,1.709,335.000,78.310,19.040,5.360,baseline
1263.000,249.500,49.760,10.570,896.800,154.600,25.870,5.074,133.700,30.110,7.003,1.709,332.400,77.520,18.890,5.286,baseline
1255.000,246.800,49.320,10.460,897.100,154.100,25.790,5.042,131.600,29.830,6.910,1.696,331.500,76.920,18.790,5.241,baseline
1255.000,246.200,49.050,10.480,894.600,154.700,25.820,5.066,132.700,29.800,6.928,1.712,332.100,77.290,18.810,5.288,baseline
1256.000,246.100,49.470,10.510,894.500,154.300,25.800,5.055,130.400,29.590,7.003,1.697,331.100,76.870,18.890,5.285,baseline
1256.000,248.300,49.410,10.490,895.500,154.300,25.730,5.075,129.600,29.840,6.944,1.706,332.000,77.280,18.820,5.278,baseline
1256.000,248.800,49.940,10.530,897.500,154.000,25.810,5.083,131.400,30.040,6.970,1.698,333.300,77.640,18.810,5.313,baseline
1259.000,247.800,49.720,10.550,903.800,154.300,25.890,5.074,129.500,29.990,6.980,1.698,333.200,78.390,18.910,5.372,baseline
1262.000,249.000,50.010,10.730,901.300,154.700,25.880,5.093,130.900,29.870,6.988,1.700,333.900,77.900,18.990,5.320,baseline
1259.000,247.000,49.850,10.440,894.000,154.200,25.740,5.054,132.400,29.640,6.892,1.692,331.700,76.940,18.670,5.240,baseline
1253.000,246.300,49.610,10.400,896.500,154.400,25.790,5.049,131.500,29.150,6.905,1.689,328.700,76.610,18.720,5.210,baseline
1252.000,245.500,49.690,10.520,891.200,154.200,25.610,5.065,131.200,29.690,6.944,1.702,330.400,76.710,18.760,5.251,baseline
1252.000,246.300,49.340,10.500,891.000,154.000,25.740,5.032,130.400,29.680,6.931,1.692,330.900,77.170,18.600,5.248,baseline
1252.000,245.300,49.420,10.470,892.900,153.700,25.880,5.028,130.500,29.210,6.924,1.684,328.600,76.810,18.640,5.187,baseline
1255.000,247.700,49.630,10.500,895.300,154.900,25.890,5.072,130.500,29.560,6.885,1.667,329.700,76.720,18.640,5.182,baseline
1258.000,249.500,50.120,10.470,897.100,155.000,26.090,5.031,131.100,29.600,6.887,1.660,328.200,76.240,18.600,5.099,baseline
1266.000,252.600,50.630,10.540,902.300,155.500,26.190,5.009,130.000,29.530,6.814,1.610,327.400,76.670,18.580,5.034,baseline
1265.000,249.300,50.160,10.410,897.900,155.200,26.070,4.959,128.700,29.290,6.786,1.618,326.800,75.300,18.290,4.917,baseline
1260.000,250.400,50.060,10.350,899.700,154.800,26.000,4.961,128.600,28.990,6.716,1.567,323.500,74.430,18.040,4.857,baseline
1259.000,248.600,49.930,10.410,897.800,155.300,26.170,5.003,126.900,28.700,6.637,1.566,323.000,74.650,17.990,4.866,baseline
1261.000,249.700,50.190,10.340,898.600,155.300,26.180,4.948,126.000,29.020,6.634,1.572,322.500,74.480,17.900,4.850,baseline
1260.000,250.000,50.180,10.360,896.500,155.900,26.050,5.000,127.700,28.600,6.669,1.577,322.200,75.220,18.200,4.969,baseline
1262.000,248.700,50.210,10.410,899.700,155.800,26.190,5.070,129.600,29.180,6.723,1.593,325.000,75.720,18.370,5.070,baseline
1262.000,250.000,50.230,10.570,900.200,156.000,26.170,5.063,128.900,29.550,6.834,1.633,326.900,76.630,18.610,5.134,baseline
1263.000,250.500,50.410,10.510,903.600,156.600,26.320,5.086,130.600,29.470,6.796,1.651,328.900,76.920,18.760,5.181,baseline
1267.000,251.200,50.270,10.470,902.100,155.500,26.320,5.046,130.100,29.780,6.846,1.641,329.800,76.210,18.410,5.112,baseline
1259.000,249.600,49.710,10.380,899.400,156.000,26.290,5.070,129.200,29.410,6.824,1.648,326.000,75.320,18.410,5.079,baseline
1256.000,248.400,50.030,10.410,897.000,155.600,26.050,5.078,130.000,29.470,6.819,1.645,327.400,75.700,18.490,5.112,baseline
1257.000,248.200,49.590,10.440,897.800,155.600,26.160,5.074,131.500,29.340,6.837,1.618,326.800,75.820,18.440,5.093,baseline
1256.000,248.000,49.700,10.420,897.600,155.900,26.210,5.115,128.700,29.670,6.855,1.654,328.000,75.910,18.420,5.098,baseline
1257.000,248.800,49.640,10.440,898.900,156.100,26.150,5.086,131.200,29.290,6.866,1.663,328.100,76.140,18.600,5.160,baseline
1260.000,248.200,50.160,10.450,901.300,156.600,26.250,5.124,131.100,29.940,6.944,1.677,328.300,76.450,18.640,5.202,baseline
1263.000,249.900,50.200,10.520,900.800,155.500,26.400,5.120,129.100,29.630,6.933,1.665,328.600,77.080,18.730,5.174,baseline
1264.000,250.600,50.250,10.610,899.600,156.900,26.140,5.110,133.900,29.700,6.915,1.669,330.800,77.210,18.800,5.226,baseline
1264.000,251.800,50.140,10.520,905.900,155.700,26.210,5.072,130.000,29.880,6.845,1.671,328.500,76.120,18.580,5.141,baseline
1257.000,248.700,49.790,10.460,896.900,155.800,26.100,5.068,130.700,29.580,6.897,1.665,327.500,76.000,18.440,5.128,baseline
1255.000,247.800,49.950,10.510,900.300,155.500,26.260,5.104,131.100,29.950,6.894,1.662,327.300,76.230,18.480,5.140,baseline
1255.000,249.000,49.760,10.450,895.100,155.200,26.300,5.125,131.900,29.660,6.908,1.667,329.000,76.190,18.690,5.125,baseline
1254.000,248.600,49.700,10.460,904.000,156.400,26.190,5.120,129.500,29.330,6.932,1.677,328.200,76.140,18.620,5.153,baseline
1258.000,250.200,49.800,10.470,898.800,157.300,26.340,5.111,130.200,29.700,6.925,1.669,329.600,76.510,18.670,5.210,baseline
1259.000,249.300,50.140,10.520,896.000,155.700,26.160,5.112,130.600,29.690,6.982,1.688,331.000,77.100,18.750,5.221,baseline
1261.000,249.200,50.250,10.560,901.100,156.300,26.380,5.127,132.500,30.040,6.972,1.694,331.200,77.350,18.870,5.237,baseline
1263.000,250.200,50.470,10.520,897.800,156.300,26.330,5.144,132.300,30.200,6.962,1.690,329.600,76.710,18.680,5.221,baseline
1257.000,249.100,50.150,10.420,901.800,155.300,26.180,5.079,133.200,29.730,6.943,1.686,328.700,75.950,18.490,5.187,baseline
1254.000,249.600,49.750,10.430,896.700,156.100,26.120,5.107,131.700,29.650,6.918,1.683,328.900,76.280,18.620,5.172,baseline
1255.000,249.500,49.630,10.410,897.700,156.100,26.320,5.149,132.900,29.830,7.010,1.699,329.200,76.220,18.550,5.171,baseline
1254.000,250.100,50.130,10.460,897.500,156.100,26.240,5.114,130.100,29.870,6.949,1.691,327.700,76.130,18.580,5.193,baseline
1256.000,250.300,49.890,10.510,894.500,155.600,26.130,5.108,131.400,30.100,6.923,1.712,329.800,76.970,18.640,5.236,baseline
1257.000,249.000,50.080,10.580,899.200,155.700,26.240,5.115,132.000,29.730,6.982,1.700,331.600,77.010,18.760,5.206,baseline
1259.000,251.400,50.350,10.580,903.000,156.300,26.260,5.156,131.800,30.010,6.994,1.713,331.600,77.320,18.750,5.255,baseline
1263.000,250.800,50.190,10.600,899.900,156.900,26.140,5.142,132.600,29.880,7.000,1.706,332.700,77.900,18.890,5.246,baseline
1262.000,251.000,50.530,10.590,901.200,156.000,26.220,5.109,132.100,30.430,7.001,1.712,332.700,76.880,18.660,5.211,baseline
1257.000,248.200,49.790,10.410,898.200,155.700,26.280,5.109,133.800,30.050,6.929,1.699,328.900,76.320,18.590,5.213,baseline
1255.000,249.000,49.960,10.430,893.200,156.000,26.220,5.118,132.800,29.630,6.957,1.711,330.000,76.630,18.690,5.187,baseline
1256.000,249.200,50.020,10.460,895.600,155.500,26.240,5.113,133.100,30.100,6.958,1.708,329.000,76.960,18.620,5.186,baseline
1255.000,248.900,49.630,10.450,897.300,155.900,26.100,5.140,131.200,29.970,6.980,1.708,331.200,76.710,18.740,5.205,baseline
1256.000,250.500,49.870,10.530,899.500,155.900,26.420,5.125,133.500,29.900,7.037,1.709,331.600,76.940,18.800,5.236,baseline
1257.000,249.600,50.000,10.580,899.100,155.500,26.260,5.126,131.000,30.050,7.066,1.716,332.000,77.270,18.940,5.273,baseline
1261.000,250.800,50.120,10.590,899.300,156.000,26.270,5.126,132.500,29.870,7.125,1.723,332.700,77.770,19.010,5.307,baseline
1264.000,250.600,49.980,10.630,901.800,156.800,26.430,5.153,133.700,30.390,7.074,1.726,333.100,78.200,19.080,5.313,baseline
1265.000,250.700,50.260,10.620,900.600,155.600,26.180,5.135,133.200,30.300,7.098,1.727,333.900,77.510,18.850,5.282,baseline
1258.000,250.300,49.800,10.490,899.900,156.200,26.120,5.136,132.000,30.250,6.988,1.723,331.700,76.960,18.720,5.227,baseline
1257.000,248.700,49.660,10.460,900.900,155.800,26.160,5.142,133.100,30.320,6.989,1.727,332.200,77.050,18.750,5.235,baseline
1256.000,250.300,50.110,10.510,898.700,155.300,26.140,5.112,131.800,30.240,7.037,1.731,332.400,77.370,18.860,5.253,baseline
1257.000,248.800,50.120,10.540,898.400,155.200,26.270,5.137,133.500,30.400,7.030,1.719,331.500,77.640,18.760,5.237,baseline
1256.000,249.500,50.020,10.490,900.700,155.500,26.280,5.125,131.500,30.010,7.086,1.733,332.600,77.660,18.870,5.252,baseline
1258.000,248.800,50.210,10.570,897.300,155.400,26.150,5.126,134.300,30.100,7.039,1.736,334.200,77.810,18.950,5.318,baseline
1260.000,249.300,50.420,10.600,899.500,156.000,26.170,5.166,132.300,30.670,7.112,1.739,334.300,78.380,18.940,5.342,baseline
1263.000,250.100,50.400,10.700,902.000,155.500,26.240,5.166,133.200,30.370,7.131,1.749,334.200,78.530,19.170,5.317,baseline
1260.000,251.100,50.220,10.500,901.700,155.300,26.210,5.093,133.100,30.130,7.082,1.724,333.700,77.750,18.680,5.282,baseline
1256.000,249.300,49.750,10.570,899.300,155.500,26.300,5.125,133.100,30.030,7.058,1.726,332.100,77.320,18.680,5.249,baseline
1254.000,250.000,49.680,10.470,896.900,155.200,26.010,5.102,135.300,30.000,6.990,1.736,333.600,77.600,18.840,5.247,baseline
1256.000,249.700,49.620,10.530,897.900,155.600,26.180,5.131,132.500,30.310,7.083,1.723,332.900,77.730,18.890,5.240,baseline
1255.000,250.000,49.800,10.520,900.500,155.300,26.120,5.102,132.000,30.200,7.056,1.735,332.500,77.690,18.870,5.288,baseline
1257.000,249.700,49.930,10.540,898.000,155.200,26.040,5.109,132.800,30.130,7.097,1.751,333.300,78.480,18.950,5.321,baseline
1260.000,251.200,50.130,10.560,901.300,155.700,26.270,5.148,131.800,30.300,7.098,1.740,335.000,78.500,19.070,5.357,baseline
1261.000,250.800,50.370,10.570,898.500,155.700,26.220,5.161,133.700,30.660,7.113,1.741,335.700,79.310,19.190,5.347,baseline
1264.000,251.900,50.180,10.640,896.100,155.800,26.200,5.146,135.100,30.760,7.126,1.754,335.400,78.350,19.010,5.296,baseline
1258.000,248.200,49.710,10.490,893.800,155.000,26.040,5.099,134.300,30.200,7.068,1.720,334.000,77.500,18.690,5.292,baseline
1254.000,248.800,49.890,10.470,898.200,155.200,26.060,5.091,132.600,30.320,7.095,1.733,332.700,77.480,18.740,5.250,baseline
1256.000,249.600,49.670,10.540,896.700,155.000,26.070,5.123,133.100,30.230,7.065,1.731,333.900,77.940,18.870,5.248,baseline
1257.000,249.500,49.700,10.550,897.000,155.700,26.180,5.093,133.000,30.420,7.083,1.717,333.800,77.650,18.840,5.291,baseline
1255.000,248.900,50.220,10.550,896.200,155.900,26.180,5.097,132.600,30.480,7.111,1.736,333.400,77.990,18.980,5.300,baseline
1259.000,250.000,50.380,10.570,902.500,155.300,26.210,5.119,132.200,30.620,7.096,1.731,333.800,78.400,19.120,5.320,baseline
1260.000,249.000,50.120,10.660,898.200,155.700,26.130,5.154,132.800,30.580,7.143,1.755,335.600,78.920,19.170,5.337,baseline
1262.000,249.900,50.330,10.610,900.200,156.200,26.340,5.135,135.000,30.690,7.156,1.757,337.200,78.680,19.090,5.305,baseline
1260.000,249.700,49.920,10.480,900.500,155.800,26.190,5.097,133.700,30.420,7.071,1.724,333.400,77.620,18.880,5.234,baseline
1255.000,249.200,49.920,10.440,897.900,155.000,26.110,5.145,132.900,30.420,7.044,1.726,333.400,77.100,18.840,5.233,baseline
1254.000,249.100,49.920,10.510,894.000,154.800,26.050,5.106,132.700,30.060,6.992,1.744,333.100,77.600,18.910,5.263,baseline
1255.000,248.600,49.940,10.440,900.200,155.200,26.040,5.106,133.300,30.100,7.075,1.734,334.700,77.740,18.820,5.259,baseline
1255.000,249.200,49.890,10.500,897.500,156.100,26.100,5.060,132.800,30.100,7.077,1.737,333.500,77.640,18.840,5.260,baseline
1257.000,247.700,50.090,10.610,899.900,155.500,26.200,5.104,131.500,30.190,7.140,1.749,334.300,78.030,19.040,5.325,baseline
1259.000,249.200,50.260,10.600,902.500,155.700,26.190,5.111,134.300,30.360,7.104,1.741,335.300,78.560,19.140,5.363,baseline
1262.000,250.400,50.700,10.670,902.300,155.900,26.300,5.096,132.100,30.360,7.157,1.747,337.800,78.940,19.110,5.367,baseline
1264.000,252.700,50.580,10.660,900.500,155.500,26.120,5.098,132.600,30.440,7.134,1.738,336.200,78.500,19.070,5.303,baseline
1258.000,249.800,49.910,10.540,899.000,155.000,26.130,5.106,133.200,30.250,7.080,1.734,333.200,77.630,18.740,5.273,baseline
1255.000,249.700,49.880,10.490,897.000,155.400,26.160,5.109,134.300,29.980,7.041,1.737,332.200,77.660,18.800,5.241,baseline
1255.000,249.900,49.760,10.500,898.700,155.300,25.980,5.109,131.900,30.640,7.103,1.749,333.700,77.570,18.800,5.282,baseline
1256.000,248.700,49.860,10.520,898.700,155.500,25.990,5.100,134.000,30.460,7.097,1.734,333.200,77.710,18.890,5.268,baseline
1257.000,248.000,50.220,10.600,898.900,155.300,26.220,5.096,132.300,30.470,7.094,1.740,334.100,77.750,18.850,5.265,baseline
1258.000,250.300,49.920,10.570,902.100,155.200,26.120,5.084,132.500,30.450,7.092,1.734,335.100,77.940,19.030,5.303,baseline
1260.000,250.100,49.920,10.610,899.800,155.900,26.170,5.126,133.400,30.400,7.131,1.743,335.100,78.600,19.150,5.324,baseline
1264.000,248.700,50.390,10.600,904.200,155.300,26.270,5.117,131.700,30.620,7.175,1.767,337.800,78.790,19.070,5.331,baseline
1262.000,249.100,50.230,10.580,901.900,156.200,26.150,5.082,135.100,30.350,7.136,1.741,335.900,77.480,18.800,5.240,baseline
1256.000,248.000,49.780,10.450,902.900,155.000,26.220,5.078,134.500,30.140,7.079,1.726,333.500,77.090,18.590,5.228,baseline
1256.000,248.400,49.840,10.520,900.800,155.600,26.160,5.107,134.100,30.280,7.050,1.741,333.500,77.510,18.730,5.255,baseline
1257.000,249.000,50.220,10.520,897.000,155.300,26.250,5.105,131.500,30.230,7.124,1.740,334.400,77.430,18.620,5.244,baseline
1257.000,249.000,49.950,10.500,901.400,155.700,26.170,5.114,133.500,30.050,7.089,1.745,333.500,77.350,18.850,5.256,baseline
1258.000,248.900,50.240,10.550,902.500,155.200,26.200,5.080,135.200,30.180,7.109,1.754,335.800,77.840,18.930,5.318,baseline
1260.000,250.000,50.310,10.610,904.700,155.800,26.320,5.154,133.300,30.110,7.131,1.754,333.900,78.010,19.120,5.330,baseline
1264.000,249.000,50.420,10.620,903.800,156.000,26.270,5.133,133.000,30.380,7.110,1.758,337.700,78.700,19.160,5.327,baseline
1265.000,250.700,50.690,10.690,904.600,155.500,26.220,5.122,133.300,30.810,7.137,1.770,335.900,78.500,18.880,5.328,baseline
1264.000,249.000,50.170,10.570,898.400,155.300,26.120,5.100,134.200,30.530,7.063,1.759,333.400,77.280,18.690,5.250,baseline
1257.000,248.900,49.740,10.550,898.400,155.400,26.190,5.111,134.500,30.200,7.105,1.740,332.800,77.150,18.750,5.230,baseline
1257.000,247.500,49.980,10.490,902.700,155.500,26.200,5.132,133.500,30.250,7.152,1.749,334.100,77.390,18.820,5.233,baseline
1258.000,250.400,50.220,10.480,905.000,155.700,26.240,5.121,133.000,30.290,7.115,1.747,333.900,77.610,18.820,5.250,baseline
1260.000,249.900,50.010,10.540,898.100,155.700,26.310,5.156,133.300,30.460,7.108,1.748,333.300,77.320,18.770,5.230,baseline
1261.000,248.800,50.180,10.580,899.100,155.500,26.300,5.150,134.800,30.550,7.130,1.755,334.400,77.730,18.980,5.257,baseline
1263.000,250.600,50.240,10.600,901.700,155.700,26.420,5.148,134.500,30.570,7.173,1.754,335.300,78.150,19.040,5.307,baseline
1265.000,251.600,50.650,10.670,906.200,155.900,26.230,5.145,134.300,30.560,7.090,1.772,336.600,78.390,19.000,5.338,baseline
1267.000,250.500,50.400,10.620,898.500,155.800,26.240,5.130,133.700,30.650,7.228,1.769,336.400,77.850,18.840,5.237,baseline
1261.000,249.900,50.020,10.540,902.100,155.300,26.250,5.092,132.800,30.700,7.093,1.763,333.200,77.230,18.760,5.184,baseline
1259.000,248.900,49.830,10.500,899.200,155.300,26.250,5.143,133.200,30.400,7.116,1.753,334.000,77.300,18.690,5.244,baseline
1261.000,248.700,50.280,10.540,901.000,156.100,26.100,5.118,132.100,30.260,7.132,1.747,332.900,77.430,18.810,5.234,baseline
1262.000,248.400,50.160,10.620,903.800,156.200,26.270,5.127,134.700,30.470,7.118,1.759,335.000,77.450,18.800,5.224,baseline
1262.000,248.900,50.040,10.500,903.400,155.600,26.240,5.162,134.900,30.190,7.184,1.743,334.400,77.760,18.880,5.247,baseline
1264.000,250.600,50.490,10.580,899.600,155.800,26.350,5.151,134.900,30.340,7.106,1.758,334.800,77.890,19.000,5.301,baseline
1266.000,251.300,50.430,10.630,904.300,156.100,26.350,5.167,133.400,30.330,7.180,1.763,335.100,78.550,19.070,5.281,baseline
1268.000,250.600,50.340,10.690,901.500,156.200,26.400,5.146,133.100,30.750,7.081,1.775,335.700,78.240,18.890,5.292,baseline
1265.000,250.600,49.950,10.550,903.300,155.900,26.210,5.162,132.200,30.230,7.149,1.741,332.600,76.820,18.710,5.194,baseline
1262.000,250.900,50.020,10.490,902.200,156.100,26.150,5.131,132.000,30.310,7.092,1.758,332.700,77.180,18.720,5.234,baseline
1261.000,249.600,50.300,10.550,901.600,155.900,26.340,5.154,134.300,30.600,7.154,1.757,333.700,77.570,18.800,5.234,baseline
1262.000,249.900,50.090,10.520,899.100,155.500,26.220,5.172,134.700,30.710,7.121,1.759,334.100,77.870,18.820,5.214,baseline
1264.000,250.600,50.380,10.560,900.700,156.000,26.300,5.161,132.900,30.320,7.208,1.755,335.200,77.360,18.940,5.290,baseline
1265.000,249.700,50.200,10.570,904.100,156.300,26.250,5.142,135.400,30.390,7.100,1.778,334.600,78.260,18.920,5.277,baseline
1267.000,249.800,50.300,10.690,905.500,156.100,26.520,5.161,134.500,30.400,7.174,1.774,335.200,78.280,19.110,5.294,baseline
1271.000,250.600,50.590,10.640,902.700,156.600,26.460,5.163,133.100,30.470,7.127,1.776,336.700,78.560,19.000,5.291,baseline
1267.000,250.700,50.040,10.590,903.900,155.800,26.350,5.100,134.200,30.350,7.090,1.766,332.300,77.070,18.590,5.199,baseline
1262.000,249.500,49.910,10.560,900.900,155.000,26.150,5.149,135.300,30.400,7.080,1.749,332.000,77.200,18.690,5.210,baseline
1262.000,250.000,49.890,10.490,901.900,155.100,26.230,5.135,134.700,30.340,7.170,1.762,333.700,77.270,18.710,5.204,baseline
1262.000,249.200,49.920,10.540,903.700,155.300,26.190,5.158,132.500,30.450,7.119,1.744,334.000,77.270,18.810,5.216,baseline
1262.000,249.300,50.230,10.550,901.300,156.000,26.250,5.154,132.200,30.640,7.130,1.757,333.200,77.110,18.700,5.258,baseline
1262.000,249.300,49.890,10.440,902.900,155.400,26.290,5.159,132.800,30.630,7.179,1.766,333.900,77.710,18.830,5.259,baseline
1265.000,249.300,50.570,10.570,902.800,156.200,26.440,5.154,133.400,30.600,7.209,1.785,334.200,77.860,18.840,5.297,baseline
1268.000,251.600,50.300,10.560,900.100,156.500,26.310,5.141,134.100,30.700,7.167,1.774,335.000,78.290,19.040,5.289,baseline
1268.000,250.100,50.530,10.500,904.600,155.300,26.430,5.133,133.400,30.820,7.148,1.773,333.300,77.310,18.680,5.189,baseline
1259.000,248.700,49.690,10.440,897.900,155.600,26.230,5.123,132.200,30.420,7.104,1.751,332.000,76.570,18.450,5.151,baseline
1258.000,247.700,50.000,10.420,900.100,155.400,26.140,5.125,133.500,30.320,7.133,1.751,331.800,76.570,18.680,5.176,baseline
1259.000,248.500,49.410,10.480,902.700,155.500,26.190,5.160,132.600,30.180,7.139,1.762,331.100,77.140,18.590,5.184,baseline
1259.000,248.600,49.760,10.430,898.700,155.200,26.200,5.142,133.100,30.760,7.169,1.753,331.300,77.070,18.550,5.137,baseline
1258.000,248.500,49.770,10.430,900.200,156.000,26.170,5.156,133.700,30.350,7.134,1.747,330.400,77.000,18.600,5.189,baseline
1260.000,249.200,49.760,10.530,902.800,155.400,26.210,5.142,131.800,30.210,7.069,1.761,332.900,77.460,18.810,5.196,baseline
1262.000,249.100,50.150,10.520,900.200,156.100,26.340,5.143,133.000,30.740,7.150,1.772,333.100,77.980,18.750,5.276,baseline
1264.000,248.600,50.040,10.540,903.100,156.300,26.240,5.158,132.500,30.520,7.192,1.775,333.400,77.010,18.640,5.166,baseline
1258.000,248.100,49.740,10.380,899.700,155.700,26.190,5.121,134.300,30.380,7.136,1.752,330.600,76.220,18.540,5.137,baseline
1254.000,245.100,50.070,10.410,895.800,155.100,26.050,5.123,133.700,30.190,7.041,1.754,329.400,76.140,18.410,5.104,baseline
1253.000,246.800,49.670,10.380,898.500,155.300,26.130,5.177,133.800,30.370,7.054,1.770,331.000,76.010,18.410,5.183,baseline
1253.000,246.900,49.670,10.410,896.200,155.300,26.040,5.124,135.300,30.330,7.172,1.753,329.900,76.350,18.450,5.131,baseline
1253.000,247.300,49.530,10.430,895.300,155.100,26.150,5.136,134.000,30.520,7.124,1.754,329.700,76.550,18.490,5.157,baseline
1254.000,247.700,49.470,10.340,894.200,155.400,26.010,5.114,131.900,30.370,7.155,1.784,331.400,76.680,18.570,5.189,baseline
1255.000,247.000,49.630,10.440,897.400,155.400,26.100,5.143,133.300,30.460,7.077,1.761,330.600,77.110,18.600,5.168,baseline
1258.000,247.200,49.450,10.440,899.800,155.400,26.110,5.120,133.000,30.390,7.141,1.787,331.500,77.300,18.670,5.178,baseline
1256.000,248.200,49.470,10.380,900.700,155.200,26.070,5.105,132.400,30.420,7.105,1.763,329.700,76.340,18.320,5.120,baseline
1248.000,246.100,49.250,10.280,895.700,154.700,26.150,5.082,133.500,30.370,7.008,1.759,328.000,75.930,18.340,5.066,baseline
1247.000,245.100,49.130,10.320,895.100,154.800,26.040,5.121,131.100,30.050,7.112,1.765,329.200,76.120,18.420,5.076,baseline
1250.000,245.900,49.230,10.300,895.000,154.100,26.100,5.123,133.800,30.110,7.124,1.768,328.600,75.920,18.280,5.087,baseline
1248.000,245.500,49.370,10.290,895.500,154.000,25.870,5.093,132.500,30.240,7.136,1.750,327.500,75.860,18.380,5.117,baseline
1248.000,247.100,49.330,10.230,895.900,155.100,26.120,5.132,133.400,30.380,7.068,1.763,326.400,76.330,18.370,5.103,baseline
1248.000,245.400,49.420,10.350,896.200,154.500,26.100,5.133,133.400,30.500,7.165,1.772,329.000,76.390,18.590,5.132,baseline
1251.000,246.700,49.320,10.410,896.400,154.700,26.000,5.139,132.200,30.380,7.101,1.752,330.800,76.620,18.670,5.133,baseline
1251.000,246.200,49.280,10.280,897.800,155.000,25.990,5.110,132.800,30.130,7.091,1.763,326.700,75.910,18.230,5.083,baseline
1244.000,244.800,48.880,10.260,894.300,154.300,25.880,5.077,131.300,29.950,7.116,1.749,327.700,75.520,18.160,5.050,baseline
1244.000,243.500,48.610,10.220,894.100,154.000,26.160,5.121,133.300,29.800,7.129,1.757,327.900,75.740,18.300,5.110,baseline
1245.000,247.200,48.790,10.270,894.600,153.900,26.080,5.117,131.500,30.230,7.098,1.744,328.100,75.650,18.370,5.103,baseline
1244.000,244.800,48.830,10.240,898.300,154.000,26.050,5.112,134.600,30.520,7.136,1.778,327.700,75.830,18.460,5.075,baseline
1244.000,245.900,49.280,10.260,893.400,154.500,26.030,5.133,132.800,30.310,7.125,1.771,328.400,76.140,18.380,5.118,baseline
1247.000,248.100,48.890,10.270,896.300,154.900,25.950,5.146,133.000,30.240,7.108,1.768,329.500,76.560,18.500,5.133,baseline
1250.000,246.300,49.510,10.370,897.600,155.200,26.040,5.121,134.200,30.610,7.207,1.779,330.300,76.630,18.520,5.138,baseline
1246.000,244.600,49.130,10.270,894.600,154.300,26.000,5.084,133.100,30.440,7.100,1.758,326.000,75.020,18.020,5.048,baseline
1241.000,243.200,49.190,10.170,892.100,154.100,25.810,5.086,134.100,30.520,7.087,1.762,325.200,75.160,18.100,5.013,baseline
1239.000,243.400,48.800,10.160,890.100,153.800,26.000,5.099,132.900,30.190,7.092,1.760,325.700,75.100,18.270,5.038,baseline
1238.000,244.400,48.590,10.220,891.600,153.300,25.930,5.105,132.500,30.150,7.091,1.769,326.000,75.180,18.180,5.058,baseline
1239.000,243.400,48.810,10.230,889.500,153.500,25.880,5.100,132.400,30.430,7.025,1.761,325.900,75.480,18.290,5.051,baseline
1239.000,243.600,48.790,10.280,890.600,154.000,26.010,5.136,132.800,30.090,7.146,1.753,326.500,75.600,18.320,5.064,baseline
1241.000,244.400,49.340,10.300,894.100,154.500,26.070,5.150,133.600,30.100,7.118,1.764,328.800,75.610,18.440,5.085,baseline
1244.000,245.100,49.330,10.330,897.900,154.700,25.950,5.132,133.500,30.400,7.140,1.793,329.000,76.560,18.370,5.160,baseline
1246.000,247.600,49.000,10.300,893.200,154.500,25.990,5.085,133.200,30.390,7.152,1.771,329.800,76.080,18.330,5.094,baseline
1241.000,245.200,48.730,10.220,893.100,154.200,25.810,5.080,135.100,30.330,7.066,1.762,326.100,75.080,18.040,5.030,baseline
1236.000,244.300,48.500,10.180,891.000,153.900,25.940,5.097,131.500,30.310,7.129,1.757,324.800,74.600,18.050,5.044,baseline
1236.000,244.300,48.650,10.190,891.100,153.500,25.850,5.103,131.200,30.150,7.037,1.748,325.000,74.910,18.160,5.038,baseline
1235.000,244.000,48.490,10.140,891.000,154.100,25.870,5.088,133.200,30.030,7.086,1.759,324.700,74.810,18.250,5.047,baseline
1236.000,243.300,48.500,10.190,888.800,153.500,25.990,5.102,131.200,30.240,7.073,1.757,324.800,75.140,18.220,5.049,baseline
1235.000,243.400,48.580,10.180,893.300,153.600,25.960,5.091,131.600,30.250,7.103,1.768,325.700,75.560,18.190,5.076,baseline
1240.000,243.500,48.690,10.260,896.100,154.400,25.980,5.110,130.700,30.260,7.141,1.755,326.100,76.190,18.340,5.117,baseline
1242.000,245.700,49.080,10.240,896.600,154.100,26.060,5.101,130.500,30.650,7.144,1.765,326.800,76.240,18.330,5.146,baseline
1244.000,245.800,48.550,10.330,895.200,154.500,26.070,5.105,131.900,30.500,7.107,1.773,329.400,76.540,18.470,5.123,baseline
1245.000,245.100,49.380,10.390,895.200,155.400,26.110,5.131,131.800,30.200,7.148,1.771,330.700,76.920,18.650,5.169,baseline
1246.000,247.100,49.070,10.240,894.200,154.500,26.080,5.134,132.200,30.460,7.142,1.771,328.600,75.630,18.310,5.108,baseline
1238.000,244.100,48.540,10.190,889.800,153.700,26.050,5.093,131.600,30.090,7.122,1.752,325.200,74.960,18.250,5.030,baseline
1237.000,243.400,48.670,10.220,891.800,153.600,25.970,5.081,132.900,30.570,7.115,1.764,326.300,75.460,18.210,5.058,baseline
1238.000,244.300,48.860,10.190,896.600,154.700,25.870,5.070,133.100,29.980,7.073,1.759,325.000,75.100,18.230,5.049,baseline
1238.000,244.800,48.900,10.220,895.300,154.700,26.050,5.091,131.700,29.970,7.084,1.763,325.900,75.120,18.210,5.063,baseline
1237.000,243.100,49.100,10.280,891.500,154.300,26.030,5.096,131.200,30.420,7.081,1.767,325.700,75.840,18.220,5.080,baseline
1240.000,244.500,49.070,10.250,894.300,154.700,26.040,5.131,133.500,30.220,7.091,1.766,327.900,76.020,18.390,5.128,baseline
1243.000,244.700,49.380,10.320,897.900,154.700,26.110,5.104,131.700,30.140,7.114,1.753,328.500,76.280,18.390,5.134,baseline
1245.000,245.700,49.040,10.380,896.000,155.200,26.210,5.145,132.200,30.550,7.127,1.773,329.500,76.580,18.650,5.189,baseline
1247.000,246.100,49.320,10.340,896.000,155.100,26.190,5.177,132.800,30.710,7.141,1.781,329.600,76.920,18.660,5.178,baseline
1250.000,247.800,49.300,10.410,897.500,154.300,26.190,5.100,132.200,30.440,7.188,1.763,329.500,76.780,18.450,5.130,baseline
1244.000,243.900,49.010,10.210,895.000,154.300,26.010,5.107,133.300,30.460,7.092,1.742,326.900,75.570,18.290,5.084,baseline
1241.000,244.400,48.790,10.210,896.400,154.500,26.010,5.110,134.200,30.090,7.072,1.739,326.600,75.940,18.410,5.113,baseline
1242.000,244.500,49.230,10.310,892.500,154.500,26.050,5.104,132.300,30.020,7.080,1.748,326.500,75.650,18.300,5.074,baseline
1242.000,245.700,49.240,10.360,897.200,154.400,25.970,5.131,132.000,30.020,7.075,1.741,328.700,75.950,18.350,5.153,baseline
1244.000,245.600,49.160,10.330,894.400,154.100,25.890,5.108,136.300,30.450,7.129,1.749,328.700,76.280,18.540,5.141,baseline
1246.000,246.800,49.610,10.430,898.700,155.000,26.070,5.127,131.800,30.320,7.081,1.768,329.500,76.820,18.550,5.187,baseline
1248.000,246.300,49.330,10.450,897.800,154.700,26.080,5.132,135.400,30.560,7.081,1.765,329.900,77.190,18.780,5.228,baseline
1252.000,245.900,49.250,10.480,898.800,155.100,26.110,5.121,132.400,30.540,7.139,1.781,331.800,77.450,18.840,5.237,baseline
1255.000,249.100,49.770,10.540,898.600,155.400,26.210,5.133,133.800,30.500,7.180,1.767,332.800,77.960,18.810,5.300,baseline
1257.000,248.000,49.710,10.510,900.500,154.800,26.190,5.120,134.000,30.510,7.148,1.775,331.900,77.340,18.780,5.204,baseline
1250.000,247.700,49.590,10.360,898.100,154.900,26.070,5.111,132.600,30.050,7.068,1.752,328.900,76.230,18.400,5.149,baseline
1247.000,246.900,49.300,10.370,898.100,153.900,26.000,5.099,131.900,30.440,7.078,1.754,328.800,76.430,18.580,5.146,baseline
1248.000,246.800,49.480,10.360,894.800,154.300,26.030,5.110,133.100,30.060,7.059,1.767,329.100,76.490,18.460,5.171,baseline
1248.000,246.100,49.320,10.400,897.300,153.600,26.060,5.089,131.600,30.190,7.113,1.755,331.100,76.260,18.530,5.142,baseline
1248.000,248.200,49.370,10.430,894.000,154.300,26.010,5.119,133.900,30.390,7.079,1.760,329.800,76.600,18.620,5.212,baseline
1250.000,248.200,49.430,10.510,898.000,155.100,26.040,5.104,132.600,30.230,7.078,1.750,331.400,77.200,18.690,5.242,baseline
1253.000,247.800,49.890,10.580,901.400,154.900,26.110,5.127,133.400,30.300,7.110,1.766,332.200,77.610,18.810,5.263,baseline
1255.000,247.400,50.420,10.570,896.500,155.300,26.350,5.131,134.200,30.570,7.075,1.774,333.300,78.120,18.880,5.293,baseline
1259.000,249.000,50.210,10.620,899.700,155.600,26.290,5.089,132.600,30.720,7.155,1.768,335.700,78.160,19.090,5.297,baseline
1262.000,248.800,50.210,10.630,900.900,155.400,26.170,5.101,132.800,30.430,7.152,1.777,334.900,78.030,19.050,5.261,baseline
1259.000,248.700,49.600,10.480,900.300,155.000,26.010,5.064,133.300,30.440,7.088,1.754,332.700,76.710,18.570,5.198,baseline
1252.000,248.500,49.450,10.430,895.700,155.000,26.230,5.114,132.500,29.940,7.078,1.740,331.600,76.410,18.630,5.191,baseline
1252.000,249.800,49.850,10.510,898.600,154.000,26.090,5.083,132.000,30.210,7.065,1.756,331.100,77.100,18.560,5.194,baseline
1254.000,248.700,49.650,10.440,896.100,154.500,26.060,5.114,132.400,29.860,7.094,1.747,331.100,77.420,18.640,5.183,baseline
1253.000,248.000,49.570,10.500,899.100,154.800,26.100,5.139,131.000,30.450,7.104,1.749,332.200,77.020,18.650,5.229,baseline
1255.000,249.200,49.810,10.590,899.200,155.100,25.970,5.108,132.200,30.300,7.068,1.752,332.900,77.460,18.810,5.257,baseline
1257.000,248.800,50.030,10.560,900.800,155.100,26.100,5.129,129.200,30.590,7.086,1.764,333.100,77.910,19.020,5.307,baseline
1260.000,250.700,50.060,10.620,903.600,155.300,26.320,5.121,133.700,30.390,7.121,1.760,335.000,78.240,18.960,5.338,baseline
1262.000,250.300,50.050,10.680,901.300,155.600,26.210,5.140,134.800,30.340,7.171,1.761,336.200,78.720,19.100,5.345,baseline
1265.000,250.500,50.760,10.730,903.500,155.700,26.150,5.115,133.400,30.320,7.150,1.773,336.000,78.840,19.120,5.319,baseline
1261.000,249.200,49.890,10.540,901.100,155.500,26.030,5.085,131.900,30.180,7.078,1.762,333.500,77.540,18.850,5.225,baseline
1257.000,248.500,50.080,10.570,897.700,155.200,26.210,5.076,134.500,30.180,7.061,1.750,331.700,77.400,18.740,5.234,baseline
1258.000,248.100,50.080,10.520,901.300,154.700,26.180,5.068,133.000,30.360,7.063,1.749,332.800,77.520,18.780,5.253,baseline
1258.000,248.800,49.830,10.530,902.000,155.000,26.070,5.087,133.700,30.250,7.049,1.756,332.900,77.210,18.780,5.227,baseline
1258.000,248.200,50.090,10.560,897.500,155.500,26.190,5.080,132.600,30.270,7.077,1.747,333.400,77.340,18.750,5.278,baseline
1259.000,249.400,50.010,10.570,899.800,154.800,26.110,5.088,134.300,30.240,7.059,1.747,334.900,77.980,18.830,5.280,baseline
1261.000,248.200,50.560,10.620,900.500,155.800,26.150,5.132,132.200,30.380,7.022,1.755,334.300,78.230,18.950,5.328,baseline
1263.000,248.500,49.970,10.600,905.200,155.400,26.310,5.119,133.100,30.290,7.119,1.766,335.600,78.640,19.070,5.343,baseline
1267.000,249.800,50.580,10.630,901.300,156.300,26.280,5.125,134.700,30.230,7.129,1.771,335.800,78.300,18.950,5.307,baseline
1263.000,250.800,50.320,10.510,898.800,155.200,26.100,5.086,133.600,30.250,7.078,1.763,333.300,77.100,18.710,5.236,baseline
1258.000,248.200,49.960,10.490,897.500,155.600,26.090,5.072,133.700,30.460,7.040,1.739,332.500,77.290,18.760,5.242,baseline
1258.000,250.500,49.980,10.540,899.800,154.800,26.150,5.092,133.900,29.970,7.093,1.745,332.700,77.380,18.760,5.269,baseline
1258.000,249.600,50.080,10.530,895.600,154.700,26.120,5.057,133.300,30.230,7.066,1.744,332.900,77.210,18.780,5.265,baseline
1259.000,249.000,50.190,10.590,900.300,155.000,26.170,5.089,134.600,30.180,7.111,1.755,333.400,77.570,18.780,5.297,baseline
1260.000,248.900,49.640,10.570,905.200,155.500,26.260,5.082,132.000,30.410,7.105,1.767,334.200,78.000,18.840,5.326,baseline
1263.000,249.600,50.080,10.600,901.200,155.000,26.130,5.113,131.700,30.320,7.204,1.761,333.600,78.420,19.030,5.318,baseline
1265.000,250.900,50.200,10.640,900.900,155.500,26.200,5.074,134.800,30.420,7.081,1.754,335.800,78.260,18.850,5.268,baseline
1261.000,247.600,50.260,10.500,899.300,154.200,26.010,5.066,131.600,30.390,7.109,1.742,331.400,76.970,18.600,5.213,baseline
1255.000,246.900,49.650,10.480,896.700,154.900,26.010,5.080,131.200,29.890,6.998,1.752,330.600,76.570,18.480,5.192,baseline
1253.000,248.600,49.710,10.430,898.900,154.500,26.060,5.075,132.500,30.260,7.023,1.737,331.500,77.000,18.590,5.226,baseline
1254.000,246.900,49.680,10.480,893.900,154.500,26.010,5.076,130.300,30.150,7.050,1.744,330.200,76.570,18.590,5.201,baseline
1252.000,247.500,49.670,10.530,897.600,154.600,26.010,5.064,135.600,29.990,7.019,1.742,330.100,76.650,18.630,5.220,baseline
1253.000,247.000,49.790,10.500,897.500,154.600,25.930,5.084,131.800,30.130,7.009,1.748,331.800,76.800,18.740,5.222,baseline
1255.000,248.900,49.890,10.520,894.200,154.800,26.180,5.081,132.400,30.300,7.068,1.757,331.500,76.910,18.680,5.229,baseline
1257.000,247.300,50.040,10.620,897.300,154.700,26.030,5.091,134.800,30.330,7.090,1.760,332.400,77.600,18.670,5.266,baseline
1258.000,248.400,50.100,10.460,897.200,154.300,25.970,5.064,133.100,29.890,7.016,1.744,331.300,76.080,18.480,5.138,baseline
1250.000,246.500,49.390,10.420,895.700,154.100,25.910,5.059,130.700,29.810,7.002,1.754,327.900,76.030,18.380,5.166,baseline
1247.000,246.800,49.310,10.350,895.200,153.900,26.050,5.046,132.400,29.990,7.056,1.739,328.800,75.160,18.290,5.143,baseline
1246.000,245.700,49.240,10.390,894.200,153.800,25.880,5.043,133.200,29.900,7.027,1.738,327.600,75.590,18.420,5.077,baseline
1245.000,246.600,49.390,10.290,894.500,154.400,25.800,5.042,134.000,30.340,6.990,1.737,327.500,75.650,18.360,5.118,baseline
1245.000,247.000,49.520,10.310,895.100,154.200,25.990,5.037,132.300,30.250,6.994,1.727,327.300,75.380,18.410,5.106,baseline
1246.000,245.500,49.520,10.370,890.800,153.200,25.940,5.079,131.700,30.240,7.021,1.741,327.500,75.540,18.440,5.129,baseline
1248.000,246.200,49.570,10.400,893.000,154.200,25.930,5.062,131.400,30.100,7.008,1.753,328.000,76.030,18.380,5.175,baseline
1249.000,246.300,49.670,10.450,894.800,153.700,26.090,5.072,132.200,30.190,7.082,1.744,328.900,76.420,18.540,5.183,baseline
1249.000,245.600,49.670,10.350,892.600,154.200,25.880,5.047,131.200,30.280,7.060,1.744,328.900,75.610,18.320,5.070,baseline
1242.000,243.800,48.890,10.290,890.500,153.700,25.930,5.001,131.900,30.310,7.002,1.745,325.200,74.770,17.830,5.021,baseline
1240.000,245.500,49.000,10.260,893.000,153.500,25.970,5.012,133.000,29.760,6.991,1.732,324.300,74.620,18.060,5.035,baseline
1240.000,244.700,48.930,10.310,891.900,153.700,25.900,5.055,134.800,29.770,6.985,1.736,324.600,74.260,18.060,5.025,baseline
1237.000,245.000,48.850,10.290,890.700,153.900,25.860,5.027,130.100,29.870,6.983,1.742,323.600,74.330,17.980,5.058,baseline
1238.000,242.500,48.880,10.320,892.200,153.600,25.870,5.066,132.200,29.830,7.017,1.734,323.200,74.660,18.070,5.048,baseline
1238.000,244.500,48.690,10.250,890.600,153.400,25.870,5.087,132.500,29.970,7.030,1.740,324.200,74.860,18.220,5.058,baseline
1240.000,245.400,48.910,10.240,891.600,153.800,25.880,5.051,133.100,29.780,7.067,1.752,325.400,75.000,18.150,5.076,baseline
1240.000,245.200,48.780,10.330,893.400,153.900,25.860,5.073,131.600,30.260,7.066,1.752,325.900,75.470,18.110,5.066,baseline
1241.000,246.200,49.050,10.270,890.600,153.800,25.830,5.041,131.900,30.100,7.010,1.741,324.500,74.420,17.890,5.001,baseline
1234.000,242.900,48.390,10.210,887.400,152.600,25.660,5.049,130.500,29.900,6.996,1.746,321.000,73.900,17.720,4.962,baseline
1232.000,240.700,48.850,10.210,886.400,153.000,25.790,5.038,132.600,29.740,6.992,1.733,322.100,73.850,17.770,4.991,baseline
1233.000,243.500,48.650,10.210,885.700,153.700,25.710,5.023,130.100,30.000,7.019,1.736,321.600,73.530,17.860,4.967,baseline
1231.000,242.300,48.360,10.210,890.400,153.000,25.900,5.003,131.000,30.040,6.933,1.742,320.600,73.950,17.840,4.987,baseline
1232.000,244.900,48.450,10.210,889.500,152.800,25.870,5.080,129.900,30.170,7.067,1.735,323.600,73.880,17.790,4.970,baseline
1233.000,244.300,49.010,10.190,887.700,152.700,25.690,5.088,131.500,30.310,7.066,1.739,323.100,73.990,17.960,5.029,baseline
1235.000,244.900,48.960,10.240,890.400,153.100,25.980,5.056,134.700,29.940,7.034,1.760,323.600,74.430,18.150,5.014,baseline
1236.000,243.700,48.980,10.230,890.700,153.100,25.860,5.094,133.500,30.400,7.061,1.759,325.500,75.090,18.100,5.047,baseline
1237.000,243.100,48.660,10.170,888.800,152.800,25.740,5.086,131.600,30.300,7.018,1.752,323.500,73.970,17.760,4.966,baseline
1230.000,243.000,48.310,10.200,889.600,152.400,25.800,5.070,130.000,29.870,7.055,1.748,320.200,72.920,17.640,4.902,baseline
1228.000,241.500,48.440,10.130,887.300,152.200,25.690,5.020,131.600,29.990,7.014,1.729,318.400,72.780,17.640,4.882,baseline
1228.000,241.600,48.250,10.090,884.800,152.600,25.740,5.052,129.900,30.120,6.973,1.731,320.100,72.980,17.650,4.928,baseline
1227.000,242.300,48.460,10.110,884.100,152.600,25.830,5.011,132.700,29.920,7.069,1.734,319.700,72.990,17.630,4.897,baseline
1227.000,242.100,48.450,10.150,886.500,152.000,25.710,5.054,131.100,29.980,7.034,1.746,319.100,73.390,17.840,4.927,baseline
1229.000,242.300,48.250,10.170,889.500,151.700,25.820,5.063,128.900,29.720,7.061,1.744,320.300,73.480,17.800,4.951,baseline
1229.000,243.100,48.380,10.200,888.200,152.200,25.760,5.060,132.700,29.990,7.090,1.731,321.400,73.600,17.830,4.995,baseline
1231.000,244.200,48.710,10.210,886.700,152.200,25.710,5.102,132.100,29.930,7.117,1.769,321.300,73.790,17.970,4.968,baseline
1231.000,243.600,48.520,10.250,884.900,153.400,25.780,5.085,132.000,30.400,7.093,1.766,323.200,74.360,18.020,5.010,baseline
1231.000,242.000,48.370,10.140,887.200,151.600,25.660,5.060,130.900,30.100,7.040,1.754,321.300,72.990,17.540,4.932,baseline
1223.000,240.800,47.980,10.090,887.000,151.900,25.810,5.040,130.600,29.810,7.001,1.724,319.400,72.800,17.460,4.903,baseline
1222.000,240.100,48.020,10.060,885.000,152.200,25.810,5.057,130.800,29.390,7.020,1.734,316.800,72.440,17.470,4.858,baseline
1224.000,242.000,48.020,10.070,884.000,151.700,25.730,5.066,129.400,30.000,7.035,1.753,317.500,72.530,17.460,4.850,baseline
1222.000,240.400,48.040,10.060,881.400,152.400,25.690,5.009,130.500,29.860,7.074,1.739,318.100,72.720,17.660,4.868,baseline
1223.000,241.600,47.650,10.100,886.200,151.800,25.720,5.057,132.400,29.800,7.053,1.742,319.100,72.810,17.640,4.892,baseline
1224.000,242.600,48.110,10.130,883.100,152.300,25.690,5.045,131.500,29.850,7.054,1.745,319.900,73.220,17.670,4.940,baseline
1227.000,242.300,48.360,10.190,885.900,152.300,25.700,5.037,129.100,30.050,7.055,1.758,320.900,73.360,17.810,4.946,baseline
1228.000,241.700,48.180,10.180,885.100,152.400,25.870,5.048,130.300,30.280,7.072,1.750,321.700,73.940,17.710,5.014,baseline
1230.000,243.000,48.480,10.220,882.100,152.600,25.740,5.050,131.200,30.080,7.096,1.773,320.700,74.110,17.840,5.001,baseline
1231.000,244.100,48.670,10.130,886.700,152.300,25.930,5.041,133.400,30.320,7.060,1.758,321.900,73.640,17.830,4.894,baseline
1223.000,241.400,48.170,10.050,880.000,152.100,25.620,5.049,129.200,29.900,7.116,1.739,317.700,72.890,17.590,4.858,baseline
1222.000,240.900,48.210,10.080,885.700,151.800,25.600,5.030,130.900,30.000,7.022,1.736,318.400,73.060,17.410,4.864,baseline
1221.000,241.800,48.170,10.060,882.500,151.700,25.570,4.999,131.200,30.020,6.992,1.730,318.600,72.870,17.590,4.903,baseline
1221.000,241.000,47.930,10.100,887.400,152.400,25.610,5.033,132.900,29.960,7.003,1.746,319.000,72.960,17.630,4.883,baseline
1222.000,241.000,48.350,10.080,885.500,152.800,25.670,5.036,132.600,29.860,7.048,1.761,319.200,73.210,17.560,4.893,baseline
1224.000,240.400,48.410,10.150,882.600,152.100,25.690,5.009,128.000,29.890,7.059,1.748,319.600,73.430,17.610,4.923,baseline
1226.000,241.700,48.320,10.230,885.600,152.300,25.780,5.054,131.700,30.240,7.078,1.746,319.900,74.160,17.950,4.971,baseline
1227.000,241.600,48.340,10.230,887.100,152.800,25.850,5.064,134.800,30.320,7.105,1.764,322.400,74.180,17.870,4.987,baseline
1231.000,242.800,48.490,10.240,885.300,152.900,25.740,5.042,131.700,30.190,7.112,1.759,322.700,74.360,18.030,5.021,baseline
1232.000,243.500,48.560,10.200,885.300,151.400,25.660,5.050,133.100,30.220,7.087,1.766,322.500,73.800,17.810,4.933,baseline
1224.000,240.600,48.200,10.110,883.000,151.800,25.770,5.015,130.700,30.370,7.018,1.754,319.300,73.160,17.730,4.864,baseline
1222.000,241.600,47.820,10.030,886.000,151.700,25.650,5.014,132.200,29.520,7.017,1.744,318.100,73.250,17.630,4.902,baseline
1222.000,241.000,47.990,10.100,883.000,151.800,25.720,5.041,131.400,30.020,7.017,1.741,317.400,73.100,17.520,4.895,baseline
1223.000,241.100,48.040,10.050,884.000,151.400,25.700,5.020,131.900,30.010,6.991,1.744,319.400,73.090,17.520,4.928,baseline
1223.000,239.700,48.150,10.070,885.200,152.300,25.670,5.025,131.100,29.830,7.090,1.738,320.300,73.270,17.630,4.918,baseline
1225.000,241.400,48.240,10.190,886.800,151.900,25.740,5.030,132.000,30.260,7.094,1.738,319.700,73.900,17.890,4.980,baseline
1227.000,242.500,48.320,10.130,880.500,151.800,25.760,5.076,132.100,30.310,7.051,1.748,323.000,73.970,17.890,4.941,baseline
1229.000,242.700,48.460,10.230,886.500,151.800,25.710,5.042,130.600,30.050,7.072,1.747,322.500,74.420,17.940,5.016,baseline
1231.000,243.300,48.790,10.260,890.200,152.500,25.800,5.049,131.100,30.340,7.116,1.751,323.900,74.770,18.130,5.048,baseline
1234.000,242.800,48.730,10.250,888.300,152.400,25.820,5.050,133.700,30.070,7.132,1.760,323.800,74.580,17.890,5.006,baseline
1229.000,241.200,48.420,10.110,888.000,151.800,25.740,5.006,131.200,30.260,7.045,1.752,319.700,73.610,17.690,4.917,baseline
1223.000,242.000,47.950,10.100,887.000,151.500,25.520,4.981,132.100,30.150,7.047,1.736,319.900,73.150,17.590,4.903,baseline
1224.000,241.000,48.070,10.110,883.600,151.500,25.560,4.980,131.400,30.050,7.000,1.718,319.800,73.220,17.750,4.916,baseline
1224.000,241.400,47.940,10.010,883.600,151.600,25.680,4.996,132.300,30.210,7.013,1.735,320.600,73.380,17.660,4.903,baseline
1224.000,241.700,48.270,10.140,885.800,152.300,25.750,5.018,131.300,29.600,7.085,1.725,320.400,73.470,17.680,4.954,baseline
1226.000,241.300,48.310,10.130,886.800,152.100,25.600,5.022,132.400,29.880,7.002,1.747,320.900,73.980,17.800,4.959,baseline
1229.000,244.100,48.520,10.120,890.000,152.400,25.580,5.017,131.100,30.160,7.090,1.750,322.100,74.380,18.060,4.999,baseline
1230.000,242.300,48.700,10.210,891.100,152.200,25.670,5.057,134.300,29.810,7.047,1.741,323.200,74.470,18.070,5.057,baseline
1232.000,243.200,48.530,10.200,889.100,153.300,25.830,5.065,131.900,29.990,7.095,1.744,324.200,74.840,18.290,5.070,baseline
1235.000,244.300,49.240,10.270,884.700,151.500,25.710,5.041,131.200,30.060,7.069,1.760,323.900,74.700,18.010,5.027,baseline
1229.000,241.300,48.300,10.170,888.800,151.300,25.640,5.008,131.500,29.840,7.072,1.724,321.000,73.620,17.780,4.983,baseline
1226.000,241.700,48.240,10.150,887.800,151.900,25.590,5.031,129.900,29.640,7.011,1.731,321.800,73.450,17.650,4.971,baseline
1225.000,242.600,48.500,10.190,886.700,151.800,25.690,5.016,133.100,29.860,7.017,1.747,321.100,74.250,17.810,4.972,baseline
1226.000,240.400,48.440,10.160,888.100,151.800,25.560,4.993,131.700,29.860,6.988,1.741,321.900,73.870,17.950,4.971,baseline
1225.000,241.800,48.210,10.100,886.300,151.600,25.630,4.994,132.900,29.840,6.993,1.736,322.200,74.100,17.910,5.033,baseline
1227.000,243.100,48.290,10.170,887.800,152.100,25.690,5.005,132.100,29.910,7.084,1.742,322.900,74.540,17.960,5.055,baseline
1230.000,242.900,48.740,10.200,888.700,152.300,25.690,5.012,131.800,30.050,7.096,1.741,324.500,74.800,18.200,5.075,baseline
1234.000,243.400,48.830,10.230,889.500,152.700,25.650,5.018,131.500,30.290,7.065,1.745,325.200,75.350,18.230,5.124,baseline
1237.000,245.700,48.860,10.340,890.400,152.800,25.810,5.032,133.400,29.900,7.046,1.746,325.500,75.890,18.270,5.142,baseline
1238.000,243.300,48.690,10.250,885.400,152.900,25.630,4.997,129.700,30.200,7.061,1.743,324.800,74.560,18.040,5.020,baseline
1229.000,241.900,48.210,10.150,886.200,151.900,25.620,5.000,130.200,30.000,6.996,1.708,323.000,73.800,17.910,5.015,baseline
1228.000,241.700,48.110,10.200,886.200,152.000,25.680,5.004,132.800,29.720,7.037,1.740,323.600,73.910,17.920,5.025,baseline
1228.000,242.300,48.480,10.180,885.500,151.900,25.670,4.991,130.800,29.970,6.995,1.729,322.700,74.210,17.920,4.992,baseline
1229.000,243.200,48.250,10.200,889.400,152.100,25.720,4.974,131.300,29.820,7.013,1.732,322.100,74.280,18.050,5.012,baseline
1229.000,242.700,48.390,10.200,885.900,151.900,25.600,5.031,133.100,29.870,6.978,1.741,324.200,74.710,17.960,5.043,baseline
1231.000,243.400,48.600,10.310,892.000,152.200,25.670,5.052,130.900,29.890,7.037,1.730,325.300,75.110,18.090,5.080,baseline
1234.000,244.700,49.060,10.260,889.200,152.500,25.880,5.036,132.300,30.150,7.131,1.758,325.900,75.620,18.230,5.108,baseline
1237.000,244.100,48.710,10.300,890.800,152.800,25.630,5.000,131.800,30.290,7.034,1.744,327.000,75.750,18.320,5.174,baseline
1239.000,243.400,48.990,10.340,890.400,153.000,25.770,5.025,132.600,30.010,7.092,1.747,327.700,76.200,18.410,5.152,baseline
1239.000,244.600,48.840,10.260,889.100,151.700,25.640,5.022,132.400,30.100,7.080,1.731,325.500,74.530,17.980,5.047,baseline
1230.000,243.100,48.580,10.230,886.100,152.300,25.550,4.959,131.600,29.920,6.984,1.723,322.900,74.180,18.020,5.022,baseline
1231.000,242.200,48.970,10.220,885.500,152.200,25.750,4.966,130.700,29.810,7.008,1.724,325.200,74.680,18.040,5.035,baseline
1232.000,242.300,48.630,10.250,887.700,151.500,25.590,5.016,131.200,29.860,7.024,1.738,325.200,74.840,18.100,5.048,baseline
1232.000,242.100,48.600,10.230,886.500,152.300,25.720,4.994,131.300,30.140,7.045,1.719,324.700,74.710,18.130,5.076,baseline
1232.000,242.400,48.600,10.250,889.400,151.900,25.640,5.017,130.400,29.640,7.059,1.735,326.300,75.140,18.170,5.090,baseline
1236.000,243.500,48.730,10.310,890.300,152.500,25.680,5.043,133.100,30.040,7.028,1.758,326.000,75.570,18.460,5.141,baseline
1238.000,244.200,48.820,10.360,893.700,152.200,25.740,5.033,133.300,29.660,7.061,1.747,329.200,76.300,18.330,5.189,baseline
1241.000,247.100,49.330,10.370,892.500,153.000,25.810,5.005,133.600,30.160,7.053,1.743,328.400,76.460,18.540,5.204,baseline
1245.000,246.000,49.210,10.330,893.300,153.100,25.770,5.040,132.900,30.220,7.049,1.756,329.600,76.120,18.380,5.149,baseline
1237.000,244.300,48.650,10.230,888.700,151.900,25.680,5.000,131.800,29.980,7.030,1.729,325.900,74.890,18.180,5.070,baseline
1235.000,243.500,48.490,10.220,888.500,152.600,25.680,5.030,130.200,29.890,6.975,1.718,325.300,75.250,18.130,5.097,baseline
1235.000,242.800,48.420,10.230,894.300,152.100,25.770,4.990,131.500,30.170,6.992,1.734,326.400,75.370,18.240,5.115,baseline
1237.000,243.000,48.630,10.250,891.900,152.500,25.590,4.974,131.200,29.970,6.951,1.731,326.300,75.220,18.180,5.079,baseline
1236.000,243.500,48.630,10.210,887.500,152.600,25.700,5.011,134.000,29.910,7.009,1.746,326.700,75.690,18.270,5.129,baseline
1239.000,243.100,48.990,10.340,890.800,152.400,25.740,5.028,132.100,30.050,7.022,1.728,327.800,75.600,18.410,5.172,baseline
1241.000,245.300,49.040,10.370,892.300,152.700,25.780,5.015,134.100,30.030,7.055,1.728,329.900,76.080,18.500,5.181,baseline
1245.000,244.300,49.370,10.380,891.000,153.200,25.770,5.022,133.400,30.500,7.061,1.749,329.000,76.640,18.500,5.186,baseline
1244.000,243.200,49.070,10.320,888.500,152.300,25.640,5.008,132.700,29.840,7.023,1.727,328.100,75.290,18.300,5.129,baseline
1236.000,243.700,48.540,10.250,890.100,152.200,25.650,4.970,132.000,29.590,6.953,1.722,326.000,75.120,18.280,5.093,baseline
1235.000,244.700,48.850,10.260,886.400,152.200,25.600,4.972,131.000,29.830,7.004,1.721,326.800,75.470,18.340,5.163,baseline
1237.000,244.400,48.750,10.260,890.300,152.200,25.570,5.005,133.500,29.950,7.029,1.722,327.000,75.300,18.260,5.128,baseline
1238.000,244.900,48.990,10.250,888.500,152.700,25.570,5.007,131.900,29.910,6.958,1.717,327.100,75.450,18.400,5.146,baseline
1239.000,243.500,48.960,10.350,892.800,152.500,25.610,5.039,130.700,30.100,7.002,1.725,328.300,76.410,18.460,5.181,baseline
1243.000,245.700,49.220,10.420,891.300,152.200,25.810,5.025,131.900,29.670,6.998,1.737,329.100,76.390,18.500,5.214,baseline
1246.000,244.200,49.390,10.400,893.000,152.800,25.810,4.999,133.000,30.050,6.985,1.708,331.500,77.070,18.650,5.228,baseline
1248.000,246.100,49.250,10.330,891.600,152.400,25.650,5.004,133.300,30.310,6.993,1.712,329.500,75.910,18.490,5.141,baseline
1239.000,244.800,48.810,10.250,891.100,151.900,25.620,4.953,132.100,29.790,6.972,1.715,326.500,75.290,18.120,5.085,baseline
1237.000,243.100,48.760,10.230,888.600,152.100,25.500,5.010,131.500,29.790,6.955,1.698,327.200,74.890,18.270,5.127,baseline
1238.000,243.700,49.010,10.220,886.200,152.000,25.540,4.985,131.200,29.560,6.995,1.700,327.700,75.660,18.310,5.129,baseline
1238.000,243.600,48.440,10.220,887.800,151.700,25.760,4.992,132.000,29.860,7.002,1.699,327.600,75.260,18.340,5.110,baseline
1237.000,244.400,48.780,10.310,889.700,152.300,25.680,5.000,132.900,30.000,6.930,1.701,328.500,75.550,18.380,5.155,baseline
1239.000,244.200,49.280,10.310,894.600,152.700,25.630,5.007,131.900,29.770,6.915,1.728,327.300,76.050,18.470,5.182,baseline
1243.000,244.500,48.940,10.390,891.400,152.700,25.630,5.015,133.100,29.960,6.922,1.716,330.900,76.400,18.700,5.198,baseline
1245.000,244.700,49.010,10.380,889.100,152.300,25.610,4.995,132.300,29.920,6.978,1.716,329.800,75.930,18.370,5.149,baseline
1238.000,243.100,48.650,10.180,888.000,151.700,25.580,4.930,132.500,29.300,6.905,1.700,325.600,74.750,18.180,5.058,baseline
1235.000,241.400,48.560,10.230,889.000,151.900,25.610,4.969,131.200,29.670,6.892,1.696,325.200,74.640,18.080,5.059,baseline
1235.000,241.500,48.680,10.190,886.600,151.600,25.510,4.949,132.600,29.710,6.950,1.694,326.400,74.860,18.080,5.104,baseline
1235.000,244.100,48.660,10.240,882.700,151.200,25.560,4.973,130.700,29.520,6.883,1.710,325.400,74.990,18.180,5.067,baseline
1235.000,243.100,48.570,10.160,885.800,151.600,25.580,4.963,130.600,30.030,6.907,1.714,326.200,75.270,18.040,5.140,baseline
1236.000,243.200,48.630,10.260,891.900,151.900,25.710,4.984,131.700,29.760,6.888,1.707,325.800,75.650,18.260,5.118,baseline
1237.000,244.100,48.650,10.190,886.400,151.300,25.700,4.975,131.500,29.460,6.927,1.709,327.700,75.990,18.400,5.198,baseline
1241.000,245.800,48.420,10.260,887.800,151.700,25.580,4.995,130.500,29.670,6.989,1.709,327.300,75.700,18.290,5.088,baseline
1234.000,243.500,48.320,10.120,887.400,151.200,25.580,4.955,131.100,29.360,6.845,1.692,325.200,74.460,18.020,5.034,baseline
1230.000,242.600,48.080,10.110,885.300,151.700,25.550,4.969,129.700,29.660,6.883,1.673,323.600,74.380,17.990,5.018,baseline
1230.000,241.800,48.100,10.120,883.800,150.900,25.460,4.985,131.700,29.520,6.899,1.691,323.800,74.640,17.870,5.030,baseline
1229.000,241.300,48.130,10.110,881.500,151.500,25.430,4.954,131.100,29.570,6.866,1.694,323.300,74.200,17.900,5.031,baseline
1228.000,241.100,48.680,10.120,884.000,151.500,25.490,4.935,128.500,29.660,6.839,1.704,322.500,74.090,18.000,5.057,baseline
1228.000,240.900,48.150,10.140,880.700,151.200,25.480,4.977,131.500,29.400,6.861,1.713,323.700,74.710,18.030,5.090,baseline
1231.000,240.500,48.210,10.200,884.400,151.900,25.440,4.959,130.000,29.820,6.920,1.702,324.500,75.440,18.130,5.112,baseline
1231.000,241.300,48.320,10.070,879.700,150.800,25.610,4.969,131.700,29.700,6.855,1.702,324.100,73.990,17.840,5.009,baseline
1223.000,238.400,47.480,10.040,882.100,150.400,25.320,4.914,129.400,29.270,6.842,1.694,320.800,73.580,17.750,4.964,baseline
1221.000,239.800,48.100,10.010,878.700,150.800,25.230,4.922,129.800,29.380,6.869,1.685,320.600,73.260,17.840,4.999,baseline
1220.000,239.000,47.340,9.934,880.600,150.900,25.350,4.924,131.000,29.260,6.858,1.681,320.800,73.330,17.830,4.997,baseline
1219.000,238.500,47.650,9.934,878.000,150.300,25.190,4.955,130.000,29.340,6.830,1.697,319.700,73.530,17.780,4.999,baseline
1218.000,239.400,47.900,10.020,878.600,150.600,25.360,4.943,129.900,29.330,6.864,1.700,321.100,74.150,17.760,4.997,baseline
1219.000,240.200,47.920,10.040,882.500,150.500,25.390,4.961,131.200,29.300,6.828,1.692,320.900,74.350,17.910,5.045,baseline
1223.000,241.300,48.120,10.040,882.800,151.500,25.470,4.985,131.200,29.630,6.864,1.706,321.900,74.800,18.000,5.049,baseline
1221.000,239.900,47.660,9.977,880.700,150.800,25.340,4.933,131.000,29.420,6.838,1.675,319.900,73.290,17.530,4.899,baseline
1212.000,236.700,47.190,9.916,876.600,150.000,25.200,4.920,129.100,29.130,6.790,1.692,317.000,72.450,17.310,4.902,baseline
1210.000,236.200,47.030,9.833,876.700,150.100,25.260,4.917,126.900,29.250,6.830,1.685,317.200,72.570,17.310,4.917,baseline
1210.000,236.000,47.120,9.933,879.300,150.100,25.290,4.908,131.300,29.460,6.807,1.688,316.000,72.860,17.410,4.877,baseline
1208.000,236.800,47.040,9.832,876.600,149.400,25.160,4.961,128.500,29.040,6.834,1.680,315.900,72.570,17.560,4.898,baseline
1206.000,236.900,47.010,9.868,875.600,150.100,25.260,4.947,130.800,28.920,6.756,1.693,316.500,72.520,17.450,4.913,baseline
1209.000,237.300,47.080,9.911,876.000,150.400,25.270,4.958,130.200,29.010,6.813,1.689,315.200,73.030,17.700,4.948,baseline
1212.000,238.700,47.300,9.928,881.700,150.000,25.330,4.952,132.100,29.290,6.811,1.699,317.500,73.390,17.770,4.940,baseline
1211.000,235.400,47.550,9.822,877.100,150.100,25.290,4.949,130.700,28.850,6.860,1.677,314.100,72.060,17.260,4.828,baseline
1203.000,235.700,46.930,9.764,874.100,149.900,25.110,4.903,129.300,29.190,6.774,1.680,314.100,71.440,17.060,4.786,baseline
1199.000,234.200,46.670,9.702,874.600,149.700,25.070,4.923,128.500,29.180,6.725,1.665,311.100,71.320,17.160,4.800,baseline
1198.000,234.300,46.770,9.760,874.500,150.200,25.150,4.914,128.000,28.950,6.795,1.674,311.800,71.410,17.210,4.811,baseline
1197.000,233.600,46.780,9.719,873.900,149.500,25.060,4.919,126.500,29.020,6.758,1.677,311.700,71.060,17.220,4.775,baseline
1198.000,234.000,46.830,9.681,873.800,149.600,25.340,4.934,128.700,28.940,6.765,1.677,311.400,71.470,17.100,4.827,baseline
1199.000,235.400,46.600,9.738,875.100,149.400,25.290,4.961,125.900,29.170,6.755,1.688,312.100,71.920,17.200,4.824,baseline
1201.000,236.400,47.050,9.859,876.900,150.000,25.270,4.981,127.800,29.210,6.746,1.707,313.900,72.300,17.380,4.866,baseline
1204.000,234.800,47.310,9.815,881.200,150.100,25.410,4.978,127.900,29.280,6.833,1.697,315.400,72.220,17.400,4.856,baseline
1202.000,234.800,46.540,9.717,872.800,149.400,25.130,4.904,129.700,29.200,6.801,1.687,311.200,70.970,16.950,4.741,baseline
1195.000,233.600,46.270,9.635,874.300,149.500,25.130,4.926,128.600,29.000,6.763,1.670,310.400,71.050,17.010,4.745,baseline
1192.000,234.400,46.370,9.652,873.400,149.400,25.160,4.925,129.600,29.280,6.828,1.685,311.900,70.860,17.000,4.757,baseline
1193.000,231.000,46.590,9.623,873.700,149.200,25.280,4.948,128.200,29.010,6.784,1.672,309.400,71.070,16.970,4.730,baseline
1192.000,233.200,46.160,9.663,873.600,149.700,25.170,4.949,130.800,28.530,6.735,1.687,308.700,70.800,16.980,4.778,baseline
1193.000,232.200,46.880,9.675,871.800,149.700,25.210,4.966,127.900,28.880,6.801,1.677,310.200,71.120,17.050,4.763,baseline
1196.000,234.500,46.550,9.723,873.200,150.300,25.280,4.962,130.800,28.970,6.828,1.696,310.400,71.470,17.170,4.777,baseline
1198.000,234.600,46.700,9.767,880.000,150.300,25.420,4.972,130.700,28.900,6.872,1.694,312.400,71.940,17.260,4.852,baseline
1201.000,235.100,46.690,9.741,876.000,150.400,25.280,4.951,128.300,29.050,6.823,1.703,310.200,71.220,16.920,4.750,baseline
1193.000,233.000,46.320,9.696,875.300,149.800,25.260,4.936,128.900,29.320,6.771,1.674,308.000,70.140,16.890,4.687,baseline
1189.000,232.800,45.990,9.614,878.500,149.500,25.420,4.955,127.800,28.720,6.787,1.685,307.800,70.170,16.830,4.705,baseline
1190.000,233.000,46.220,9.641,875.300,149.600,25.300,4.944,127.900,29.210,6.825,1.672,307.400,70.430,16.820,4.696,baseline
1190.000,234.300,46.400,9.610,872.900,149.600,25.380,4.994,128.500,28.850,6.786,1.678,307.700,70.560,16.920,4.713,baseline
1190.000,235.100,46.430,9.710,879.700,149.800,25.330,4.977,127.700,29.060,6.804,1.695,307.800,70.930,16.950,4.742,baseline
1193.000,233.200,46.650,9.669,880.900,150.100,25.350,4.997,129.400,29.050,6.812,1.708,309.200,71.090,17.050,4.766,baseline
1197.000,236.000,46.360,9.766,881.900,150.800,25.530,4.998,129.400,29.660,6.867,1.714,310.200,71.740,17.290,4.824,baseline
1200.000,234.700,46.770,9.743,878.000,150.500,25.530,5.044,129.400,29.060,6.857,1.707,311.800,71.960,17.240,4.861,baseline
1203.000,235.100,46.760,9.806,879.100,150.800,25.360,4.973,128.100,29.570,6.857,1.716,310.900,71.220,17.080,4.740,baseline
1195.000,233.400,46.360,9.639,879.000,150.200,25.450,4.979,128.800,29.070,6.783,1.704,307.600,70.100,16.750,4.694,baseline
1191.000,232.000,46.090,9.620,876.700,149.700,25.360,4.953,128.100,29.100,6.805,1.684,306.800,70.230,16.760,4.687,baseline
1191.000,232.700,46.080,9.630,878.900,149.900,25.520,4.984,127.300,28.860,6.815,1.694,307.800,70.570,16.830,4.706,baseline
1191.000,232.700,46.380,9.620,874.700,150.700,25.320,4.971,129.200,28.940,6.823,1.683,307.400,70.390,16.810,4.698,baseline
1192.000,232.500,46.020,9.725,875.400,150.700,25.590,5.005,127.400,28.980,6.860,1.695,307.800,70.800,16.830,4.736,baseline
1194.000,233.300,46.490,9.654,879.800,150.400,25.470,5.009,130.600,29.400,6.807,1.703,308.700,71.410,16.930,4.776,baseline
1196.000,235.800,46.470,9.728,876.800,150.900,25.590,5.029,128.900,28.940,6.926,1.702,309.900,71.560,17.060,4.801,baseline
1201.000,236.600,46.920,9.741,882.800,151.400,25.710,5.037,130.800,29.580,6.946,1.704,310.700,72.080,17.410,4.810,baseline
1204.000,235.200,46.830,9.781,885.100,150.200,25.550,4.990,129.500,29.500,6.894,1.712,310.100,71.380,17.010,4.754,baseline
1196.000,234.600,46.130,9.612,876.500,151.300,25.540,5.027,129.400,29.090,6.793,1.695,306.900,70.180,16.740,4.685,baseline
1194.000,232.800,46.680,9.658,879.800,151.200,25.390,4.979,129.900,29.210,6.891,1.697,306.800,70.370,16.770,4.671,baseline
1194.000,234.000,46.250,9.695,882.100,150.700,25.480,5.021,129.500,29.250,6.920,1.708,307.600,70.560,16.870,4.691,baseline
1195.000,234.100,45.990,9.698,876.300,151.300,25.480,4.984,128.500,29.040,6.784,1.702,306.500,70.560,16.780,4.693,baseline
1196.000,235.100,46.560,9.668,878.100,150.700,25.530,5.025,130.300,29.200,6.848,1.722,308.100,70.520,16.840,4.728,baseline
1198.000,235.100,46.720,9.754,882.300,151.000,25.710,5.031,130.700,29.540,6.863,1.717,308.700,71.310,16.960,4.751,baseline
1201.000,235.000,46.730,9.747,882.300,151.900,25.480,5.050,130.700,29.390,6.945,1.727,308.900,71.370,17.260,4.777,baseline
1204.000,235.700,46.890,9.777,880.300,151.200,25.670,5.059,131.200,29.490,6.940,1.735,310.300,71.670,17.020,4.782,baseline
1201.000,234.500,46.540,9.702,880.100,151.400,25.550,5.062,129.600,29.380,6.909,1.708,306.700,70.400,16.860,4.681,baseline
1195.000,233.700,46.230,9.648,878.000,150.800,25.510,5.048,129.000,29.250,6.874,1.711,308.300,70.240,16.740,4.691,baseline
1197.000,232.500,46.660,9.674,882.000,151.400,25.690,4.995,128.900,29.270,6.857,1.711,308.300,70.760,16.910,4.716,baseline
1198.000,234.000,46.620,9.680,875.200,150.600,25.650,5.001,131.400,29.420,6.913,1.709,307.700,70.730,16.730,4.726,baseline
1198.000,233.800,46.410,9.737,877.600,150.600,25.480,5.035,129.500,29.330,6.988,1.722,308.600,70.510,16.960,4.724,baseline
1199.000,235.600,46.740,9.785,880.900,151.100,25.680,5.031,130.400,29.630,6.916,1.731,308.700,71.320,17.160,4.786,baseline
1204.000,235.200,46.740,9.812,883.600,152.100,25.710,5.040,129.800,29.490,6.970,1.726,311.100,71.690,17.270,4.830,baseline
1207.000,235.200,47.040,9.814,885.700,152.400,25.750,5.026,129.300,29.640,6.956,1.740,312.300,71.680,17.190,4.777,baseline
1203.000,235.400,46.780,9.701,879.800,151.900,25.610,5.027,128.600,29.060,6.936,1.718,308.200,70.360,16.900,4.699,baseline
1197.000,234.800,46.550,9.694,879.400,152.000,25.410,5.021,129.600,29.320,6.906,1.735,307.200,70.400,16.900,4.680,baseline
1197.000,233.400,46.270,9.724,883.100,151.200,25.720,5.009,130.900,29.520,6.896,1.731,307.500,70.860,16.940,4.708,baseline
1197.000,235.700,46.830,9.734,882.700,151.400,25.580,5.007,129.500,29.370,6.907,1.737,307.200,70.540,16.850,4.720,baseline
1198.000,236.400,46.570,9.696,882.200,151.100,25.630,5.001,129.600,29.550,6.934,1.717,307.900,70.740,16.940,4.718,baseline
1198.000,233.800,46.760,9.783,886.200,151.500,25.720,5.056,130.300,29.660,6.915,1.725,309.200,71.200,17.040,4.777,baseline
1204.000,234.100,46.750,9.796,887.500,151.900,25.700,5.071,130.600,29.620,6.950,1.731,310.400,71.750,17.100,4.818,baseline
1205.000,235.300,47.290,9.802,885.600,151.000,25.540,5.014,130.200,29.410,7.012,1.746,310.300,71.250,17.070,4.774,baseline
1200.000,235.100,46.490,9.705,880.500,151.000,25.620,5.019,131.200,29.400,6.924,1.737,306.800,70.050,16.840,4.643,baseline
1196.000,232.300,46.550,9.689,883.500,150.700,25.530,5.024,128.000,29.240,6.947,1.741,306.200,70.010,16.760,4.680,baseline
1195.000,233.300,46.350,9.736,878.200,151.600,25.690,5.050,130.900,29.330,6.938,1.726,306.700,70.020,16.790,4.694,baseline
1196.000,236.200,46.360,9.702,884.700,151.600,25.620,4.985,131.400,29.540,6.974,1.737,307.200,70.220,16.860,4.681,baseline
1195.000,233.800,46.560,9.731,881.400,151.100,25.730,5.038,131.700,29.430,6.937,1.740,307.000,70.330,16.810,4.724,baseline
1197.000,234.000,46.430,9.709,881.900,151.600,25.750,5.034,129.400,29.670,6.968,1.741,309.100,71.080,16.970,4.715,baseline
1199.000,236.100,46.550,9.671,883.200,151.500,25.750,5.027,130.500,29.570,7.003,1.735,309.800,71.160,17.140,4.736,baseline
1202.000,235.600,47.020,9.791,884.200,151.600,25.710,5.042,131.500,29.720,7.018,1.750,308.000,71.150,17.010,4.695,baseline
1197.000,233.800,46.350,9.612,884.400,151.900,25.700,5.022,132.400,29.510,6.971,1.734,305.600,69.730,16.790,4.669,baseline
1191.000,232.000,46.070,9.618,882.000,151.200,25.610,5.057,130.700,29.390,6.989,1.730,306.300,69.870,16.690,4.633,baseline
1192.000,232.900,46.400,9.683,882.500,151.800,25.560,5.029,132.100,29.450,6.925,1.739,306.600,70.040,16.830,4.680,baseline
1191.000,230.900,46.120,9.613,876.100,151.300,25.600,5.040,129.200,29.710,7.021,1.751,305.200,70.030,16.730,4.715,baseline
1190.000,232.600,46.360,9.655,877.300,151.200,25.720,5.037,129.600,29.540,6.992,1.750,306.700,70.160,17.000,4.709,baseline
1192.000,232.300,46.360,9.690,880.000,151.300,25.680,5.056,132.200,29.660,7.058,1.741,306.400,70.700,16.940,4.695,baseline
1194.000,233.100,46.640,9.693,885.800,151.600,25.680,5.052,130.800,29.710,7.035,1.740,307.500,70.790,17.160,4.705,baseline
1195.000,233.400,46.110,9.662,878.200,151.900,25.620,5.006,132.200,29.760,7.019,1.759,308.300,70.080,16.800,4.719,baseline
1187.000,230.100,45.690,9.571,874.000,150.500,25.530,4.977,131.500,29.640,6.999,1.762,306.000,69.830,16.620,4.619,baseline
1183.000,231.600,45.840,9.565,878.000,151.100,25.540,5.006,128.900,29.480,6.991,1.754,305.200,69.750,16.780,4.656,baseline
1184.000,230.400,45.700,9.532,874.900,150.000,25.540,4.997,129.200,29.210,6.983,1.743,305.800,69.770,16.730,4.629,baseline
1182.000,230.000,45.690,9.547,877.600,150.300,25.560,5.025,131.300,29.510,6.955,1.735,305.300,69.930,16.600,4.625,baseline
1182.000,233.400,45.810,9.498,874.600,150.900,25.630,5.006,129.500,29.690,7.055,1.743,305.800,70.130,16.760,4.679,baseline
1185.000,232.000,45.580,9.575,880.200,151.300,25.710,5.051,130.200,29.860,7.025,1.751,306.700,70.210,16.940,4.705,baseline
1190.000,232.400,46.230,9.666,877.600,150.800,25.680,5.006,130.900,30.070,7.045,1.771,306.500,70.210,16.800,4.659,baseline
1185.000,230.900,45.720,9.565,878.200,150.900,25.580,5.010,128.400,29.590,7.007,1.736,305.100,68.940,16.460,4.569,baseline
1178.000,229.900,45.610,9.499,877.600,151.000,25.600,4.984,131.700,29.630,6.982,1.732,301.700,68.810,16.490,4.539,baseline
1177.000,228.700,45.310,9.480,878.200,151.500,25.450,4.982,131.300,29.210,6.970,1.737,302.800,69.130,16.460,4.538,baseline
1178.000,229.600,45.380,9.468,876.900,150.700,25.520,4.996,130.200,29.550,6.973,1.732,301.700,68.920,16.380,4.565,baseline
1175.000,228.800,44.900,9.448,874.100,150.400,25.570,5.011,129.600,29.740,6.952,1.741,301.600,69.100,16.510,4.534,baseline
1174.000,228.700,45.490,9.503,876.100,150.300,25.380,4.985,129.900,29.620,6.981,1.731,301.900,69.210,16.560,4.584,baseline
1177.000,230.000,45.350,9.467,876.200,150.600,25.660,5.024,132.500,29.640,6.989,1.733,302.900,69.570,16.560,4.605,baseline
1175.000,229.400,45.430,9.407,874.600,150.200,25.400,4.982,131.300,29.480,6.922,1.740,302.600,68.370,16.330,4.462,baseline
1168.000,227.400,45.040,9.366,873.800,150.200,25.400,4.963,131.200,29.150,6.910,1.727,299.600,67.590,16.170,4.463,baseline
1165.000,226.500,44.810,9.284,874.100,150.200,25.360,4.970,129.200,29.270,6.947,1.725,299.600,67.870,16.280,4.479,baseline
1166.000,226.100,44.700,9.305,871.300,150.600,25.440,4.980,132.300,29.370,6.900,1.720,299.000,67.880,16.090,4.462,baseline
1165.000,228.900,44.880,9.433,878.400,150.100,25.520,5.030,129.600,29.150,6.944,1.723,297.200,67.960,16.270,4.462,baseline
1167.000,226.700,45.220,9.407,875.100,150.400,25.590,4.982,130.400,29.560,6.951,1.730,298.000,68.060,16.250,4.487,baseline
1171.000,227.700,45.430,9.361,879.000,151.000,25.840,5.018,128.500,29.830,6.953,1.724,299.300,68.760,16.440,4.518,baseline
1173.000,227.900,45.140,9.438,879.700,151.800,25.670,5.019,131.100,29.580,7.009,1.735,299.700,68.220,16.400,4.470,baseline
1171.000,229.400,44.960,9.388,878.900,151.100,25.630,4.989,128.300,29.500,6.929,1.723,296.800,67.370,16.090,4.407,baseline
1166.000,227.300,44.670,9.356,875.800,151.100,25.550,4.980,130.500,29.020,6.922,1.728,296.800,67.550,16.010,4.441,baseline
1166.000,228.500,45.010,9.321,875.100,150.600,25.610,5.018,130.300,29.340,6.939,1.724,298.200,67.600,16.220,4.471,baseline
1167.000,227.300,45.120,9.369,876.400,151.200,25.530,5.016,128.300,29.390,6.989,1.742,297.200,67.540,16.130,4.444,baseline
1167.000,227.600,45.270,9.335,878.000,150.800,25.650,4.996,128.500,29.290,6.945,1.723,296.800,67.590,16.210,4.438,baseline
1167.000,227.800,45.150,9.394,877.300,150.000,25.460,5.002,128.700,29.480,6.923,1.733,298.000,68.530,16.270,4.512,baseline
1170.000,227.400,45.450,9.402,878.400,150.700,25.530,5.009,132.600,29.790,7.005,1.769,299.000,68.380,16.350,4.512,baseline
1169.000,227.700,44.810,9.389,875.800,150.400,25.550,5.017,128.100,29.350,6.985,1.762,298.500,67.670,16.160,4.452,baseline
1162.000,226.800,44.850,9.293,874.700,150.300,25.380,4.961,130.200,29.220,6.937,1.746,296.000,66.970,16.060,4.423,baseline
1160.000,225.700,44.590,9.305,873.600,149.600,25.580,4.966,129.700,29.130,6.997,1.755,297.200,67.610,16.120,4.471,baseline
1161.000,226.100,44.640,9.352,868.600,150.100,25.470,5.006,131.000,29.520,7.041,1.759,296.800,67.540,16.170,4.487,baseline
1161.000,225.500,44.690,9.298,874.100,150.600,25.490,4.975,131.000,29.270,6.999,1.758,295.800,67.850,16.260,4.498,baseline
1160.000,226.500,44.680,9.336,875.300,150.100,25.510,5.010,129.800,29.430,6.998,1.761,296.900,68.200,16.380,4.523,baseline
1160.000,228.300,44.790,9.368,874.200,150.000,25.450,4.982,128.000,29.260,7.075,1.774,299.100,68.460,16.400,4.561,baseline
1161.000,227.800,44.510,9.265,872.200,149.700,25.300,4.990,131.500,29.450,7.065,1.760,298.400,67.930,16.090,4.501,baseline
1154.000,223.600,44.180,9.211,871.000,149.400,25.230,4.951,130.000,29.510,6.999,1.754,297.200,67.250,16.220,4.468,baseline
1149.000,223.200,43.890,9.195,872.500,150.100,25.440,4.977,129.100,29.670,7.012,1.762,296.200,67.840,16.250,4.460,baseline
1150.000,223.300,44.340,9.220,874.100,150.700,25.460,5.001,130.800,29.250,7.011,1.768,297.300,67.860,16.130,4.477,baseline
1155.000,225.800,44.500,9.299,879.900,151.500,25.620,5.041,129.800,29.640,7.029,1.744,297.700,67.860,16.240,4.490,baseline
1160.000,227.000,44.840,9.369,880.600,151.500,25.780,5.036,129.700,29.450,6.982,1.746,297.800,68.290,16.420,4.504,baseline
1164.000,227.100,45.280,9.444,884.700,151.900,25.970,5.088,128.400,29.860,7.018,1.776,300.000,68.770,16.480,4.520,baseline
1170.000,228.800,45.280,9.429,882.000,152.100,25.830,5.052,131.600,29.780,7.073,1.754,299.100,68.200,16.260,4.500,baseline
1165.000,227.000,44.680,9.384,883.000,151.700,25.780,5.071,130.000,29.730,6.995,1.734,297.000,67.590,16.160,4.473,baseline
1163.000,225.400,44.730,9.314,881.900,152.200,25.940,5.064,129.500,29.680,7.034,1.755,297.600,67.160,16.090,4.468,baseline
1166.000,228.400,44.790,9.379,883.800,151.800,25.750,5.065,131.100,29.760,7.017,1.754,298.000,67.970,16.210,4.472,baseline
1165.000,228.100,44.900,9.380,882.300,152.400,25.790,5.075,128.200,29.430,7.007,1.755,296.100,67.660,16.180,4.458,baseline
1167.000,229.300,45.000,9.439,883.400,152.400,25.730,5.076,131.100,29.560,7.071,1.744,297.900,67.690,16.280,4.501,baseline
1168.000,228.700,45.000,9.423,884.900,152.200,25.810,5.074,132.500,29.740,7.089,1.756,300.500,68.310,16.440,4.523,baseline
1171.000,227.400,45.370,9.424,884.600,152.100,25.810,5.043,130.000,29.720,7.035,1.752,298.400,68.190,16.370,4.473,baseline
1165.000,226.000,44.760,9.334,882.300,151.700,25.680,5.031,131.500,29.460,7.019,1.744,295.300,67.160,16.160,4.484,baseline
1162.000,226.800,44.500,9.331,885.000,151.600,25.810,5.002,129.600,29.670,6.930,1.746,297.000,67.510,16.180,4.469,baseline
1164.000,226.500,45.060,9.347,881.900,152.400,25.850,5.042,130.100,29.580,7.057,1.768,298.200,67.180,16.240,4.496,baseline
1164.000,226.100,44.930,9.374,879.900,151.200,25.800,5.042,131.300,29.430,6.978,1.752,297.600,67.740,16.310,4.487,baseline
1165.000,227.500,45.100,9.351,882.300,152.200,25.800,5.043,130.900,29.150,7.013,1.749,298.000,68.170,16.380,4.549,baseline
1168.000,227.400,45.020,9.470,885.400,152.300,25.790,5.071,129.800,30.000,7.083,1.759,299.000,68.530,16.530,4.583,baseline
1171.000,227.900,45.280,9.457,884.100,152.000,25.710,5.080,129.100,29.710,7.057,1.770,300.300,68.040,16.290,4.502,baseline
1164.000,226.500,44.610,9.350,876.200,150.500,25.610,5.029,130.600,29.450,6.957,1.760,296.200,67.330,16.270,4.485,baseline
1161.000,226.100,44.950,9.301,883.300,151.100,25.730,5.046,128.800,29.310,7.040,1.758,298.400,67.430,16.160,4.481,baseline
1163.000,227.700,45.030,9.325,879.300,151.500,25.840,5.092,131.700,29.510,7.019,1.761,298.900,67.780,16.310,4.505,baseline
1165.000,225.000,44.940,9.381,880.700,151.500,25.640,5.045,131.800,29.300,7.030,1.762,297.900,68.280,16.250,4.503,baseline
1167.000,228.100,45.220,9.368,880.500,152.000,25.810,5.062,130.500,29.630,7.043,1.766,299.800,68.410,16.580,4.537,baseline
1169.000,228.900,45.480,9.532,886.000,152.300,25.740,5.057,130.800,29.970,7.080,1.775,301.500,68.970,16.680,4.589,baseline
1173.000,229.100,45.450,9.507,882.000,152.400,25.830,5.070,131.500,29.680,7.097,1.775,301.300,68.840,16.580,4.556,baseline
1170.000,227.000,45.040,9.416,884.300,152.000,25.860,5.017,132.700,29.540,7.047,1.767,299.400,67.980,16.450,4.516,baseline
1167.000,228.600,45.150,9.421,878.500,152.200,25.870,5.065,131.300,29.640,7.048,1.772,298.700,68.250,16.400,4.516,baseline
1170.000,227.500,45.290,9.414,880.200,151.900,25.910,5.055,128.600,29.570,7.099,1.754,301.200,68.410,16.490,4.534,baseline
1170.000,227.700,45.610,9.408,884.200,151.700,25.790,5.064,130.600,29.720,7.083,1.768,300.500,68.250,16.460,4.567,baseline
1170.000,228.400,45.450,9.425,885.600,152.200,25.920,5.047,130.500,29.580,7.073,1.771,301.700,68.680,16.600,4.596,baseline
1174.000,229.500,45.570,9.562,886.500,152.300,25.870,5.093,132.100,29.740,7.005,1.783,303.400,69.470,16.730,4.627,baseline
1178.000,229.900,46.020,9.561,889.200,153.100,25.920,5.079,132.300,29.420,7.129,1.792,303.700,69.450,16.700,4.646,baseline
1178.000,230.300,45.460,9.491,884.900,152.600,25.820,5.075,131.000,30.250,7.061,1.793,303.500,68.490,16.600,4.595,baseline
1175.000,228.700,45.220,9.493,886.400,151.800,25.920,5.040,132.100,29.810,7.026,1.767,300.700,68.430,16.520,4.547,baseline
1175.000,229.000,45.750,9.510,887.800,152.000,25.980,5.068,133.400,29.800,7.076,1.766,302.400,68.780,16.520,4.575,baseline
1178.000,230.200,45.690,9.566,886.600,151.300,25.840,5.077,131.900,29.830,7.057,1.770,302.300,69.150,16.600,4.601,baseline
1178.000,229.700,45.760,9.532,887.200,153.000,25.990,5.086,132.100,30.070,7.076,1.772,303.700,69.160,16.730,4.626,baseline
1180.000,229.600,46.060,9.665,882.800,153.000,26.010,5.105,130.600,29.630,7.142,1.785,305.000,69.610,16.810,4.655,baseline
1184.000,231.800,45.750,9.657,886.400,153.000,26.180,5.105,131.500,29.860,7.178,1.792,305.900,70.070,16.870,4.721,baseline
1188.000,232.200,46.140,9.703,891.500,153.600,26.000,5.125,132.000,29.900,7.118,1.799,308.100,70.240,16.970,4.674,baseline
1185.000,232.700,46.040,9.570,886.600,152.400,26.000,5.085,130.300,29.710,7.171,1.769,305.100,69.190,16.510,4.580,baseline
1180.000,231.900,46.020,9.538,884.700,152.800,25.920,5.095,130.600,29.930,7.047,1.772,303.200,68.990,16.670,4.626,baseline
1181.000,230.900,45.720,9.585,889.100,153.400,26.140,5.099,132.900,30.220,7.097,1.775,305.200,69.470,16.770,4.627,baseline
1183.000,230.300,45.750,9.557,888.300,152.600,26.020,5.122,130.400,30.360,7.070,1.778,305.700,69.610,16.720,4.679,baseline
1183.000,232.100,46.060,9.650,891.100,153.300,26.010,5.103,133.300,29.980,7.058,1.787,306.000,69.800,16.750,4.658,baseline
1187.000,234.100,46.450,9.655,894.000,153.700,26.190,5.108,132.500,29.950,7.175,1.784,307.700,70.260,16.910,4.734,baseline
1191.000,232.800,46.440,9.753,891.000,153.200,26.200,5.119,132.400,29.980,7.180,1.804,308.800,70.500,17.080,4.759,baseline
1195.000,234.400,46.490,9.799,893.900,153.900,26.200,5.135,134.600,30.330,7.186,1.803,310.100,71.220,16.990,4.749,baseline
1193.000,233.100,46.270,9.622,891.200,153.100,26.170,5.087,133.000,30.280,7.118,1.778,308.600,69.890,16.680,4.672,baseline
1188.000,232.200,46.340,9.587,893.900,152.700,26.020,5.079,132.100,29.980,7.104,1.790,307.000,69.740,16.720,4.664,baseline
1189.000,232.200,46.250,9.690,893.200,153.300,26.200,5.105,132.100,30.090,7.150,1.791,307.900,70.030,16.810,4.652,baseline
1190.000,232.900,46.210,9.720,892.600,152.700,26.080,5.136,131.800,29.870,7.141,1.785,308.500,70.260,16.980,4.688,baseline
1190.000,232.200,46.190,9.704,887.600,153.900,26.080,5.128,132.200,29.820,7.150,1.775,309.100,70.230,17.050,4.704,baseline
1191.000,233.800,46.350,9.752,893.900,154.100,26.190,5.132,134.600,30.240,7.125,1.784,309.500,70.870,17.020,4.770,baseline
1196.000,233.900,46.510,9.822,892.000,153.900,26.140,5.153,133.200,29.950,7.134,1.786,310.700,71.030,17.300,4.769,baseline
1199.000,234.100,47.240,9.856,896.100,153.900,26.170,5.133,133.200,30.070,7.176,1.814,311.600,71.800,17.350,4.846,baseline
1202.000,235.300,46.660,9.830,897.500,154.600,26.180,5.096,135.700,30.190,7.225,1.795,311.900,71.510,17.110,4.779,baseline
1196.000,233.900,46.460,9.727,889.600,153.500,26.140,5.108,134.000,29.900,7.172,1.799,309.800,70.420,16.910,4.736,baseline
1195.000,232.200,46.600,9.748,893.700,153.100,26.050,5.167,134.700,30.270,7.144,1.795,309.600,70.710,17.150,4.747,baseline
1196.000,233.600,46.950,9.809,892.300,154.200,26.170,5.140,133.700,30.260,7.136,1.783,311.600,71.110,17.170,4.773,baseline
1197.000,233.400,46.960,9.843,895.800,154.200,26.130,5.096,134.500,30.070,7.138,1.794,312.400,71.650,17.190,4.791,baseline
1197.000,234.400,46.740,9.798,895.700,154.600,26.130,5.164,132.400,29.940,7.143,1.808,312.400,71.640,17.220,4.786,baseline
1202.000,236.300,47.130,9.867,893.000,154.000,26.220,5.150,133.600,30.190,7.176,1.783,312.900,71.890,17.420,4.833,baseline
1204.000,235.000,47.140,9.902,896.600,154.600,26.230,5.190,134.900,30.440,7.178,1.803,315.700,72.500,17.410,4.880,baseline
1208.000,237.400,47.460,9.939,898.300,154.100,26.140,5.149,132.700,30.630,7.204,1.819,314.900,72.410,17.400,4.801,baseline
1204.000,235.300,47.120,9.803,891.400,153.600,26.100,5.120,134.000,30.110,7.154,1.783,311.700,71.090,17.170,4.772,baseline
1198.000,234.900,46.710,9.749,895.000,154.100,26.240,5.136,132.800,30.050,7.095,1.765,313.000,71.240,17.210,4.752,baseline
1200.000,234.000,47.190,9.837,893.200,153.400,26.060,5.145,133.900,29.910,7.205,1.774,313.600,71.460,17.200,4.782,baseline
1201.000,235.700,46.810,9.817,892.300,153.700,26.260,5.115,135.500,30.060,7.137,1.773,314.400,71.310,17.280,4.775,baseline
1201.000,234.700,47.020,9.843,894.400,154.000,26.040,5.111,135.000,30.210,7.159,1.791,313.900,71.840,17.330,4.844,baseline
1204.000,235.000,47.010,9.919,897.700,154.800,26.290,5.142,133.600,30.250,7.107,1.802,315.200,72.320,17.530,4.882,baseline
1208.000,236.100,46.900,9.946,894.500,154.100,26.340,5.167,134.900,30.670,7.209,1.789,316.100,72.570,17.540,4.884,baseline
1211.000,235.900,47.250,9.969,902.300,154.300,26.270,5.135,134.200,30.680,7.239,1.796,316.500,73.220,17.670,4.923,baseline
1211.000,236.400,47.030,9.915,897.600,154.600,26.300,5.117,133.700,30.520,7.182,1.789,316.700,71.720,17.350,4.812,baseline
1202.000,236.000,46.780,9.797,889.100,153.600,26.040,5.129,134.700,30.290,7.166,1.774,314.300,71.670,17.260,4.774,baseline
1201.000,234.900,47.100,9.844,895.000,153.400,26.150,5.127,134.200,29.870,7.129,1.780,313.300,72.300,17.280,4.828,baseline
1203.000,233.800,46.940,9.870,895.400,153.800,25.970,5.108,133.200,30.490,7.116,1.787,315.300,71.590,17.370,4.839,baseline
1203.000,235.000,47.090,9.816,894.200,154.000,26.170,5.120,136.000,30.160,7.126,1.785,314.800,72.550,17.380,4.841,baseline
1205.000,236.800,47.160,9.949,893.700,154.300,26.210,5.128,134.400,30.460,7.179,1.772,315.700,72.600,17.500,4.858,baseline
1209.000,237.100,47.370,9.948,898.100,154.400,26.240,5.151,135.100,30.430,7.248,1.793,318.900,73.210,17.640,4.895,baseline
1211.000,237.400,47.480,9.984,898.800,154.400,26.260,5.150,133.900,30.670,7.199,1.789,318.500,73.600,17.820,4.962,baseline
1214.000,238.000,47.690,10.020,898.600,154.400,26.170,5.106,134.400,30.540,7.226,1.785,318.800,72.980,17.550,4.886,baseline
1209.000,236.400,47.000,9.911,895.100,154.800,26.240,5.109,136.300,30.080,7.105,1.765,315.700,72.010,17.380,4.824,baseline
1206.000,236.300,47.010,9.912,896.600,154.600,26.250,5.138,134.700,30.000,7.134,1.778,316.000,72.460,17.480,4.840,baseline
1207.000,236.000,47.080,9.930,893.500,153.800,26.220,5.147,136.300,30.470,7.111,1.782,317.600,72.820,17.510,4.849,baseline
1208.000,235.600,47.130,9.920,895.500,153.700,26.210,5.138,135.600,30.170,7.098,1.787,317.100,72.900,17.530,4.882,baseline
1208.000,236.700,47.510,9.960,897.000,154.300,26.270,5.130,133.000,30.450,7.143,1.791,318.100,72.540,17.570,4.903,baseline
1211.000,238.900,47.310,9.968,897.500,154.900,26.240,5.168,136.000,30.570,7.237,1.800,318.200,73.630,17.840,4.919,baseline
1215.000,239.800,47.360,10.000,905.000,155.400,26.380,5.159,134.800,30.670,7.236,1.798,319.500,73.470,17.850,4.959,baseline
1217.000,238.400,47.990,9.964,901.800,154.700,26.250,5.132,134.900,30.720,7.219,1.796,320.100,73.220,17.600,4.901,baseline
1211.000,235.500,47.360,9.881,895.500,154.500,26.160,5.110,133.900,30.250,7.187,1.795,317.400,72.290,17.520,4.855,baseline
1208.000,235.300,47.400,9.901,893.000,154.200,26.270,5.130,131.500,30.230,7.178,1.766,316.400,72.870,17.570,4.871,baseline
1211.000,236.700,47.410,9.951,899.400,154.600,26.180,5.106,134.400,30.420,7.191,1.779,318.800,72.690,17.720,4.899,baseline
1212.000,237.500,47.490,9.952,896.600,154.800,26.210,5.120,133.800,30.450,7.190,1.790,318.400,72.680,17.530,4.890,baseline
1214.000,236.700,47.740,10.000,898.200,155.100,26.380,5.127,133.000,30.260,7.157,1.791,319.100,73.200,17.750,4.987,baseline
1215.000,237.000,47.500,10.020,899.300,154.800,26.380,5.151,132.700,29.930,7.167,1.790,320.400,73.840,17.800,4.953,baseline
1219.000,239.000,47.860,10.110,900.100,154.600,26.420,5.177,135.200,30.390,7.147,1.790,321.000,74.280,17.880,4.982,baseline
1220.000,238.600,47.980,9.939,895.900,154.000,26.330,5.141,136.400,30.260,7.180,1.784,318.700,72.870,17.620,4.864,baseline
1211.000,237.400,47.490,9.929,900.800,154.500,26.160,5.137,134.100,30.220,7.123,1.781,318.000,72.800,17.390,4.862,baseline
1210.000,237.500,47.580,9.926,896.700,154.200,26.220,5.118,133.300,30.440,7.105,1.772,317.500,72.440,17.460,4.913,baseline
1212.000,237.900,47.680,9.949,898.100,155.000,26.300,5.143,134.100,30.180,7.175,1.783,317.100,72.910,17.630,4.879,baseline
1212.000,237.900,47.300,9.990,895.800,154.200,26.230,5.122,137.100,30.440,7.175,1.773,318.500,73.010,17.570,4.916,baseline
1212.000,236.600,47.500,9.940,896.300,155.100,26.290,5.137,134.600,30.490,7.109,1.795,318.600,73.280,17.720,4.936,baseline
1216.000,237.400,48.000,9.984,898.500,155.200,26.370,5.144,137.400,30.710,7.222,1.793,321.300,73.650,17.760,4.919,baseline
1219.000,238.200,47.880,10.100,897.600,154.400,26.520,5.138,135.300,30.620,7.168,1.790,321.100,73.780,17.740,4.929,baseline
1216.000,238.200,47.580,9.943,894.400,154.800,26.270,5.131,133.300,30.420,7.137,1.779,318.800,72.350,17.580,4.869,baseline
1210.000,237.100,47.550,9.935,894.000,154.200,26.310,5.136,133.300,30.290,7.129,1.782,317.400,72.100,17.520,4.868,baseline
1210.000,238.000,47.340,9.913,897.700,153.800,26.140,5.138,133.400,30.480,7.165,1.790,317.800,72.190,17.380,4.888,baseline
1210.000,238.400,47.280,9.922,896.200,154.300,26.310,5.164,135.100,30.380,7.135,1.796,318.000,72.820,17.420,4.881,baseline
1209.000,236.300,47.380,9.940,894.700,154.600,26.330,5.170,132.100,30.010,7.139,1.786,319.400,72.540,17.680,4.895,baseline
1212.000,236.100,47.430,9.952,899.000,154.800,26.260,5.171,133.200,30.090,7.158,1.795,318.500,72.990,17.790,4.908,baseline
1215.000,238.300,47.630,9.997,893.600,155.300,26.420,5.154,134.400,30.240,7.238,1.789,319.900,73.360,17.800,4.949,baseline
1218.000,238.200,47.960,9.995,901.700,155.100,26.220,5.134,134.400,30.490,7.252,1.802,321.100,73.440,17.700,4.925,baseline
1211.000,238.700,47.350,9.908,898.300,154.600,26.160,5.101,133.600,30.510,7.165,1.797,317.600,72.250,17.450,4.876,baseline
1207.000,236.300,47.650,9.913,892.900,153.900,26.300,5.145,133.700,30.070,7.126,1.779,317.300,71.930,17.350,4.878,baseline
1208.000,238.000,47.450,9.951,893.100,154.400,26.210,5.152,132.700,30.410,7.129,1.792,317.800,72.610,17.570,4.870,baseline
1210.000,237.600,47.250,9.899,894.500,155.000,26.380,5.138,134.300,30.210,7.160,1.808,316.700,72.250,17.510,4.886,baseline
1210.000,236.300,47.500,9.900,896.200,154.600,26.350,5.161,132.800,30.310,7.196,1.786,317.200,72.950,17.370,4.872,baseline
1211.000,238.000,47.610,9.934,894.200,155.000,26.480,5.129,133.300,30.440,7.196,1.801,318.000,73.070,17.530,4.927,baseline
1214.000,238.900,47.560,9.983,899.200,154.500,26.350,5.147,134.000,30.430,7.213,1.781,318.700,73.140,17.780,4.975,baseline
1216.000,238.500,47.880,9.974,892.800,154.700,26.260,5.153,134.300,30.650,7.190,1.807,318.500,72.440,17.480,4.857,baseline
1210.000,236.200,47.600,9.813,893.200,154.500,26.160,5.186,134.200,30.430,7.148,1.796,315.500,71.800,17.360,4.814,baseline
1208.000,236.900,47.280,9.862,893.600,153.900,26.240,5.157,133.900,30.170,7.116,1.803,317.100,72.150,17.440,4.878,baseline
1208.000,237.100,47.450,9.863,897.000,154.600,26.210,5.157,133.700,30.260,7.193,1.809,317.600,72.270,17.560,4.886,baseline
1209.000,237.000,47.200,9.894,893.700,154.600,26.180,5.207,132.200,30.130,7.186,1.808,318.700,72.310,17.420,4.890,baseline
1210.000,236.200,47.160,9.918,895.400,154.800,26.200,5.166,132.600,30.330,7.243,1.798,317.700,72.550,17.530,4.903,baseline
1212.000,236.800,47.140,10.020,896.400,154.900,26.320,5.206,133.800,30.450,7.179,1.816,319.900,72.940,17.710,4.950,baseline
1214.000,237.500,47.810,10.030,897.700,154.500,26.420,5.158,135.100,30.680,7.257,1.805,320.000,73.390,17.760,4.986,baseline
1218.000,239.100,47.480,9.979,892.400,153.900,26.340,5.145,133.700,30.290,7.233,1.804,318.600,73.010,17.550,4.875,baseline
1209.000,235.700,46.930,9.878,891.100,153.100,26.300,5.139,134.000,29.970,7.185,1.787,316.300,71.680,17.350,4.841,baseline
1207.000,236.800,47.140,9.811,889.100,154.600,26.240,5.158,133.000,30.320,7.207,1.794,315.300,71.620,17.480,4.823,baseline
1208.000,236.500,47.220,9.842,892.400,154.000,26.310,5.145,131.900,30.290,7.174,1.808,316.800,72.100,17.350,4.823,baseline
1207.000,237.200,47.150,9.826,892.000,154.600,26.280,5.209,135.200,30.390,7.163,1.787,316.200,71.750,17.320,4.851,baseline
1206.000,235.700,47.200,9.834,887.800,154.200,26.170,5.179,131.400,30.160,7.172,1.814,316.700,72.140,17.470,4.887,baseline
1210.000,236.800,47.190,9.859,893.100,154.100,26.370,5.197,133.500,30.210,7.118,1.807,317.500,72.940,17.630,4.891,baseline
1211.000,235.300,47.520,9.916,892.100,154.400,26.390,5.173,135.300,30.220,7.177,1.800,318.700,73.070,17.680,4.925,baseline
1214.000,238.800,47.740,9.962,888.800,154.800,26.360,5.205,132.900,30.400,7.249,1.810,320.000,72.910,17.680,4.878,baseline
1213.000,238.700,47.350,9.862,889.900,153.900,26.240,5.195,134.200,30.360,7.188,1.793,316.200,71.900,17.400,4.839,baseline
1205.000,234.700,47.210,9.783,890.800,153.700,26.260,5.136,134.100,29.880,7.191,1.796,315.100,71.430,17.270,4.799,baseline
1204.000,236.700,46.810,9.829,888.900,153.300,26.300,5.160,133.100,30.250,7.133,1.799,315.600,71.880,17.300,4.816,baseline
1205.000,236.200,47.250,9.782,891.100,154.000,26.240,5.171,131.500,30.650,7.172,1.796,315.900,71.850,17.300,4.818,baseline
1206.000,235.300,47.340,9.853,891.000,153.500,26.210,5.156,132.300,30.260,7.164,1.797,315.700,72.000,17.260,4.856,baseline
1205.000,236.100,47.480,9.884,893.500,153.400,26.210,5.175,134.000,30.180,7.206,1.803,316.000,72.220,17.510,4.894,baseline
1209.000,235.600,47.290,9.861,893.100,154.400,26.300,5.188,134.600,30.380,7.171,1.813,316.000,72.750,17.540,4.919,baseline
1210.000,237.000,47.490,9.923,892.300,153.800,26.330,5.210,132.100,30.490,7.220,1.824,318.700,72.680,17.720,4.885,baseline
1212.000,238.800,47.270,9.956,889.500,154.200,26.390,5.176,133.600,30.350,7.268,1.804,317.200,73.270,17.520,4.922,baseline
1210.000,236.500,47.440,9.823,887.400,153.700,26.100,5.171,131.500,30.500,7.201,1.791,315.900,71.920,17.330,4.847,baseline
1202.000,234.900,47.350,9.771,887.300,154.300,26.210,5.160,133.200,30.300,7.226,1.791,315.200,71.560,17.380,4.821,baseline
1202.000,234.600,46.840,9.834,886.800,153.400,26.220,5.178,132.700,30.190,7.155,1.794,315.800,72.350,17.310,4.833,baseline
1204.000,235.200,47.170,9.815,886.500,153.700,26.050,5.156,135.800,30.100,7.171,1.797,315.800,71.960,17.350,4.826,baseline
1203.000,235.500,47.160,9.806,890.000,154.000,26.340,5.172,133.200,30.000,7.198,1.802,315.200,71.980,17.430,4.864,baseline
1204.000,237.500,46.510,9.818,888.900,153.300,26.180,5.192,132.900,30.240,7.180,1.813,317.500,72.380,17.560,4.896,baseline
1207.000,237.600,47.080,9.900,888.800,153.200,26.240,5.195,137.300,30.640,7.296,1.810,316.600,73.170,17.660,4.925,baseline
1210.000,236.100,47.540,9.955,888.800,154.300,26.340,5.191,134.700,30.410,7.253,1.818,319.600,73.130,17.710,4.975,baseline
1212.000,236.900,47.670,9.973,889.900,154.400,26.160,5.186,133.500,30.660,7.284,1.808,320.400,73.550,17.710,4.948,baseline
1212.000,237.800,47.530,9.814,891.300,154.400,26.220,5.171,133.800,30.460,7.249,1.809,317.500,72.270,17.390,4.836,baseline
1202.000,235.300,46.730,9.785,889.100,153.900,26.090,5.167,132.500,30.140,7.180,1.783,314.900,71.750,17.400,4.790,baseline
1202.000,235.800,47.010,9.759,884.800,154.000,26.150,5.141,134.200,30.230,7.156,1.794,315.800,72.010,17.420,4.863,baseline
1203.000,236.300,47.030,9.812,887.600,153.400,26.130,5.174,134.100,30.290,7.153,1.809,315.900,71.910,17.530,4.850,baseline
1201.000,236.300,46.950,9.805,888.700,153.800,26.180,5.212,132.500,30.140,7.235,1.802,315.800,71.780,17.510,4.852,baseline
1204.000,236.300,47.020,9.877,886.300,153.500,26.160,5.180,131.700,30.460,7.166,1.797,317.400,72.640,17.520,4.893,baseline
1206.000,237.100,46.820,9.918,892.000,154.100,26.310,5.200,133.400,30.300,7.183,1.821,318.800,72.710,17.580,4.958,baseline
1208.000,238.000,47.340,9.896,885.500,154.300,26.210,5.173,133.200,30.460,7.261,1.817,319.400,73.330,17.660,4.977,baseline
1211.000,237.700,47.510,9.988,888.800,154.000,26.320,5.249,135.000,30.370,7.291,1.832,318.600,73.190,17.680,4.947,baseline
1207.000,236.300,47.120,9.825,890.600,153.700,26.130,5.152,135.800,30.210,7.232,1.807,315.300,72.160,17.430,4.842,baseline
1201.000,236.500,46.790,9.793,888.600,153.100,26.140,5.185,134.300,29.930,7.142,1.822,315.100,72.060,17.310,4.849,baseline
1201.000,236.000,46.920,9.848,888.500,153.500,26.190,5.194,130.700,30.290,7.117,1.818,316.100,72.270,17.480,4.872,baseline
1201.000,235.200,47.180,9.846,887.900,152.800,26.200,5.178,133.800,30.250,7.166,1.805,315.500,72.330,17.340,4.839,baseline
1202.000,236.000,47.080,9.831,884.700,153.500,26.200,5.175,133.000,30.180,7.243,1.800,317.200,72.150,17.410,4.833,baseline
1203.000,235.600,47.310,9.900,888.900,153.800,26.290,5.153,133.100,30.110,7.243,1.815,317.500,72.550,17.620,4.922,baseline
1206.000,236.800,47.390,9.900,889.600,153.700,26.370,5.197,134.400,30.560,7.265,1.817,320.100,72.930,17.710,4.949,baseline
1208.000,237.400,47.470,9.957,890.200,153.400,26.340,5.215,133.800,30.240,7.230,1.809,320.100,73.370,17.710,4.936,baseline
1209.000,236.800,47.650,9.936,890.900,153.800,26.140,5.158,134.400,30.220,7.236,1.816,318.700,72.780,17.450,4.866,baseline
1202.000,236.600,47.100,9.808,883.500,154.000,26.240,5.130,130.800,29.950,7.215,1.811,316.700,72.010,17.430,4.837,baseline
1202.000,236.300,47.020,9.843,884.900,153.200,26.190,5.182,132.600,30.300,7.140,1.794,316.200,72.180,17.380,4.893,baseline
1204.000,236.900,47.540,9.901,892.800,153.300,26.210,5.164,131.300,30.190,7.143,1.811,317.500,72.430,17.500,4.874,baseline
1203.000,235.900,47.270,9.828,886.200,153.300,26.230,5.192,133.300,30.390,7.214,1.814,316.200,72.360,17.520,4.890,baseline
1205.000,236.100,47.500,9.858,891.600,154.100,26.230,5.199,134.000,30.720,7.211,1.807,317.300,72.690,17.500,4.899,baseline
1207.000,236.700,47.430,9.900,889.800,154.700,26.230,5.212,133.900,30.460,7.186,1.825,319.800,73.180,17.650,4.928,baseline
1211.000,236.100,47.760,9.930,889.800,154.100,26.360,5.223,133.000,30.910,7.295,1.823,319.600,73.460,17.700,4.935,baseline
1212.000,237.300,47.710,9.873,888.400,154.200,26.210,5.180,133.500,30.700,7.273,1.803,319.000,72.730,17.430,4.895,baseline
1205.000,235.300,47.350,9.852,891.400,154.000,26.130,5.170,134.700,30.280,7.126,1.786,317.000,72.040,17.340,4.853,baseline
1203.000,235.700,47.540,9.863,889.700,153.700,26.190,5.169,131.600,30.320,7.199,1.817,316.600,71.930,17.520,4.853,baseline
1205.000,236.800,47.440,9.917,889.900,154.200,26.110,5.178,134.900,30.300,7.221,1.813,317.700,72.250,17.380,4.877,baseline
1205.000,236.400,47.380,9.938,889.000,153.700,26.160,5.178,134.100,30.240,7.198,1.798,317.300,72.290,17.400,4.868,baseline
1205.000,236.200,47.620,9.951,890.500,153.700,26.330,5.152,132.600,30.430,7.231,1.810,318.500,72.570,17.430,4.873,baseline
1209.000,238.100,47.550,9.997,893.000,154.200,26.190,5.194,133.200,30.410,7.211,1.820,319.000,72.720,17.700,4.947,baseline
1212.000,237.300,47.790,9.969,888.600,153.900,26.390,5.218,135.300,30.370,7.187,1.819,319.800,73.380,17.710,4.908,baseline
1214.000,239.200,48.030,9.982,889.500,153.800,26.310,5.197,132.900,30.660,7.244,1.792,318.800,72.700,17.540,4.861,baseline
1207.000,238.800,47.280,9.907,892.800,153.900,26.210,5.164,134.200,30.260,7.186,1.813,315.500,71.650,17.300,4.796,baseline
1204.000,237.500,47.440,9.846,891.000,154.400,26.260,5.148,133.100,30.320,7.185,1.807,315.900,71.630,17.270,4.816,baseline
1206.000,237.700,47.630,9.891,893.200,154.000,26.350,5.199,132.500,30.280,7.162,1.805,316.800,72.010,17.370,4.830,baseline
1208.000,237.800,47.480,9.936,889.500,154.100,26.370,5.184,131.900,30.240,7.193,1.805,315.900,71.840,17.360,4.837,baseline
1208.000,236.300,47.700,9.914,886.500,154.100,26.250,5.194,134.100,30.060,7.185,1.806,318.100,72.040,17.350,4.851,baseline
1209.000,238.500,47.800,9.989,889.300,154.300,26.350,5.204,133.000,30.400,7.245,1.808,318.900,72.270,17.530,4.890,baseline
1214.000,238.600,47.630,10.070,891.200,154.400,26.400,5.222,133.200,30.490,7.273,1.814,318.300,73.010,17.610,4.912,baseline
1216.000,238.600,47.930,10.030,891.900,154.600,26.370,5.223,133.700,30.240,7.228,1.822,319.900,73.110,17.700,4.898,baseline
1216.000,239.700,47.870,9.981,893.500,153.400,26.190,5.171,133.500,30.470,7.228,1.804,316.500,71.980,17.320,4.836,baseline
1209.000,237.400,47.570,9.887,889.200,153.600,26.330,5.158,133.000,30.330,7.138,1.792,316.400,71.560,17.210,4.792,baseline
1209.000,236.900,47.810,9.846,888.800,154.500,26.300,5.190,133.300,30.030,7.190,1.792,316.000,71.750,17.360,4.800,baseline
1210.000,239.200,47.560,9.909,894.300,154.400,26.320,5.185,133.700,30.260,7.216,1.791,316.500,72.140,17.310,4.821,baseline
1210.000,237.000,47.580,9.983,895.700,153.700,26.300,5.187,134.400,30.380,7.208,1.797,315.900,71.610,17.380,4.807,baseline
1212.000,237.900,47.990,9.920,895.400,154.400,26.350,5.190,133.200,30.360,7.217,1.802,318.600,72.490,17.450,4.823,baseline
1215.000,238.300,47.830,10.060,891.700,154.400,26.440,5.238,135.900,30.260,7.222,1.815,317.400,72.660,17.530,4.836,baseline
1218.000,240.900,48.300,10.060,896.600,154.400,26.510,5.223,133.400,30.270,7.347,1.817,318.700,73.000,17.550,4.888,baseline
1219.000,240.000,48.160,9.994,893.700,154.500,26.330,5.201,133.400,30.440,7.273,1.819,318.400,72.240,17.380,4.810,baseline
1214.000,238.200,47.520,9.979,892.200,154.400,26.430,5.220,132.900,30.500,7.162,1.802,315.600,71.760,17.260,4.816,baseline
1213.000,240.100,47.990,9.979,893.500,155.500,26.400,5.182,132.400,30.300,7.256,1.801,317.400,72.100,17.460,4.807,baseline
1215.000,239.000,47.770,9.986,890.200,154.600,26.370,5.207,131.300,30.390,7.218,1.787,317.300,72.140,17.310,4.802,baseline
1217.000,238.600,47.890,10.040,897.400,154.400,26.430,5.236,131.700,30.420,7.212,1.793,317.800,72.120,17.250,4.782,baseline
1217.000,240.700,47.910,10.030,893.800,154.700,26.420,5.226,134.500,30.550,7.206,1.813,317.300,72.790,17.490,4.837,baseline
1220.000,239.900,48.400,10.090,896.600,155.100,26.520,5.239,132.900,30.130,7.254,1.831,319.100,72.950,17.600,4.921,baseline
1222.000,242.400,48.370,10.060,898.500,154.900,26.500,5.227,132.600,30.490,7.291,1.819,320.500,73.060,17.500,4.876,baseline
1222.000,237.100,48.150,10.060,895.200,154.900,26.440,5.220,134.100,30.400,7.210,1.812,317.100,71.890,17.430,4.812,baseline
1217.000,239.000,48.180,9.965,893.600,154.200,26.320,5.203,133.600,30.450,7.259,1.810,317.300,71.930,17.410,4.786,baseline
1220.000,241.200,48.330,10.060,892.000,154.800,26.470,5.218,131.500,30.490,7.214,1.806,318.400,72.300,17.460,4.852,baseline
1221.000,240.300,47.960,10.050,892.200,155.200,26.300,5.174,133.600,30.390,7.210,1.809,318.200,71.990,17.390,4.829,baseline
1221.000,239.000,47.990,10.070,891.300,155.100,26.400,5.209,135.300,30.270,7.234,1.819,317.500,72.360,17.550,4.855,baseline
1223.000,241.300,48.130,10.040,896.800,154.800,26.370,5.240,133.600,30.400,7.191,1.836,317.900,73.100,17.550,4.895,baseline
1225.000,241.500,48.220,10.110,897.100,154.700,26.470,5.219,136.600,30.490,7.275,1.820,320.800,73.200,17.700,4.891,baseline
1224.000,240.700,48.200,10.020,896.800,154.500,26.390,5.205,133.100,30.280,7.271,1.798,317.800,72.420,17.430,4.794,baseline
1219.000,239.900,48.060,9.953,891.600,154.500,26.300,5.172,132.400,30.270,7.229,1.813,317.300,71.760,17.390,4.772,baseline
1219.000,240.100,47.780,9.988,896.400,154.000,26.320,5.195,134.000,30.360,7.254,1.802,317.400,72.240,17.300,4.848,baseline
1220.000,240.000,48.130,10.060,893.800,154.200,26.230,5.185,132.400,30.290,7.210,1.833,317.000,72.300,17.350,4.828,baseline
1219.000,239.900,48.100,10.040,892.000,154.100,26.310,5.232,135.300,30.340,7.281,1.810,318.300,72.190,17.510,4.841,baseline
1221.000,240.100,47.960,10.100,893.900,154.800,26.410,5.197,133.900,30.300,7.247,1.838,317.900,72.420,17.510,4.886,baseline
1223.000,239.600,48.290,10.080,891.600,154.100,26.420,5.209,134.900,30.450,7.226,1.839,320.100,73.070,17.610,4.890,baseline
1224.000,239.500,48.060,10.070,892.900,154.100,26.250,5.155,132.200,31.040,7.309,1.834,319.000,72.510,17.430,4.849,baseline
1218.000,239.600,47.590,9.966,891.100,153.800,26.350,5.152,134.000,30.040,7.240,1.824,315.900,71.690,17.260,4.811,baseline
1216.000,238.000,47.810,9.996,893.200,154.300,26.110,5.157,133.000,30.310,7.208,1.802,314.900,71.720,17.320,4.802,baseline
1216.000,238.600,47.630,9.973,892.900,153.100,26.180,5.152,133.600,30.550,7.175,1.816,315.900,71.510,17.230,4.791,baseline
1215.000,239.600,47.580,9.936,890.100,153.800,26.260,5.153,132.300,30.140,7.166,1.814,316.500,71.600,17.300,4.792,baseline
1215.000,239.600,47.680,9.963,889.600,153.200,26.170,5.171,133.700,30.410,7.210,1.820,315.600,71.580,17.410,4.829,baseline
1217.000,239.500,47.740,10.030,890.800,153.700,26.180,5.196,131.400,30.120,7.265,1.820,316.700,72.060,17.490,4.847,baseline
1218.000,238.700,47.900,10.040,891.800,153.700,26.200,5.190,132.500,30.370,7.267,1.831,318.800,72.390,17.570,4.874,baseline
1220.000,238.700,48.360,10.040,889.100,153.800,26.170,5.202,130.600,30.430,7.241,1.842,319.400,72.890,17.550,4.894,baseline
1222.000,240.700,48.190,10.070,889.000,153.300,26.250,5.182,132.700,30.340,7.274,1.829,319.700,72.690,17.690,4.940,baseline
1223.000,237.600,48.180,9.995,890.600,153.800,26.100,5.155,134.000,30.580,7.246,1.824,317.700,72.170,17.440,4.853,baseline
1214.000,237.700,47.620,9.927,884.500,153.500,26.070,5.136,132.700,30.480,7.135,1.826,314.200,71.200,17.170,4.763,baseline
1209.000,238.000,47.480,9.865,885.800,152.600,25.980,5.101,131.000,30.210,7.209,1.801,313.900,71.000,17.080,4.756,baseline
1208.000,236.100,47.430,9.851,885.400,152.900,25.910,5.123,132.000,30.050,7.173,1.805,313.600,70.910,17.100,4.760,baseline
1205.000,237.200,47.220,9.850,884.200,152.600,26.060,5.115,131.800,30.000,7.138,1.791,313.700,70.960,17.060,4.739,baseline
1206.000,237.300,47.250,9.906,884.600,152.500,25.960,5.124,132.300,30.230,7.153,1.810,313.000,70.780,17.200,4.794,baseline
1206.000,237.800,47.140,9.921,884.900,152.500,25.970,5.121,132.600,30.370,7.220,1.814,314.600,71.170,17.210,4.828,baseline
1207.000,236.900,47.240,9.864,884.900,152.500,25.850,5.146,130.600,30.330,7.138,1.826,314.100,71.640,17.450,4.841,baseline
1209.000,236.300,47.310,9.946,886.200,152.800,25.940,5.143,131.500,30.000,7.174,1.823,317.000,71.730,17.430,4.895,baseline
1211.000,237.200,47.460,9.983,887.600,153.100,26.040,5.147,130.900,30.220,7.223,1.805,316.900,72.230,17.480,4.852,baseline
1211.000,239.600,47.660,10.010,886.000,153.100,25.900,5.092,131.000,30.120,7.204,1.827,314.600,71.900,17.340,4.775,baseline
1204.000,236.400,47.270,9.803,881.200,151.700,25.890,5.074,132.300,30.070,7.154,1.812,312.600,70.590,17.000,4.722,baseline
1199.000,234.800,46.950,9.763,878.200,151.500,25.720,5.056,130.000,30.120,7.092,1.798,311.300,70.360,17.060,4.718,baseline
1197.000,234.600,47.110,9.821,880.900,151.100,25.750,5.077,130.300,29.680,7.082,1.796,312.400,70.740,17.030,4.727,baseline
1196.000,232.000,47.120,9.785,879.200,151.900,25.790,5.072,131.700,29.850,7.144,1.781,312.200,70.650,16.880,4.764,baseline
1196.000,233.800,46.810,9.799,879.100,151.600,25.820,5.084,131.600,29.930,7.130,1.806,312.000,70.540,17.020,4.801,baseline
1197.000,236.000,47.260,9.828,880.600,151.700,25.790,5.101,132.700,29.700,7.137,1.803,312.200,70.830,17.120,4.770,baseline
1199.000,235.800,47.060,9.935,879.400,152.100,25.870,5.105,132.700,30.170,7.113,1.817,312.400,71.660,17.310,4.784,baseline
1202.000,237.800,47.480,9.899,879.700,152.200,25.870,5.101,131.200,30.060,7.152,1.809,315.300,71.890,17.380,4.826,baseline
1204.000,237.500,47.690,9.956,880.900,152.000,25.860,5.118,134.800,30.330,7.201,1.812,315.200,72.260,17.460,4.860,baseline
1206.000,237.500,47.410,10.020,883.600,152.800,26.080,5.127,131.500,30.190,7.218,1.803,316.800,72.350,17.460,4.887,baseline
1208.000,237.300,47.510,9.998,881.700,152.800,25.870,5.106,132.400,30.130,7.235,1.812,317.700,72.130,17.250,4.844,baseline
1199.000,235.600,47.040,9.836,881.700,152.000,25.830,5.098,132.400,29.970,7.077,1.795,313.500,70.890,17.110,4.744,baseline
1196.000,234.900,46.920,9.798,882.300,152.200,25.750,5.075,130.700,29.610,7.151,1.801,311.700,71.180,17.120,4.736,baseline
1197.000,235.100,47.180,9.804,881.900,151.700,25.760,5.057,130.800,29.930,7.139,1.783,313.600,71.190,17.090,4.782,baseline
1197.000,235.000,47.040,9.885,881.800,151.200,25.720,5.080,131.100,30.120,7.092,1.785,314.100,71.260,17.200,4.777,baseline
1196.000,235.600,47.370,9.915,879.900,151.600,25.710,5.104,129.900,29.720,7.105,1.806,313.200,70.900,17.060,4.803,baseline
1198.000,235.100,47.400,9.853,881.400,151.800,25.710,5.063,129.600,30.180,7.130,1.792,313.600,71.750,17.330,4.833,baseline
1201.000,235.300,47.520,9.954,883.800,152.800,25.860,5.087,131.900,29.890,7.121,1.805,315.900,72.040,17.430,4.858,baseline
1203.000,236.800,47.700,9.918,883.800,152.500,25.900,5.098,132.600,30.040,7.156,1.811,316.800,72.670,17.500,4.894,baseline
1206.000,236.900,47.490,9.960,883.400,152.300,25.980,5.066,131.200,30.030,7.225,1.818,317.500,72.670,17.680,4.910,baseline
1209.000,236.600,47.690,9.976,887.000,152.400,25.830,5.085,133.400,30.210,7.167,1.806,318.300,73.130,17.460,4.901,baseline
1204.000,237.000,47.450,9.887,883.900,152.200,25.760,5.096,132.300,30.330,7.137,1.793,314.600,71.740,17.280,4.775,baseline
1198.000,233.000,46.950,9.757,882.600,151.800,25.740,5.036,131.100,30.370,7.086,1.789,313.900,71.530,17.200,4.833,baseline
1198.000,234.200,47.580,9.824,881.700,152.200,25.750,5.087,128.700,30.110,7.098,1.789,314.600,71.900,17.330,4.833,baseline
1199.000,234.300,47.270,9.920,879.100,152.000,25.700,5.066,133.000,29.900,7.172,1.793,314.100,71.780,17.280,4.836,baseline
1199.000,233.500,47.130,9.928,880.500,151.600,25.690,5.066,131.000,30.020,7.245,1.784,315.200,71.780,17.360,4.866,baseline
1199.000,235.700,47.490,9.954,883.900,152.100,25.930,5.049,132.100,29.620,7.138,1.795,315.200,72.630,17.470,4.860,baseline
1203.000,236.300,47.450,10.030,888.100,153.200,25.830,5.099,131.600,30.060,7.156,1.806,316.200,72.910,17.750,4.915,baseline
1206.000,238.300,47.640,10.010,886.200,152.900,25.850,5.087,132.600,30.520,7.159,1.794,317.900,73.440,17.730,4.961,baseline
1208.000,239.000,47.710,10.090,888.100,153.100,25.930,5.084,133.100,30.530,7.196,1.809,319.500,73.530,17.900,4.999,baseline
1212.000,238.100,48.040,10.090,891.800,153.100,26.050,5.085,132.800,30.540,7.208,1.827,321.200,73.670,17.650,4.928,baseline
1207.000,237.200,47.640,9.982,883.600,151.600,25.790,5.044,132.600,30.080,7.162,1.786,316.700,72.170,17.330,4.851,baseline
1200.000,234.800,47.310,9.836,884.200,152.100,25.710,5.050,132.800,29.620,7.086,1.783,315.600,72.180,17.200,4.847,baseline
1199.000,235.600,47.580,9.943,883.700,151.600,25.710,5.052,130.100,30.060,7.103,1.793,315.600,72.340,17.460,4.871,baseline
1199.000,235.800,47.170,9.871,883.600,152.000,25.690,5.069,133.100,30.090,7.078,1.788,315.200,71.920,17.370,4.873,baseline
1200.000,233.800,47.290,9.919,885.300,152.500,25.800,5.053,133.100,29.910,7.135,1.783,315.800,72.170,17.400,4.854,baseline
1201.000,236.600,47.560,9.964,884.100,152.600,25.810,5.070,129.800,30.160,7.197,1.788,316.900,72.950,17.540,4.922,baseline
1204.000,236.000,47.440,9.949,885.600,152.000,25.840,5.077,133.100,30.000,7.155,1.803,317.300,72.950,17.510,4.944,baseline
1208.000,235.500,47.430,9.998,890.800,153.300,25.890,5.092,133.300,30.220,7.172,1.791,318.700,73.660,17.790,4.981,baseline
1212.000,237.700,47.880,10.100,887.400,153.300,25.840,5.091,133.600,30.370,7.141,1.805,321.100,74.060,17.800,5.006,baseline
1214.000,236.700,47.900,9.975,884.800,152.700,25.840,5.063,130.700,30.630,7.176,1.804,318.800,72.860,17.510,4.865,baseline
1203.000,233.900,47.410,9.854,885.100,151.700,25.730,5.076,132.900,29.740,7.061,1.790,315.800,72.310,17.330,4.780,baseline
1198.000,234.500,47.030,9.861,886.300,153.100,25.850,5.057,131.100,30.100,7.088,1.799,315.000,72.460,17.430,4.883,baseline
1201.000,234.400,46.990,9.906,884.100,152.200,25.770,5.042,133.000,30.080,7.071,1.794,316.500,72.450,17.430,4.863,baseline
1200.000,235.700,46.910,9.914,887.500,152.200,25.750,5.073,131.800,30.110,7.137,1.788,316.300,72.310,17.570,4.906,baseline
1200.000,236.100,47.570,9.850,884.200,152.500,25.890,5.094,133.600,30.160,7.121,1.807,316.000,73.010,17.520,4.939,baseline
1204.000,235.800,47.380,9.989,887.500,153.300,25.820,5.094,132.700,30.020,7.169,1.809,317.500,73.370,17.560,4.924,baseline
1208.000,235.900,47.920,9.974,888.900,152.800,25.890,5.071,131.900,30.610,7.142,1.807,320.100,73.800,17.700,4.976,baseline
1212.000,238.300,47.750,10.010,890.800,153.000,26.000,5.079,133.100,30.200,7.227,1.807,319.500,74.210,17.790,4.987,baseline
1212.000,237.400,47.480,9.960,889.400,153.000,25.900,5.035,132.900,29.930,7.171,1.802,317.800,73.000,17.530,4.933,baseline
1202.000,235.000,47.230,9.881,889.400,152.000,25.730,5.092,130.400,30.380,7.127,1.790,315.200,72.530,17.370,4.856,baseline
1201.000,235.600,47.090,9.962,883.600,152.300,25.850,5.069,131.900,30.250,7.074,1.795,316.600,72.580,17.450,4.901,baseline
1204.000,236.600,47.360,9.935,889.600,152.400,25.800,5.059,134.000,30.160,7.158,1.798,316.100,72.520,17.430,4.888,baseline
1202.000,237.100,47.150,9.909,889.300,152.600,25.700,5.096,131.400,30.190,7.130,1.791,316.100,72.830,17.490,4.925,baseline
1202.000,236.100,47.240,9.919,886.100,152.700,25.780,5.080,132.000,30.320,7.136,1.787,316.700,72.900,17.550,4.934,baseline
1206.000,236.600,47.600,10.020,890.200,153.600,25.940,5.084,130.800,29.920,7.178,1.803,318.200,73.440,17.760,4.977,baseline
1209.000,237.100,47.590,10.050,888.500,153.300,25.980,5.067,132.400,30.500,7.207,1.806,319.700,73.820,17.810,4.984,baseline
1212.000,236.300,47.520,9.963,892.000,153.600,25.860,5.059,133.000,30.550,7.135,1.794,318.000,72.770,17.410,4.874,baseline
1203.000,234.100,47.060,9.899,888.300,152.300,25.870,5.071,131.900,30.080,7.063,1.782,314.700,72.440,17.420,4.868,baseline
1201.000,235.600,47.130,9.886,888.000,152.400,25.840,5.050,130.300,30.120,7.088,1.801,315.400,72.620,17.560,4.902,baseline
1203.000,235.000,47.340,9.901,886.800,152.600,25.950,5.046,130.900,30.160,7.120,1.799,316.300,72.810,17.550,4.905,baseline
1203.000,235.700,47.250,9.943,885.400,152.800,25.900,5.073,132.400,29.940,7.130,1.797,316.300,73.080,17.460,4.936,baseline
1204.000,236.400,47.100,9.952,893.100,152.800,25.960,5.077,133.500,30.020,7.104,1.786,316.700,72.920,17.670,4.945,baseline
1206.000,237.300,47.160,10.010,892.300,152.800,25.870,5.104,131.600,30.150,7.175,1.808,317.200,73.530,17.690,4.986,baseline
1211.000,236.300,47.610,10.040,894.500,153.100,25.860,5.099,134.300,30.410,7.184,1.815,318.700,74.290,17.660,4.985,baseline
1211.000,237.800,47.540,9.941,893.300,152.700,25.890,5.040,131.600,30.380,7.133,1.800,316.400,72.450,17.370,4.853,baseline
1200.000,235.100,47.150,9.828,886.800,152.800,25.740,5.046,133.000,29.950,7.058,1.768,314.100,72.250,17.260,4.857,baseline
1199.000,234.400,46.730,9.830,889.800,153.100,25.840,5.071,132.700,29.920,7.087,1.780,315.600,72.140,17.390,4.853,baseline
1200.000,234.700,47.110,9.927,885.200,152.300,25.870,5.062,131.800,30.030,7.063,1.796,314.700,72.250,17.330,4.840,baseline
1201.000,235.100,47.110,9.899,891.400,152.800,25.870,5.038,132.200,30.020,7.079,1.790,314.500,72.410,17.310,4.867,baseline
1201.000,234.400,47.430,9.899,888.100,152.800,25.750,5.076,130.700,30.300,7.113,1.800,314.900,72.950,17.500,4.916,baseline
1204.000,235.900,47.690,10.000,888.100,153.200,26.020,5.060,133.300,30.160,7.115,1.795,316.300,73.300,17.530,4.962,baseline
1208.000,237.400,47.610,9.972,891.500,153.100,25.910,5.116,133.300,30.380,7.190,1.794,317.300,73.410,17.700,4.947,baseline
1207.000,237.900,47.230,9.930,888.700,152.400,25.860,5.057,132.200,30.430,7.135,1.793,315.200,72.260,17.360,4.840,baseline
1198.000,234.800,47.050,9.837,891.700,152.600,25.830,5.033,132.500,29.590,7.075,1.783,312.400,71.590,17.180,4.816,baseline
1196.000,233.900,47.050,9.812,892.000,152.400,25.830,5.079,132.100,30.260,7.093,1.774,311.700,71.560,17.160,4.846,baseline
1197.000,234.200,47.060,9.832,882.200,152.900,25.780,5.062,130.500,30.020,7.113,1.792,312.200,71.640,17.210,4.839,baseline
1196.000,232.200,46.800,9.860,889.800,152.400,25.790,5.075,132.600,30.050,7.160,1.801,313.300,71.600,17.280,4.815,baseline
1197.000,233.400,47.070,9.927,888.400,152.500,25.830,5.060,134.100,30.280,7.089,1.802,313.000,71.850,17.380,4.877,baseline
1200.000,234.300,47.320,9.949,885.200,152.400,25.840,5.088,131.400,29.920,7.129,1.808,315.200,72.570,17.490,4.874,baseline
1204.000,235.300,47.410,9.987,889.600,153.000,25.880,5.089,133.300,30.190,7.185,1.805,315.100,72.610,17.530,4.905,baseline
1204.000,235.000,47.170,9.900,886.400,152.300,25.820,5.048,132.300,30.410,7.135,1.802,313.300,71.630,17.120,4.807,baseline
1195.000,233.800,46.900,9.813,883.100,152.100,25.790,5.043,132.400,29.980,7.143,1.783,312.400,71.070,17.040,4.756,baseline
1192.000,233.500,46.610,9.885,887.000,152.100,25.660,5.073,131.200,30.050,7.108,1.794,311.300,71.360,17.100,4.815,baseline
1194.000,233.600,46.720,9.811,881.600,152.100,25.700,5.029,133.600,29.970,7.093,1.789,311.800,71.250,17.080,4.775,baseline
1193.000,233.500,46.730,9.891,884.300,152.500,25.860,5.048,132.000,30.060,7.061,1.796,312.100,71.030,17.070,4.822,baseline
1194.000,232.900,46.750,9.906,885.800,152.300,25.680,5.047,132.600,30.200,7.128,1.795,312.100,71.740,17.220,4.844,baseline
1196.000,234.100,46.940,9.858,885.600,153.100,25.800,5.063,132.700,30.130,7.224,1.806,313.000,71.870,17.260,4.875,baseline
1200.000,235.300,46.980,9.968,888.500,152.600,25.730,5.041,132.600,30.310,7.175,1.806,314.000,72.110,17.500,4.886,baseline
1199.000,235.200,47.130,9.911,889.500,152.600,25.730,5.072,131.800,30.060,7.177,1.805,311.900,71.010,17.010,4.798,baseline
1191.000,232.400,46.750,9.804,886.000,151.400,25.620,5.047,131.900,30.010,7.142,1.792,311.400,70.180,16.970,4.783,baseline
1190.000,231.200,46.830,9.789,888.000,152.300,25.700,5.049,131.900,30.200,7.116,1.785,311.200,70.920,17.120,4.791,baseline
1192.000,232.300,46.840,9.866,882.900,152.000,25.700,5.035,132.400,30.340,7.096,1.776,310.400,70.990,17.150,4.786,baseline
1191.000,233.000,46.680,9.852,883.700,152.400,25.730,5.038,134.500,30.210,7.092,1.795,311.300,71.150,17.090,4.831,baseline
1192.000,233.500,46.760,9.840,884.700,151.900,25.800,5.065,132.300,30.170,7.137,1.783,311.500,71.520,17.140,4.820,baseline
1195.000,233.900,47.030,9.848,887.300,152.600,25.770,5.048,133.000,30.270,7.201,1.811,310.600,71.890,17.220,4.829,baseline
1198.000,233.700,47.050,9.954,888.400,152.600,25.830,5.091,132.700,30.240,7.219,1.809,313.600,72.090,17.260,4.891,baseline
1200.000,234.900,46.930,9.993,886.600,152.300,25.630,5.057,130.600,30.450,7.186,1.814,314.300,71.470,17.180,4.815,baseline
1193.000,232.600,46.770,9.873,882.600,152.100,25.710,5.047,133.700,30.020,7.183,1.798,308.800,70.730,16.970,4.758,baseline
1188.000,232.000,46.440,9.747,885.100,151.600,25.600,5.013,131.800,29.670,7.078,1.786,309.300,70.250,16.990,4.748,baseline
1188.000,233.200,46.590,9.875,881.100,152.000,25.610,5.041,134.700,29.850,7.145,1.796,309.800,70.640,17.010,4.788,baseline
1189.000,232.000,46.540,9.799,885.300,151.800,25.550,5.015,133.500,29.880,7.152,1.800,308.900,70.600,17.060,4.797,baseline
1189.000,232.100,46.700,9.746,883.700,152.300,25.580,5.040,132.600,29.640,7.117,1.792,310.100,70.650,17.050,4.788,baseline
1189.000,232.900,46.600,9.876,884.700,151.600,25.740,5.021,132.600,29.990,7.125,1.817,310.900,71.100,17.230,4.831,baseline
1193.000,232.200,46.580,9.890,883.900,151.900,25.720,5.032,132.200,30.550,7.211,1.811,311.600,71.510,17.250,4.859,baseline
1196.000,234.500,46.920,9.940,889.300,151.700,25.850,5.077,131.300,30.120,7.198,1.793,314.100,71.690,17.420,4.814,baseline
