A-DC1,A-DC2,A-DC3,A-DC4,A-DC5,A-DC6,A-DC7,A-DC8,B-DC1,B-DC2,B-DC3,B-DC4,B-DC5,B-DC6,B-DC7,B-DC8,condition
1312.000,380.500,103.400,29.160,1561.000,414.800,108.400,28.730,183.100,56.390,17.650,6.147,382.300,118.300,36.730,12.840,baseline
1314.000,381.600,103.900,29.180,1562.000,414.300,108.400,28.830,184.800,56.310,17.680,6.168,384.200,118.500,36.870,12.930,baseline
1319.000,382.900,104.300,29.500,1566.000,414.800,108.700,28.880,180.800,56.550,17.640,6.176,384.200,119.400,37.030,13.010,baseline
1324.000,383.800,104.600,29.590,1565.000,416.000,108.600,28.960,184.600,56.550,17.750,6.185,385.100,119.400,37.210,13.070,baseline
1327.000,384.800,105.400,29.620,1574.000,417.100,109.200,29.000,186.800,56.490,17.820,6.187,386.900,119.900,37.240,13.140,baseline
1332.000,387.000,105.400,29.760,1575.000,417.300,109.100,29.130,184.700,56.930,17.760,6.211,387.200,120.500,37.500,13.260,baseline
1338.000,387.600,105.900,30.020,1575.000,418.900,109.400,29.130,183.100,57.190,17.870,6.246,390.000,121.200,37.800,13.300,baseline
1340.000,388.700,105.600,29.550,1568.000,414.300,108.300,28.770,187.100,56.770,17.850,6.201,385.300,119.400,36.950,12.930,baseline
1312.000,380.800,103.600,29.120,1561.000,414.000,107.800,28.690,183.100,56.610,17.760,6.147,382.400,118.500,36.860,12.860,baseline
1310.000,378.200,103.400,29.090,1561.000,413.300,107.900,28.690,182.500,56.280,17.660,6.161,381.700,118.100,36.520,12.790,baseline
1309.000,379.400,103.300,29.120,1560.000,414.700,107.900,28.610,184.800,56.340,17.680,6.146,381.400,118.100,36.720,12.830,baseline
1311.000,380.400,103.700,29.070,1559.000,414.100,108.000,28.790,184.000,56.070,17.670,6.120,381.700,118.000,36.490,12.850,baseline
1314.000,380.300,103.800,29.170,1563.000,413.500,108.300,28.730,181.400,56.570,17.610,6.148,381.600,118.700,36.880,12.870,baseline
1318.000,381.900,104.100,29.320,1564.000,414.800,108.400,28.860,184.700,56.270,17.710,6.166,383.200,118.700,37.020,12.930,baseline
1324.000,384.000,104.800,29.500,1568.000,415.400,108.700,28.950,185.000,56.640,17.730,6.177,383.600,119.400,37.060,13.010,baseline
1328.000,384.100,105.000,29.690,1569.000,416.300,109.000,28.960,181.100,57.000,17.720,6.206,385.900,119.700,37.220,13.100,baseline
1333.000,385.400,105.600,29.800,1574.000,416.500,109.100,29.020,182.600,57.000,17.830,6.195,388.400,119.900,37.450,13.200,baseline
1337.000,388.900,106.000,29.900,1572.000,417.600,109.300,29.050,184.800,56.850,17.870,6.231,389.000,121.200,37.780,13.300,baseline
1345.000,390.500,106.300,30.120,1576.000,419.900,109.400,29.130,184.200,57.230,17.900,6.263,390.800,121.900,37.930,13.380,baseline
1345.000,387.400,106.000,29.570,1563.000,414.600,108.100,28.760,185.000,57.030,17.860,6.237,385.400,119.300,37.050,12.920,baseline
1313.000,379.200,103.400,29.160,1559.000,412.500,108.000,28.620,186.000,56.400,17.680,6.142,381.500,118.300,36.710,12.820,baseline
1310.000,380.100,103.200,28.960,1555.000,413.000,107.700,28.590,183.100,56.610,17.600,6.137,380.400,118.000,36.300,12.700,baseline
1306.000,378.200,103.000,29.020,1555.000,411.800,107.500,28.570,181.000,56.250,17.580,6.110,380.000,118.000,36.490,12.750,baseline
1308.000,378.500,103.100,29.030,1554.000,411.900,107.700,28.640,185.000,56.260,17.620,6.116,379.700,117.700,36.480,12.740,baseline
1308.000,380.300,103.200,29.170,1556.000,412.900,107.800,28.740,182.700,56.510,17.560,6.090,380.000,118.100,36.540,12.770,baseline
1312.000,381.400,103.600,29.180,1560.000,412.800,108.100,28.770,181.600,56.620,17.560,6.139,381.300,118.200,36.650,12.840,baseline
1318.000,382.500,104.400,29.380,1563.000,413.100,108.400,28.800,182.800,56.230,17.630,6.124,383.000,118.600,36.920,12.870,baseline
1321.000,383.500,104.700,29.480,1562.000,414.300,108.500,28.910,183.600,56.390,17.690,6.156,382.100,119.500,36.810,12.990,baseline
1324.000,383.900,104.500,29.620,1566.000,414.900,108.700,28.950,179.700,56.540,17.700,6.183,385.000,119.800,37.090,13.040,baseline
1329.000,384.800,105.300,29.780,1572.000,415.600,108.900,28.980,184.600,56.920,17.760,6.184,386.100,119.900,37.420,13.140,baseline
1335.000,386.300,106.300,29.960,1569.000,416.400,109.200,29.150,186.400,56.580,17.850,6.219,387.800,120.700,37.550,13.290,baseline
1339.000,387.500,105.600,29.700,1566.000,413.900,108.100,28.780,182.900,57.190,17.790,6.207,384.100,119.700,36.890,12.880,baseline
1309.000,378.600,103.300,29.190,1560.000,412.100,107.800,28.740,184.200,56.510,17.640,6.131,381.200,118.200,36.630,12.700,baseline
1305.000,377.300,103.200,29.020,1554.000,410.500,107.800,28.650,183.800,56.130,17.630,6.115,380.300,117.900,36.280,12.630,baseline
1301.000,378.300,102.700,28.950,1551.000,411.100,107.700,28.710,181.000,56.410,17.540,6.104,379.000,117.600,36.420,12.680,baseline
1303.000,378.300,103.000,29.040,1551.000,410.800,107.800,28.710,181.300,56.220,17.570,6.124,380.000,117.700,36.410,12.640,baseline
1304.000,378.400,103.300,29.080,1555.000,411.900,108.400,28.750,184.200,56.150,17.600,6.104,379.800,117.900,36.460,12.750,baseline
1308.000,380.400,103.400,29.270,1556.000,413.300,108.200,28.880,181.100,56.460,17.550,6.116,380.200,118.400,36.550,12.790,baseline
1313.000,380.900,103.600,29.340,1558.000,412.600,108.300,28.870,180.000,56.370,17.560,6.144,381.900,118.600,36.800,12.840,baseline
1314.000,380.500,104.200,29.400,1558.000,413.100,108.400,28.920,184.600,56.400,17.700,6.126,382.600,119.000,36.880,12.890,baseline
1318.000,380.800,104.600,29.500,1563.000,414.200,108.400,29.000,183.500,56.790,17.730,6.174,383.100,119.400,37.010,12.970,baseline
1323.000,382.900,105.100,29.740,1559.000,414.600,108.800,29.140,182.400,56.860,17.720,6.179,385.900,119.600,37.260,13.060,baseline
1327.000,383.800,105.500,29.720,1564.000,414.400,108.300,28.830,185.800,56.560,17.830,6.204,386.400,119.800,36.950,12.870,baseline
1307.000,378.400,103.000,29.120,1552.000,411.300,107.600,28.780,184.300,56.670,17.610,6.116,382.300,118.300,36.480,12.710,baseline
1302.000,375.900,102.600,29.050,1553.000,411.300,107.800,28.750,181.800,56.720,17.570,6.125,381.300,118.100,36.430,12.630,baseline
1299.000,377.100,102.600,29.000,1550.000,410.700,107.800,28.790,183.200,56.400,17.560,6.113,379.500,117.300,36.480,12.650,baseline
1302.000,376.700,102.900,29.080,1552.000,411.600,107.800,28.830,183.600,56.350,17.590,6.120,380.000,118.000,36.440,12.660,baseline
1302.000,375.800,103.200,29.100,1553.000,411.000,108.100,28.890,181.900,56.500,17.590,6.153,380.200,118.200,36.450,12.690,baseline
1307.000,379.100,103.700,29.280,1557.000,412.100,108.100,28.920,186.100,56.400,17.710,6.139,382.300,118.400,36.770,12.800,baseline
1311.000,376.600,103.900,29.390,1556.000,413.500,108.400,29.000,183.900,56.690,17.640,6.160,382.600,119.200,36.800,12.890,baseline
1315.000,380.400,103.800,29.500,1563.000,414.700,108.400,28.990,182.300,56.930,17.690,6.191,383.600,119.500,36.940,12.890,baseline
1320.000,381.900,104.700,29.610,1564.000,415.000,108.900,29.030,184.500,56.780,17.800,6.196,385.800,119.400,37.160,12.980,baseline
1324.000,383.300,105.300,29.840,1566.000,416.200,109.000,29.110,187.400,56.640,17.800,6.194,386.900,120.400,37.370,13.070,baseline
1331.000,385.300,105.700,30.050,1568.000,416.500,109.500,29.270,185.100,57.180,17.810,6.231,389.200,121.100,37.570,13.170,baseline
1332.000,384.800,104.800,29.540,1561.000,413.600,108.300,28.950,183.800,57.220,17.820,6.198,385.200,119.400,36.850,12.780,baseline
1307.000,377.500,103.700,29.110,1554.000,412.500,108.200,28.860,185.300,56.680,17.690,6.155,383.000,118.200,36.570,12.700,baseline
1304.000,378.100,102.800,28.950,1551.000,412.700,107.900,28.840,185.400,56.620,17.640,6.139,380.600,117.900,36.240,12.590,baseline
1301.000,376.800,102.800,29.010,1553.000,412.700,108.000,28.850,182.200,56.570,17.710,6.132,380.400,117.900,36.420,12.610,baseline
1304.000,376.400,102.700,29.010,1556.000,412.700,108.100,28.890,184.500,56.420,17.690,6.137,380.100,117.900,36.440,12.650,baseline
1304.000,379.800,103.000,29.020,1555.000,413.500,108.100,28.960,184.300,56.800,17.630,6.147,381.000,118.500,36.340,12.720,baseline
1308.000,379.800,103.700,29.270,1555.000,414.100,108.300,29.050,180.600,56.850,17.660,6.173,381.300,118.800,36.740,12.760,baseline
1313.000,380.500,103.900,29.360,1558.000,414.000,108.400,29.050,182.200,56.530,17.730,6.181,383.800,119.000,36.810,12.820,baseline
1317.000,382.600,104.700,29.470,1562.000,415.100,108.700,29.070,185.000,56.640,17.760,6.191,384.900,119.200,36.820,12.910,baseline
1322.000,384.200,104.900,29.540,1566.000,415.800,108.900,29.150,181.300,57.280,17.820,6.221,385.500,119.900,37.230,12.990,baseline
1327.000,384.500,105.200,29.690,1571.000,416.000,109.300,29.200,185.100,56.710,17.830,6.201,387.000,120.300,37.360,13.080,baseline
1332.000,387.300,105.800,29.860,1576.000,418.100,109.500,29.310,187.000,56.960,17.920,6.257,388.200,121.000,37.500,13.190,baseline
1337.000,387.800,106.000,29.820,1571.000,417.200,108.800,29.030,184.400,57.530,17.860,6.236,387.800,120.200,37.120,12.860,baseline
1314.000,381.200,103.700,29.220,1562.000,414.600,108.400,28.960,184.100,57.090,17.740,6.169,382.000,118.600,36.750,12.700,baseline
1309.000,379.100,103.500,29.070,1554.000,413.800,108.200,28.860,186.100,56.420,17.720,6.165,381.500,117.800,36.400,12.660,baseline
1305.000,377.500,102.600,28.930,1553.000,413.500,108.200,28.880,182.600,56.550,17.680,6.148,380.200,118.000,36.280,12.640,baseline
1308.000,378.100,103.100,29.010,1560.000,414.300,108.200,28.910,183.100,56.530,17.690,6.140,380.400,117.900,36.400,12.620,baseline
1310.000,378.600,103.600,29.040,1558.000,414.300,108.300,28.920,187.800,56.500,17.660,6.144,381.700,117.800,36.430,12.690,baseline
1313.000,381.500,103.400,29.100,1556.000,415.300,108.400,29.030,183.800,56.840,17.660,6.167,381.900,118.200,36.480,12.770,baseline
1318.000,382.700,103.900,29.290,1561.000,415.200,108.800,29.060,181.000,56.770,17.700,6.195,383.700,118.500,36.710,12.840,baseline
1321.000,382.400,104.400,29.420,1563.000,415.700,108.700,29.100,185.300,56.770,17.740,6.187,383.500,118.700,36.780,12.910,baseline
1324.000,384.800,105.000,29.500,1565.000,416.900,109.300,29.160,183.900,56.540,17.740,6.212,384.000,119.200,37.000,12.940,baseline
1329.000,385.000,105.000,29.580,1569.000,417.000,109.400,29.200,183.000,56.850,17.760,6.235,385.800,119.900,37.100,13.070,baseline
1334.000,386.200,105.600,29.740,1572.000,418.400,109.500,29.290,186.800,56.790,17.870,6.232,388.200,120.100,37.410,13.110,baseline
1339.000,386.800,105.800,29.760,1570.000,416.100,109.000,29.030,188.000,57.230,17.870,6.245,387.000,119.900,37.040,12.960,baseline
1317.000,380.700,103.400,29.130,1557.000,414.300,108.400,28.890,181.200,57.010,17.780,6.193,382.400,118.200,36.550,12.780,baseline
1311.000,380.100,103.100,28.960,1560.000,413.800,108.300,28.840,184.400,56.690,17.660,6.176,380.900,117.300,36.450,12.670,baseline
1307.000,377.500,103.400,28.890,1560.000,414.200,108.400,28.840,185.400,56.300,17.680,6.157,379.900,117.700,36.310,12.700,baseline
1310.000,380.600,103.100,28.960,1557.000,414.200,108.400,28.910,180.600,56.740,17.620,6.167,379.900,117.300,36.200,12.700,baseline
1310.000,379.300,102.800,28.940,1562.000,414.500,108.700,28.840,182.600,56.430,17.620,6.140,379.400,116.900,36.300,12.720,baseline
1314.000,382.700,103.800,29.140,1561.000,414.800,108.700,28.970,184.900,56.240,17.680,6.147,380.200,117.700,36.560,12.780,baseline
1318.000,382.500,104.200,29.210,1561.000,416.000,108.800,29.020,182.600,56.760,17.630,6.175,381.400,118.100,36.630,12.840,baseline
1322.000,383.900,104.300,29.270,1561.000,415.500,108.900,29.040,181.600,56.640,17.710,6.211,382.800,118.400,36.700,12.930,baseline
1327.000,384.600,104.700,29.430,1567.000,416.800,109.200,29.080,185.500,56.630,17.810,6.194,383.700,118.700,37.000,12.970,baseline
1332.000,387.500,105.400,29.520,1568.000,417.400,109.300,29.100,184.200,57.080,17.840,6.223,384.100,119.400,37.140,13.130,baseline
1336.000,388.500,105.700,29.720,1571.000,418.200,109.600,29.220,182.900,57.210,17.800,6.235,387.700,119.700,37.290,13.180,baseline
1342.000,389.300,105.800,29.720,1574.000,417.000,109.000,28.910,187.300,56.800,17.890,6.248,386.200,119.300,37.140,12.940,baseline
1316.000,380.700,103.500,29.020,1559.000,414.800,108.200,28.850,185.200,57.060,17.680,6.176,380.200,117.800,36.310,12.770,baseline
1309.000,379.500,103.000,28.890,1559.000,412.800,108.100,28.720,181.200,56.740,17.550,6.148,379.100,117.300,36.110,12.650,baseline
1303.000,378.600,102.100,28.690,1556.000,412.600,108.000,28.720,183.800,56.090,17.610,6.116,378.400,116.600,36.050,12.610,baseline
1304.000,378.100,102.800,28.810,1553.000,412.400,107.700,28.830,184.100,56.160,17.610,6.127,377.200,116.800,36.190,12.670,baseline
1304.000,378.400,102.900,28.730,1554.000,413.700,108.100,28.820,182.200,56.420,17.570,6.125,376.900,116.800,36.120,12.690,baseline
1306.000,379.600,103.300,28.880,1555.000,413.900,108.400,28.840,184.000,56.120,17.550,6.119,377.900,117.100,36.330,12.700,baseline
1309.000,379.400,103.600,29.070,1557.000,412.600,108.200,28.910,184.600,56.350,17.570,6.139,378.700,117.600,36.490,12.830,baseline
1313.000,380.700,103.600,29.200,1564.000,413.900,108.700,29.020,182.300,56.670,17.600,6.171,380.600,118.100,36.620,12.900,baseline
1316.000,382.300,104.300,29.320,1561.000,415.200,108.700,29.010,182.700,56.630,17.680,6.177,381.800,118.500,36.950,12.950,baseline
1321.000,383.400,104.500,29.580,1565.000,415.300,109.100,29.100,186.700,56.610,17.770,6.193,383.400,119.100,36.970,13.030,baseline
1326.000,384.400,105.100,29.670,1566.000,415.900,109.200,29.130,183.000,56.830,17.760,6.190,384.300,119.800,37.090,13.160,baseline
1331.000,385.400,105.700,29.890,1570.000,416.700,109.500,29.200,181.900,57.080,17.830,6.231,386.300,120.000,37.580,13.240,baseline
1335.000,385.900,105.500,29.670,1565.000,414.800,108.200,28.940,186.300,57.090,17.880,6.216,384.200,119.200,36.900,12.900,baseline
1307.000,377.800,103.000,29.000,1555.000,411.300,107.900,28.840,182.900,56.910,17.640,6.175,380.500,117.900,36.430,12.800,baseline
1301.000,377.900,102.600,28.920,1551.000,411.300,107.800,28.710,181.300,56.840,17.620,6.150,379.100,117.600,36.310,12.720,baseline
1294.000,375.300,102.500,28.760,1551.000,411.400,108.000,28.770,183.700,56.450,17.630,6.129,378.300,117.500,36.260,12.690,baseline
1296.000,376.200,103.000,28.840,1551.000,411.500,108.100,28.830,181.800,56.460,17.560,6.142,378.400,117.500,36.290,12.730,baseline
1296.000,375.000,102.400,28.980,1555.000,411.900,108.200,28.820,181.700,56.480,17.590,6.113,378.900,117.600,36.360,12.770,baseline
1300.000,376.800,103.300,29.080,1557.000,412.800,108.200,28.880,182.300,56.380,17.600,6.118,379.900,117.900,36.550,12.810,baseline
1303.000,378.300,103.600,29.250,1557.000,413.500,108.400,28.990,184.000,56.510,17.660,6.138,380.900,118.400,36.560,12.870,baseline
1307.000,378.900,104.000,29.450,1557.000,414.800,108.500,29.000,180.400,56.810,17.630,6.157,382.000,119.000,36.730,12.960,baseline
1312.000,380.900,104.700,29.520,1561.000,414.000,108.800,29.040,184.800,56.990,17.710,6.157,383.600,119.200,37.170,13.000,baseline
1317.000,382.400,105.000,29.720,1564.000,415.400,108.600,29.150,186.000,56.390,17.810,6.190,384.400,120.100,37.250,13.130,baseline
1323.000,384.600,105.900,29.850,1567.000,416.600,109.400,29.210,181.800,57.350,17.750,6.203,385.600,120.300,37.380,13.180,baseline
1328.000,386.500,106.300,29.990,1573.000,417.100,109.500,29.290,183.900,57.090,17.830,6.215,389.100,121.300,37.830,13.290,baseline
1329.000,385.200,105.400,29.670,1566.000,414.500,108.400,28.910,188.200,56.850,17.890,6.213,384.700,119.800,36.980,12.930,baseline
1301.000,377.000,103.500,29.250,1558.000,413.000,108.000,28.920,184.100,57.130,17.640,6.149,382.400,119.200,36.730,12.850,baseline
1297.000,375.400,103.200,29.030,1554.000,412.300,108.100,28.810,184.200,56.700,17.600,6.124,381.600,118.500,36.640,12.730,baseline
1294.000,372.200,103.100,29.050,1554.000,412.200,107.900,28.850,183.100,56.540,17.670,6.106,381.800,118.500,36.660,12.780,baseline
1297.000,375.900,103.400,29.210,1559.000,412.500,108.300,28.840,182.800,56.470,17.650,6.142,381.200,118.600,36.550,12.780,baseline
1298.000,377.400,103.200,29.200,1557.000,413.600,108.200,28.890,181.400,56.650,17.610,6.142,382.200,118.700,36.680,12.810,baseline
1302.000,378.500,103.900,29.320,1558.000,414.000,108.600,28.980,183.800,56.760,17.670,6.129,383.500,119.200,36.900,12.860,baseline
1307.000,378.900,104.100,29.470,1562.000,414.500,108.500,29.000,184.100,56.880,17.720,6.173,384.800,119.600,37.040,12.980,baseline
1311.000,379.900,104.500,29.610,1563.000,415.000,108.500,29.030,182.400,57.100,17.690,6.173,384.700,120.100,37.200,13.010,baseline
1315.000,380.600,104.900,29.650,1565.000,416.600,109.200,29.110,186.100,56.740,17.830,6.173,386.400,120.400,37.460,13.150,baseline
1321.000,383.500,105.200,29.940,1569.000,417.500,109.300,29.150,186.400,56.860,17.820,6.210,388.300,121.500,37.620,13.230,baseline
1326.000,386.300,105.400,29.980,1570.000,416.200,108.900,29.070,182.100,57.130,17.840,6.217,388.400,121.400,37.560,13.080,baseline
1309.000,379.300,103.300,29.230,1562.000,413.200,108.300,28.840,184.000,57.250,17.790,6.150,384.300,119.900,36.950,12.830,baseline
1301.000,377.900,103.300,29.170,1556.000,412.400,108.300,28.880,183.900,56.940,17.810,6.138,382.300,119.100,36.750,12.800,baseline
1296.000,377.700,103.100,29.030,1554.000,412.300,108.100,28.850,181.800,56.860,17.610,6.138,382.800,119.200,36.690,12.780,baseline
1299.000,378.200,103.300,29.210,1560.000,413.600,108.100,28.820,183.600,56.640,17.650,6.126,383.400,119.200,36.770,12.740,baseline
1299.000,377.200,103.300,29.140,1560.000,413.700,107.900,28.820,183.200,56.470,17.670,6.130,383.200,119.300,36.770,12.820,baseline
1304.000,379.300,103.600,29.340,1561.000,414.800,108.600,28.970,183.200,57.100,17.670,6.165,384.600,119.700,36.870,12.910,baseline
1308.000,378.000,104.300,29.400,1558.000,414.800,108.600,28.920,184.000,56.890,17.720,6.177,385.200,119.800,37.070,12.940,baseline
1313.000,380.200,104.100,29.500,1565.000,415.800,108.800,29.010,186.400,56.560,17.760,6.186,386.100,120.300,37.210,12.990,baseline
1318.000,382.700,104.700,29.720,1571.000,416.500,108.900,29.070,185.900,56.900,17.820,6.197,387.300,120.600,37.360,13.100,baseline
1323.000,383.700,105.400,29.800,1570.000,417.400,109.300,29.090,182.300,57.160,17.830,6.209,388.500,121.200,37.620,13.160,baseline
1329.000,385.200,105.600,29.980,1574.000,418.200,109.600,29.120,186.700,57.100,17.950,6.246,390.800,122.200,37.840,13.260,baseline
1334.000,386.900,106.000,30.140,1577.000,418.700,109.600,29.170,186.900,57.220,17.930,6.261,392.700,122.500,37.970,13.300,baseline
1326.000,383.700,104.100,29.470,1565.000,415.100,108.300,28.820,182.500,57.300,17.860,6.209,387.500,120.700,37.180,12.940,baseline
1307.000,379.600,103.800,29.190,1565.000,414.200,108.100,28.840,185.100,56.640,17.720,6.167,385.300,119.800,36.920,12.820,baseline
1304.000,378.400,103.400,28.990,1557.000,414.700,107.800,28.800,183.800,56.640,17.730,6.170,383.900,119.400,36.700,12.760,baseline
1304.000,378.700,103.300,29.130,1559.000,414.700,108.200,28.750,182.600,56.710,17.660,6.151,383.500,119.500,36.750,12.780,baseline
1306.000,379.900,103.400,29.050,1562.000,414.300,108.400,28.780,183.600,56.590,17.700,6.142,384.600,119.300,36.940,12.770,baseline
1308.000,379.800,103.500,29.180,1559.000,414.800,108.500,28.810,183.800,56.680,17.730,6.173,384.100,119.600,36.880,12.840,baseline
1314.000,381.300,104.000,29.340,1565.000,415.900,108.600,28.940,184.200,57.040,17.730,6.200,385.300,120.000,37.070,12.910,baseline
1318.000,382.700,103.900,29.330,1568.000,416.100,108.600,28.930,183.000,56.920,17.800,6.195,387.300,120.300,37.210,12.960,baseline
1322.000,384.700,104.600,29.480,1571.000,416.700,108.900,28.990,186.100,56.830,17.850,6.196,387.800,120.700,37.310,13.030,baseline
1327.000,386.900,105.200,29.590,1570.000,418.500,109.200,29.100,185.400,57.000,17.820,6.222,388.400,121.300,37.520,13.150,baseline
1332.000,387.100,105.900,29.760,1573.000,418.800,109.300,29.180,185.000,57.150,17.860,6.253,390.300,121.300,37.730,13.210,baseline
1336.000,390.400,106.200,30.060,1577.000,419.200,109.600,29.240,188.200,57.280,17.960,6.253,392.300,122.400,38.000,13.380,baseline
1344.000,391.300,106.500,30.150,1581.000,419.700,110.000,29.190,184.500,57.620,18.000,6.297,392.900,122.500,37.950,13.330,baseline
1337.000,387.300,104.700,29.310,1571.000,415.500,108.100,28.720,184.300,57.510,17.910,6.241,388.100,120.200,37.290,12.920,baseline
1313.000,380.600,103.300,28.980,1565.000,414.300,108.100,28.540,185.400,56.910,17.800,6.168,386.900,119.800,36.940,12.870,baseline
1311.000,378.700,102.500,28.740,1559.000,413.400,107.700,28.400,185.100,57.210,17.760,6.178,386.200,119.300,36.780,12.790,baseline
1309.000,378.500,102.300,28.670,1564.000,414.600,107.900,28.320,185.400,57.170,17.760,6.159,386.300,119.400,36.800,12.820,baseline
1312.000,380.500,102.500,28.650,1561.000,415.100,107.800,28.320,187.500,56.850,17.740,6.176,386.800,119.400,37.060,12.850,baseline
1315.000,380.000,103.100,28.790,1567.000,415.100,107.900,28.360,189.800,57.250,17.810,6.216,387.900,120.000,37.260,13.000,baseline
1323.000,383.500,103.500,28.920,1570.000,415.800,108.100,28.380,186.500,57.590,17.840,6.248,388.400,120.300,37.410,13.060,baseline
1331.000,385.800,103.900,29.110,1569.000,417.600,108.200,28.420,189.100,57.400,18.020,6.265,391.400,121.000,37.620,13.170,baseline
1338.000,387.100,104.600,29.260,1572.000,418.000,108.700,28.500,191.700,57.350,18.080,6.279,391.700,121.500,37.800,13.270,baseline
1343.000,389.500,104.900,29.380,1582.000,418.700,108.800,28.590,186.000,57.830,18.040,6.326,391.900,121.800,37.970,13.360,baseline
1351.000,390.100,105.600,29.670,1584.000,420.800,109.400,28.660,190.000,58.010,18.110,6.318,394.600,122.400,38.210,13.430,baseline
1357.000,392.900,106.100,29.750,1588.000,421.500,109.400,28.720,193.800,57.960,18.220,6.347,396.400,123.300,38.520,13.560,baseline
1365.000,394.400,106.400,29.650,1587.000,419.300,108.700,28.440,189.900,58.280,18.210,6.345,393.600,122.100,37.800,13.240,baseline
1335.000,383.200,103.400,28.860,1571.000,416.100,108.400,28.380,187.500,57.880,18.000,6.268,389.600,120.400,37.510,13.110,baseline
1329.000,383.400,103.500,28.820,1568.000,416.700,107.900,28.310,189.700,57.420,18.050,6.271,389.100,120.300,37.400,13.000,baseline
1324.000,383.300,102.900,28.740,1570.000,416.200,108.300,28.320,188.700,57.260,17.950,6.280,387.800,120.300,37.280,13.070,baseline
1329.000,383.800,103.200,28.700,1568.000,416.000,108.100,28.310,187.200,57.690,18.010,6.273,388.000,120.100,37.290,13.040,baseline
1329.000,382.000,103.100,28.800,1572.000,415.300,108.300,28.320,190.400,57.400,18.030,6.286,389.300,120.200,37.460,13.100,baseline
1333.000,385.100,103.600,28.960,1574.000,416.500,108.200,28.380,186.700,57.850,17.980,6.292,389.500,120.800,37.480,13.160,baseline
1338.000,386.000,104.300,29.130,1581.000,417.800,108.500,28.470,186.300,57.930,18.050,6.307,390.300,121.200,37.720,13.250,baseline
1344.000,387.900,104.700,29.290,1581.000,417.000,108.800,28.510,190.600,57.720,18.110,6.305,390.500,121.600,37.760,13.310,baseline
1348.000,389.700,105.200,29.350,1584.000,418.600,109.000,28.480,190.400,57.410,18.140,6.336,393.100,122.100,38.070,13.440,baseline
1354.000,390.500,105.500,29.480,1588.000,419.000,109.000,28.600,187.500,58.030,18.120,6.363,394.900,122.600,38.360,13.540,baseline
1362.000,392.400,106.200,29.650,1596.000,420.000,109.200,28.520,190.000,58.000,18.260,6.364,397.000,122.900,38.370,13.440,baseline
1353.000,387.200,104.100,28.890,1572.000,414.200,107.600,28.150,191.400,57.850,18.110,6.301,390.500,120.900,37.430,13.130,baseline
1324.000,379.000,102.600,28.510,1566.000,412.400,107.500,28.040,188.500,57.750,17.960,6.273,387.900,120.200,37.060,12.970,baseline
1319.000,378.300,102.000,28.290,1563.000,412.100,107.100,28.030,189.300,57.270,17.960,6.243,387.300,119.100,37.010,12.920,baseline
1315.000,377.600,102.000,28.430,1564.000,413.100,107.500,28.050,191.800,57.070,17.930,6.245,387.500,119.300,37.170,12.930,baseline
1318.000,379.300,102.200,28.440,1565.000,413.700,107.700,28.020,186.200,57.470,17.920,6.250,386.200,119.700,37.080,12.980,baseline
1319.000,380.300,102.800,28.580,1568.000,413.700,107.800,28.130,186.100,57.590,17.930,6.254,387.700,119.700,37.180,13.020,baseline
1324.000,380.900,103.200,28.670,1570.000,413.300,107.900,28.170,190.500,57.030,18.040,6.266,388.200,120.600,37.230,13.120,baseline
1331.000,383.100,103.300,28.780,1574.000,414.500,108.000,28.220,188.300,57.680,17.950,6.293,388.400,120.300,37.460,13.170,baseline
1335.000,384.100,103.600,28.820,1579.000,415.300,108.200,28.220,185.700,57.760,18.050,6.283,390.100,120.900,37.590,13.260,baseline
1341.000,385.100,104.100,29.000,1580.000,416.400,108.400,28.240,189.600,57.680,18.100,6.295,393.200,121.700,37.860,13.350,baseline
1347.000,386.200,104.700,29.010,1580.000,416.400,108.400,28.280,188.700,57.720,18.100,6.332,393.100,122.400,38.050,13.450,baseline
1354.000,387.500,105.200,29.280,1586.000,417.400,108.900,28.330,187.800,58.130,18.090,6.355,395.300,122.900,38.360,13.540,baseline
1362.000,389.800,105.800,29.380,1593.000,417.300,108.600,28.170,191.600,57.800,18.220,6.349,396.400,123.000,38.150,13.350,baseline
1339.000,380.400,102.700,28.420,1573.000,412.100,107.100,27.840,188.700,57.720,18.000,6.266,389.400,120.900,37.270,13.100,baseline
1319.000,377.500,101.700,28.100,1568.000,411.300,106.800,27.760,185.000,57.720,17.940,6.253,388.000,120.200,37.000,12.980,baseline
1313.000,375.100,101.200,27.910,1567.000,409.400,106.400,27.730,188.600,57.450,17.960,6.241,385.000,119.400,36.870,12.920,baseline
1311.000,374.100,101.200,28.010,1562.000,410.300,106.900,27.700,189.300,57.080,17.900,6.231,386.600,119.700,36.870,12.950,baseline
1312.000,374.600,101.300,28.040,1563.000,410.500,106.900,27.760,186.800,57.340,17.840,6.225,386.500,120.000,37.100,12.960,baseline
1315.000,376.400,101.600,28.110,1568.000,410.700,107.000,27.830,187.200,57.400,17.960,6.235,386.900,120.100,37.220,13.070,baseline
1321.000,377.000,101.900,28.220,1571.000,411.000,107.200,27.880,190.300,57.290,17.960,6.251,387.700,120.400,37.470,13.080,baseline
1328.000,378.900,102.700,28.430,1574.000,412.700,107.600,27.970,187.400,57.310,17.880,6.270,388.900,121.300,37.340,13.150,baseline
1333.000,381.000,103.500,28.590,1577.000,414.100,108.000,28.070,188.200,57.940,18.040,6.276,390.900,121.600,37.670,13.250,baseline
1340.000,382.300,104.000,28.770,1583.000,416.000,108.500,28.200,191.900,57.480,18.070,6.279,392.000,122.200,38.010,13.330,baseline
1348.000,386.000,105.100,29.080,1582.000,415.600,108.900,28.310,188.600,57.880,18.080,6.325,394.200,123.200,38.090,13.440,baseline
1354.000,388.600,105.400,29.300,1591.000,417.400,109.400,28.370,188.000,57.970,18.120,6.346,396.500,123.900,38.430,13.560,baseline
1363.000,389.500,106.800,29.500,1599.000,418.700,109.700,28.490,192.800,57.850,18.230,6.358,399.400,123.900,38.550,13.580,baseline
1364.000,390.000,104.900,29.090,1584.000,414.100,108.300,28.070,191.900,58.010,18.130,6.313,392.300,122.100,37.630,13.190,baseline
1326.000,379.500,102.700,28.300,1574.000,412.900,108.100,27.970,185.600,57.680,17.970,6.266,389.500,121.000,37.430,13.010,baseline
1321.000,377.500,102.600,28.200,1571.000,412.600,107.900,28.020,189.500,57.310,17.980,6.213,387.700,120.700,37.190,12.950,baseline
1316.000,375.800,102.100,28.330,1566.000,412.900,108.000,28.040,188.900,57.540,17.940,6.240,387.800,120.800,37.150,13.020,baseline
1320.000,378.700,102.600,28.410,1576.000,412.500,108.300,28.160,186.000,57.650,17.870,6.247,388.200,120.700,37.160,13.030,baseline
1322.000,380.400,103.300,28.500,1573.000,413.800,108.600,28.170,188.900,57.540,17.940,6.230,389.500,120.700,37.480,13.060,baseline
1327.000,379.900,104.100,28.630,1581.000,414.500,108.700,28.250,191.400,57.340,17.930,6.247,389.700,121.400,37.480,13.160,baseline
1333.000,383.900,104.000,28.810,1578.000,415.100,108.900,28.320,188.100,57.510,17.940,6.266,391.400,121.800,37.610,13.230,baseline
1339.000,384.700,104.600,29.000,1583.000,415.800,109.300,28.360,187.500,57.660,17.970,6.261,392.000,122.200,37.910,13.280,baseline
1343.000,385.100,105.200,29.000,1587.000,417.200,109.300,28.440,193.200,57.490,18.000,6.303,393.400,123.000,38.140,13.390,baseline
1350.000,389.100,105.800,29.220,1589.000,418.400,109.700,28.530,187.800,58.050,18.050,6.299,394.300,123.600,38.310,13.480,baseline
1358.000,390.100,106.600,29.390,1593.000,419.300,109.900,28.630,188.000,57.910,18.170,6.327,395.700,123.900,38.630,13.590,baseline
1365.000,391.600,107.100,29.690,1598.000,420.400,110.300,28.630,191.900,57.940,18.300,6.329,398.700,124.500,38.640,13.590,baseline
1359.000,388.500,105.400,29.030,1581.000,415.300,108.800,28.310,189.900,58.120,18.140,6.304,392.100,122.300,37.770,13.260,baseline
1328.000,382.200,103.700,28.640,1577.000,414.200,108.700,28.230,186.700,57.820,17.960,6.264,391.500,121.700,37.690,13.180,baseline
1326.000,381.100,103.400,28.500,1573.000,414.300,108.500,28.230,189.800,57.530,17.940,6.229,389.500,121.400,37.570,13.090,baseline
1324.000,380.700,103.600,28.670,1577.000,414.500,108.800,28.210,189.200,57.560,17.940,6.251,389.400,121.700,37.500,13.160,baseline
1327.000,382.300,103.800,28.580,1574.000,414.700,108.900,28.290,186.200,57.630,17.930,6.253,390.200,121.600,37.710,13.150,baseline
1330.000,382.200,103.900,28.680,1577.000,414.900,108.900,28.320,189.300,57.590,17.990,6.241,391.600,122.000,37.760,13.210,baseline
1336.000,384.100,104.500,28.960,1584.000,416.900,109.200,28.370,189.600,57.510,18.000,6.264,392.600,122.300,37.970,13.310,baseline
1341.000,385.100,105.100,28.990,1581.000,417.200,109.300,28.410,187.100,57.680,17.960,6.275,393.500,122.600,38.050,13.380,baseline
1346.000,388.100,105.300,29.190,1583.000,418.300,109.400,28.480,188.900,57.780,18.110,6.284,394.700,123.200,38.340,13.470,baseline
1353.000,389.100,106.200,29.280,1587.000,419.200,109.800,28.550,190.100,57.850,18.170,6.278,395.800,123.700,38.420,13.560,baseline
1359.000,390.200,106.300,29.470,1592.000,420.100,110.100,28.650,186.800,58.080,18.110,6.310,396.800,124.400,38.560,13.620,baseline
1367.000,394.000,107.300,29.700,1597.000,420.400,110.300,28.700,189.400,58.120,18.170,6.319,399.900,125.000,38.940,13.660,baseline
1367.000,391.400,106.100,29.160,1587.000,416.200,109.000,28.200,195.200,57.590,18.140,6.272,393.900,122.900,37.940,13.230,baseline
1330.000,382.800,103.900,28.580,1577.000,414.700,108.500,28.170,186.900,57.470,17.940,6.214,390.400,121.600,37.540,13.130,baseline
1327.000,381.800,102.900,28.320,1574.000,414.100,108.200,28.110,186.600,57.050,17.840,6.200,389.400,121.300,37.410,13.010,baseline
1321.000,380.200,102.900,28.390,1576.000,414.300,108.300,28.080,190.900,57.100,17.870,6.190,389.200,120.900,37.410,13.030,baseline
1326.000,380.400,103.200,28.420,1576.000,413.900,108.300,28.200,188.600,57.010,17.780,6.198,389.000,121.100,37.480,13.100,baseline
1326.000,382.100,103.500,28.520,1579.000,414.900,108.500,28.200,186.200,57.090,17.850,6.191,389.400,120.900,37.540,13.160,baseline
1333.000,382.800,104.500,28.600,1578.000,416.500,108.600,28.260,188.200,57.130,17.900,6.213,390.900,121.500,37.760,13.180,baseline
1338.000,385.500,104.400,28.700,1580.000,416.400,108.900,28.310,187.700,57.350,17.890,6.223,391.800,121.900,37.830,13.280,baseline
1343.000,386.700,104.700,28.900,1585.000,417.500,109.300,28.360,187.200,57.240,17.860,6.221,392.800,122.200,37.890,13.310,baseline
1348.000,389.100,105.300,29.130,1586.000,418.200,109.500,28.400,189.600,57.540,17.940,6.256,393.700,122.400,38.150,13.400,baseline
1355.000,389.700,106.000,29.260,1592.000,418.100,109.700,28.510,189.100,57.710,17.990,6.258,394.200,123.300,38.280,13.530,baseline
1361.000,393.400,106.800,29.450,1593.000,419.300,110.000,28.550,185.500,57.660,18.030,6.276,396.100,123.700,38.630,13.630,baseline
1368.000,393.400,106.800,29.660,1598.000,420.000,110.100,28.610,189.900,57.460,18.070,6.290,398.700,124.400,38.710,13.610,baseline
1368.000,391.600,106.000,29.080,1586.000,416.400,108.600,28.180,193.800,57.650,17.990,6.237,393.200,121.700,37.760,13.230,baseline
1329.000,381.300,103.600,28.470,1575.000,414.300,108.300,28.130,186.000,57.210,17.790,6.195,388.900,120.600,37.450,13.060,baseline
1324.000,379.500,102.600,28.320,1571.000,411.900,108.000,28.080,187.000,57.100,17.850,6.166,387.700,119.800,37.190,12.930,baseline
1317.000,379.700,102.600,28.320,1569.000,412.100,107.900,28.080,190.500,57.130,17.820,6.171,387.500,119.800,37.150,13.010,baseline
1319.000,380.700,103.200,28.340,1566.000,413.400,108.000,28.150,184.500,57.070,17.730,6.187,386.100,119.900,37.180,13.010,baseline
1318.000,380.100,103.200,28.420,1571.000,413.200,108.100,28.130,186.000,56.950,17.740,6.192,387.000,119.600,37.240,13.050,baseline
1321.000,379.400,103.500,28.500,1570.000,412.700,108.200,28.150,188.900,56.730,17.870,6.169,386.300,119.700,37.320,13.070,baseline
1323.000,380.700,103.600,28.650,1566.000,413.200,108.200,28.100,185.800,56.610,17.690,6.178,388.900,120.100,37.390,13.180,baseline
1324.000,381.700,103.600,28.650,1573.000,412.800,108.200,28.190,183.800,57.060,17.860,6.229,390.900,120.900,37.740,13.240,baseline
1325.000,382.000,103.900,28.810,1573.000,412.600,108.400,28.270,187.800,57.110,18.000,6.263,393.100,121.400,37.970,13.410,baseline
1330.000,383.900,104.200,28.910,1573.000,413.200,108.300,28.240,188.000,57.170,17.970,6.281,393.800,122.100,38.180,13.530,baseline
1334.000,385.900,104.900,29.130,1574.000,414.600,108.600,28.270,184.100,57.510,17.980,6.296,394.700,122.600,38.370,13.610,baseline
1342.000,387.900,105.600,29.280,1579.000,416.200,109.100,28.380,187.200,57.170,18.010,6.303,396.400,123.800,38.750,13.720,baseline
1345.000,389.100,105.000,28.960,1574.000,413.300,108.200,28.140,185.400,57.120,17.870,6.244,390.300,121.200,37.720,13.260,baseline
1313.000,379.400,103.100,28.600,1563.000,413.300,108.700,28.200,179.100,56.710,17.640,6.148,385.300,119.300,37.130,13.070,baseline
1312.000,381.200,103.900,28.650,1564.000,413.500,109.000,28.200,183.000,56.300,17.610,6.094,382.400,118.800,37.000,12.920,baseline
1303.000,378.900,103.500,28.720,1557.000,413.500,109.000,28.290,183.100,55.970,17.560,6.096,382.000,118.300,36.870,13.000,baseline
1306.000,379.800,104.000,28.910,1558.000,412.700,109.000,28.340,178.200,55.970,17.470,6.097,382.400,118.500,36.870,12.990,baseline
1304.000,378.200,103.700,28.940,1560.000,413.800,108.600,28.460,180.600,56.140,17.540,6.103,382.000,118.600,37.000,13.020,baseline
1307.000,379.900,104.000,29.120,1561.000,413.200,108.900,28.460,182.800,55.550,17.560,6.101,382.600,118.600,37.170,13.070,baseline
1312.000,380.900,104.100,29.260,1562.000,414.000,108.900,28.590,179.700,56.080,17.510,6.126,383.300,119.000,37.260,13.170,baseline
1316.000,383.000,104.800,29.370,1566.000,414.600,109.200,28.600,178.900,56.280,17.540,6.118,383.900,119.400,37.370,13.260,baseline
1319.000,383.200,105.300,29.520,1564.000,414.900,109.100,28.690,181.800,56.060,17.600,6.139,385.100,120.300,37.740,13.320,baseline
1324.000,386.700,105.400,29.630,1569.000,417.200,109.400,28.740,179.900,56.180,17.610,6.185,387.600,120.700,37.810,13.450,baseline
1330.000,389.200,106.200,29.800,1572.000,417.000,109.700,28.660,181.200,56.540,17.660,6.177,388.800,121.100,37.800,13.430,baseline
1315.000,380.100,103.900,29.090,1561.000,412.300,108.400,28.450,182.900,56.060,17.570,6.136,383.800,119.000,37.020,12.990,baseline
1298.000,376.300,103.300,28.910,1555.000,410.900,108.000,28.350,183.400,55.820,17.450,6.077,381.500,118.400,36.690,12.970,baseline
1292.000,373.900,102.700,28.790,1547.000,408.800,107.600,28.290,177.900,56.120,17.390,6.081,380.000,118.100,36.770,12.910,baseline
1292.000,373.700,102.400,28.830,1549.000,409.900,107.600,28.290,180.300,55.830,17.480,6.066,381.000,117.900,36.830,12.940,baseline
1291.000,373.400,102.500,28.860,1548.000,408.400,107.300,28.340,180.200,55.780,17.460,6.072,380.100,117.900,36.660,13.010,baseline
1293.000,376.400,102.400,28.950,1552.000,409.500,107.800,28.400,179.000,56.310,17.450,6.082,381.600,118.400,36.840,13.060,baseline
1297.000,374.700,103.100,29.120,1554.000,410.100,107.700,28.450,179.100,55.750,17.510,6.101,381.400,118.600,37.230,13.130,baseline
1301.000,375.900,103.400,29.140,1550.000,409.800,107.800,28.510,184.000,55.700,17.600,6.150,383.600,119.600,37.240,13.250,baseline
1304.000,377.500,103.800,29.340,1555.000,411.500,107.900,28.530,180.400,56.240,17.530,6.140,384.100,120.000,37.500,13.340,baseline
1310.000,378.100,104.000,29.450,1558.000,412.200,107.900,28.650,180.600,56.350,17.640,6.165,386.500,120.600,37.700,13.380,baseline
1317.000,379.500,104.400,29.700,1563.000,413.300,108.500,28.710,184.300,55.870,17.710,6.181,387.300,121.200,37.960,13.530,baseline
1315.000,379.500,103.100,29.210,1554.000,409.600,107.400,28.330,182.700,56.390,17.600,6.138,383.100,119.600,36.970,13.080,baseline
1289.000,371.600,101.600,28.800,1546.000,407.700,107.000,28.280,180.200,55.770,17.470,6.066,379.700,118.100,36.690,12.910,baseline
1285.000,369.900,101.400,28.630,1547.000,407.500,106.700,28.190,184.400,55.710,17.480,6.045,378.200,117.700,36.500,12.840,baseline
1281.000,371.000,101.100,28.630,1544.000,407.500,107.100,28.260,181.100,55.570,17.330,6.065,376.600,117.800,36.490,12.870,baseline
1284.000,371.400,101.700,28.540,1547.000,407.700,106.900,28.240,179.300,55.880,17.400,6.071,377.300,117.700,36.530,12.850,baseline
1285.000,371.200,101.600,28.760,1546.000,407.400,107.000,28.300,182.800,55.690,17.480,6.084,378.900,117.400,36.630,12.920,baseline
1290.000,373.400,101.900,28.830,1545.000,409.400,107.300,28.390,181.300,56.110,17.440,6.091,378.500,118.600,36.800,12.990,baseline
1295.000,375.600,102.200,28.970,1553.000,409.700,107.600,28.430,179.300,56.330,17.510,6.122,379.400,118.700,36.920,13.050,baseline
1299.000,375.900,102.800,29.090,1554.000,409.900,107.600,28.490,182.900,55.820,17.470,6.115,381.900,119.000,37.220,13.140,baseline
1304.000,377.000,103.400,29.190,1555.000,410.100,108.000,28.560,182.100,56.190,17.600,6.149,382.900,120.100,37.430,13.250,baseline
1309.000,378.700,103.300,29.360,1558.000,411.800,108.100,28.520,179.400,56.220,17.610,6.153,383.900,120.700,37.550,13.370,baseline
1316.000,379.400,104.300,29.500,1562.000,412.900,108.400,28.680,182.300,56.360,17.630,6.182,385.900,121.000,38.060,13.450,baseline
1322.000,382.200,104.700,29.660,1564.000,412.700,107.800,28.470,183.400,56.370,17.720,6.186,387.400,120.900,37.640,13.290,baseline
1300.000,374.900,102.400,28.820,1550.000,408.100,107.200,28.310,180.400,56.230,17.620,6.128,380.000,118.700,36.750,12.910,baseline
1290.000,373.600,101.400,28.580,1548.000,409.100,106.800,28.320,181.700,56.060,17.440,6.081,378.500,117.700,36.680,12.870,baseline
1288.000,371.700,101.400,28.460,1547.000,407.800,107.100,28.280,183.800,55.580,17.390,6.081,377.300,118.000,36.480,12.810,baseline
1289.000,372.500,101.700,28.530,1547.000,408.800,107.200,28.270,180.600,55.960,17.360,6.092,377.500,118.000,36.600,12.890,baseline
1289.000,372.400,101.800,28.550,1550.000,409.000,107.300,28.330,179.100,55.800,17.510,6.102,377.900,118.000,36.660,12.900,baseline
1293.000,372.500,102.100,28.610,1549.000,409.000,107.200,28.340,181.300,55.810,17.510,6.089,379.800,118.700,36.950,12.980,baseline
1298.000,373.900,102.200,28.820,1553.000,409.700,107.600,28.390,180.400,55.890,17.470,6.118,380.300,118.800,37.060,13.040,baseline
1303.000,375.500,102.500,28.950,1558.000,410.800,107.900,28.430,179.100,55.980,17.580,6.130,381.300,119.100,37.190,13.080,baseline
1307.000,378.700,103.400,28.990,1556.000,412.000,108.000,28.510,182.000,55.940,17.600,6.128,383.500,119.600,37.400,13.170,baseline
1312.000,380.400,103.800,29.130,1559.000,411.600,108.200,28.560,183.100,56.170,17.630,6.148,383.700,120.300,37.530,13.320,baseline
1318.000,381.600,104.100,29.260,1563.000,413.200,108.300,28.600,180.100,56.350,17.600,6.166,385.500,120.600,37.880,13.380,baseline
1323.000,382.800,105.100,29.500,1568.000,414.600,109.000,28.660,181.900,56.510,17.690,6.183,388.600,121.500,38.150,13.470,baseline
1330.000,384.100,104.900,29.460,1566.000,412.800,108.300,28.450,183.200,56.470,17.710,6.200,386.900,120.900,37.580,13.200,baseline
1303.000,375.700,102.300,28.640,1555.000,409.700,107.500,28.340,181.600,56.390,17.520,6.102,380.600,118.700,36.840,12.980,baseline
1297.000,375.800,102.400,28.540,1553.000,410.400,107.300,28.280,181.100,55.780,17.500,6.087,380.000,118.400,36.720,12.870,baseline
1294.000,374.900,102.000,28.390,1547.000,409.500,107.400,28.250,184.500,55.630,17.460,6.084,379.100,118.400,36.700,12.860,baseline
1296.000,375.300,102.000,28.600,1552.000,410.100,107.500,28.310,180.600,56.140,17.450,6.085,379.500,118.400,36.800,12.910,baseline
1297.000,374.500,102.300,28.620,1554.000,409.600,107.700,28.380,180.400,56.040,17.530,6.099,381.100,118.400,36.840,12.880,baseline
1301.000,378.400,102.500,28.680,1557.000,411.700,107.800,28.440,183.600,55.650,17.540,6.087,380.700,119.000,37.060,13.030,baseline
1306.000,379.200,102.900,28.750,1557.000,412.600,108.000,28.450,181.000,56.120,17.570,6.123,382.500,119.500,37.130,13.100,baseline
1311.000,379.900,103.200,28.940,1564.000,412.900,108.100,28.530,182.200,56.330,17.600,6.140,383.300,119.800,37.340,13.150,baseline
1315.000,381.200,104.100,29.140,1564.000,413.100,108.400,28.590,184.000,55.840,17.620,6.146,383.700,120.200,37.560,13.220,baseline
1320.000,383.300,104.400,29.230,1569.000,414.700,108.600,28.670,182.500,56.370,17.670,6.167,386.300,121.000,37.770,13.350,baseline
1325.000,384.200,104.800,29.370,1571.000,415.300,108.800,28.710,182.600,56.520,17.740,6.180,387.900,121.200,38.080,13.420,baseline
1331.000,385.500,105.400,29.560,1571.000,416.200,109.200,28.850,185.600,56.160,17.750,6.203,389.300,122.200,38.420,13.510,baseline
1337.000,388.000,105.800,29.520,1570.000,415.200,108.600,28.570,184.700,56.660,17.780,6.221,387.600,121.300,37.740,13.240,baseline
1310.000,380.200,102.600,28.790,1561.000,412.200,108.000,28.450,180.100,56.440,17.580,6.111,381.900,118.800,36.890,13.000,baseline
1304.000,378.000,103.200,28.640,1555.000,410.700,107.800,28.350,183.300,55.630,17.460,6.087,380.200,118.600,36.800,12.940,baseline
1299.000,375.500,102.400,28.580,1555.000,410.700,107.900,28.420,182.700,55.820,17.470,6.082,379.700,118.100,36.830,12.920,baseline
1301.000,377.200,102.600,28.720,1557.000,411.600,108.100,28.460,178.900,56.010,17.420,6.090,379.800,118.100,36.850,12.910,baseline
1301.000,377.900,102.700,28.720,1558.000,411.600,108.000,28.500,183.100,55.620,17.440,6.100,380.800,118.200,36.910,12.930,baseline
1304.000,377.900,102.600,28.880,1557.000,412.000,108.200,28.580,183.200,55.740,17.470,6.112,382.800,118.600,36.960,13.050,baseline
1309.000,380.500,103.500,29.030,1561.000,412.700,108.600,28.630,180.100,55.820,17.450,6.122,381.600,119.200,37.100,13.140,baseline
1312.000,380.100,103.700,29.100,1560.000,413.300,108.500,28.620,181.500,55.970,17.600,6.119,384.000,119.600,37.420,13.140,baseline
1315.000,380.900,104.200,29.190,1565.000,413.100,108.700,28.730,186.500,55.650,17.620,6.133,384.700,119.900,37.480,13.240,baseline
1319.000,382.600,104.700,29.350,1566.000,415.300,108.900,28.840,182.400,56.350,17.620,6.173,384.600,120.600,37.780,13.360,baseline
1324.000,384.800,104.900,29.480,1568.000,414.700,109.100,28.860,180.300,56.110,17.660,6.185,386.900,120.900,37.930,13.460,baseline
1330.000,385.500,105.500,29.710,1573.000,416.200,109.400,28.980,186.500,56.290,17.740,6.194,388.800,121.500,38.170,13.500,baseline
1333.000,384.900,105.200,29.390,1565.000,413.800,108.400,28.620,183.900,56.320,17.680,6.187,385.900,120.000,37.410,13.080,baseline
1303.000,378.300,102.800,28.840,1553.000,412.000,107.900,28.560,181.600,55.880,17.480,6.098,382.200,118.500,36.860,12.960,baseline
1301.000,376.700,102.600,28.780,1556.000,411.500,108.000,28.560,183.700,55.380,17.490,6.110,380.900,117.900,36.860,12.890,baseline
1297.000,375.200,102.500,28.800,1551.000,411.700,108.000,28.580,181.700,55.610,17.420,6.108,379.800,118.100,36.830,12.960,baseline
1299.000,377.200,102.500,28.800,1551.000,412.300,108.100,28.620,179.400,55.910,17.340,6.099,379.000,117.500,36.770,12.930,baseline
1298.000,376.400,103.100,28.820,1558.000,411.000,108.300,28.620,183.900,55.410,17.440,6.071,380.400,117.700,36.950,12.960,baseline
1302.000,378.100,103.100,28.970,1557.000,412.600,108.100,28.720,185.100,55.820,17.470,6.098,380.800,118.300,36.870,13.040,baseline
1305.000,379.400,103.300,29.130,1559.000,413.500,108.500,28.750,180.500,55.950,17.440,6.118,381.200,118.800,37.070,13.130,baseline
1308.000,379.700,103.900,29.200,1556.000,414.100,108.500,28.800,183.000,55.650,17.470,6.121,381.900,118.900,37.320,13.190,baseline
1312.000,381.800,104.000,29.300,1567.000,414.100,108.800,28.820,184.800,55.750,17.480,6.106,383.200,119.400,37.360,13.260,baseline
1316.000,382.900,104.500,29.460,1563.000,414.500,109.100,28.890,181.600,55.940,17.450,6.140,384.400,119.600,37.510,13.350,baseline
1322.000,385.000,105.400,29.650,1565.000,415.000,109.000,28.930,183.400,55.760,17.530,6.168,385.600,120.000,37.870,13.440,baseline
1326.000,382.800,104.700,29.310,1558.000,413.200,108.300,28.650,185.000,56.000,17.540,6.122,383.000,118.700,36.930,12.990,baseline
1296.000,376.300,102.600,28.800,1549.000,411.400,108.200,28.580,181.600,55.640,17.310,6.054,377.200,116.900,36.460,12.820,baseline
1291.000,374.000,102.100,28.670,1555.000,410.000,107.900,28.500,179.200,55.490,17.270,6.029,377.000,116.400,36.240,12.710,baseline
1286.000,372.900,101.900,28.540,1549.000,411.100,107.700,28.480,183.800,55.300,17.240,5.996,376.800,116.300,36.350,12.730,baseline
1287.000,374.400,101.900,28.640,1547.000,411.000,107.900,28.520,181.300,55.160,17.230,6.027,376.400,116.500,35.980,12.740,baseline
1287.000,371.900,102.100,28.580,1546.000,411.700,108.000,28.520,179.700,55.130,17.200,6.019,376.700,116.600,36.250,12.760,baseline
1292.000,373.900,102.600,28.710,1548.000,412.900,108.200,28.580,182.500,55.220,17.310,6.038,377.700,116.800,36.440,12.800,baseline
1295.000,376.300,103.000,28.830,1553.000,412.700,108.300,28.630,182.500,55.300,17.280,6.058,377.900,117.400,36.560,12.940,baseline
1299.000,377.300,103.300,28.850,1553.000,412.900,108.500,28.640,179.900,55.250,17.270,6.064,378.800,117.600,36.750,12.990,baseline
1303.000,379.800,103.700,28.990,1555.000,413.700,109.100,28.700,182.800,55.350,17.390,6.065,380.800,118.400,36.880,13.020,baseline
1307.000,379.300,104.100,29.180,1561.000,413.700,109.000,28.780,183.100,55.640,17.430,6.102,381.800,118.800,37.060,13.180,baseline
1313.000,381.900,104.500,29.280,1562.000,415.500,109.300,28.820,182.100,55.790,17.430,6.109,383.400,119.300,37.330,13.240,baseline
1319.000,383.300,104.900,29.440,1568.000,415.900,109.600,28.780,181.600,55.870,17.460,6.135,385.400,119.700,37.560,13.290,baseline
1322.000,383.700,105.000,29.280,1563.000,413.500,108.600,28.580,186.200,55.880,17.470,6.100,382.300,118.600,36.720,12.930,baseline
1293.000,375.200,102.500,28.540,1554.000,411.300,108.400,28.470,180.800,55.540,17.170,6.028,376.500,116.400,36.210,12.740,baseline
1288.000,373.800,102.000,28.400,1549.000,411.400,108.200,28.380,181.800,55.550,17.190,6.017,375.500,116.000,36.040,12.630,baseline
1284.000,373.600,101.800,28.360,1548.000,411.500,108.100,28.430,182.800,55.070,17.270,6.006,374.700,115.800,35.990,12.680,baseline
1286.000,374.700,102.000,28.320,1546.000,411.700,107.600,28.240,180.500,55.450,17.140,5.994,374.100,116.000,36.040,12.650,baseline
1285.000,372.700,101.400,28.220,1551.000,411.200,107.600,28.230,180.400,55.370,17.210,6.020,375.500,116.400,36.170,12.700,baseline
1290.000,373.400,101.900,28.400,1551.000,412.600,107.900,28.400,185.800,55.290,17.330,6.001,376.400,116.800,36.180,12.790,baseline
1294.000,375.500,101.900,28.520,1550.000,412.800,108.100,28.490,181.000,55.480,17.270,6.039,376.400,117.200,36.450,12.890,baseline
1298.000,377.700,102.800,28.640,1554.000,413.800,108.500,28.440,179.800,55.440,17.270,6.068,378.300,117.500,36.620,12.910,baseline
1301.000,378.000,103.200,28.700,1555.000,414.600,108.500,28.430,183.300,55.510,17.340,6.075,379.200,118.100,36.870,13.010,baseline
1306.000,379.600,103.400,28.860,1560.000,415.200,108.600,28.490,183.000,55.680,17.380,6.097,381.900,118.900,36.850,13.130,baseline
1311.000,379.800,103.600,28.960,1559.000,416.600,108.900,28.580,182.400,55.900,17.400,6.113,383.700,118.900,37.250,13.190,baseline
1318.000,384.500,104.400,29.180,1571.000,416.500,109.500,28.680,185.100,55.700,17.490,6.136,384.800,119.700,37.400,13.280,baseline
1324.000,385.000,105.300,29.250,1567.000,416.600,108.700,28.510,183.400,55.940,17.560,6.145,384.400,120.000,37.180,13.120,baseline
1302.000,378.300,102.700,28.440,1557.000,413.300,108.100,28.290,181.700,56.010,17.370,6.063,377.600,117.600,36.520,12.790,baseline
1293.000,373.900,101.800,28.280,1553.000,413.500,107.900,28.200,182.400,55.360,17.330,6.028,376.900,117.200,36.270,12.730,baseline
1290.000,374.600,101.900,28.190,1547.000,412.700,108.000,28.230,185.000,55.550,17.240,6.019,374.800,116.500,36.050,12.670,baseline
1290.000,375.700,102.500,28.220,1550.000,413.100,108.100,28.270,179.400,55.560,17.190,6.015,375.200,117.000,36.100,12.720,baseline
1291.000,374.100,101.700,28.270,1552.000,413.200,108.300,28.290,180.800,55.350,17.230,6.048,375.900,116.900,36.220,12.700,baseline
1294.000,375.700,102.700,28.340,1553.000,414.300,108.500,28.350,183.100,55.140,17.320,6.017,376.800,117.300,36.350,12.800,baseline
1300.000,378.700,103.100,28.520,1556.000,415.300,108.600,28.400,180.700,55.490,17.290,6.057,376.500,117.400,36.430,12.880,baseline
1304.000,378.200,103.400,28.640,1561.000,415.600,108.700,28.460,181.500,55.490,17.290,6.064,378.500,117.800,36.830,12.910,baseline
1308.000,380.100,103.600,28.780,1562.000,415.400,109.000,28.560,184.200,55.430,17.420,6.094,380.300,118.100,36.900,13.000,baseline
1313.000,381.200,104.400,28.950,1564.000,416.700,109.300,28.620,181.700,55.380,17.370,6.110,381.000,119.100,37.070,13.140,baseline
1319.000,384.400,104.400,29.180,1569.000,417.500,109.700,28.680,180.100,55.980,17.450,6.109,383.100,119.700,37.400,13.230,baseline
1324.000,384.800,105.400,29.260,1569.000,418.200,109.800,28.700,185.400,55.870,17.550,6.127,384.700,120.400,37.690,13.300,baseline
1330.000,387.900,106.000,29.370,1572.000,418.100,109.500,28.540,184.200,55.870,17.530,6.150,384.500,120.100,37.340,13.160,baseline
1309.000,379.200,103.400,28.650,1561.000,415.000,108.700,28.420,181.100,55.970,17.290,6.072,378.600,118.000,36.500,12.890,baseline
1300.000,377.000,102.900,28.560,1555.000,413.600,108.700,28.440,182.300,55.180,17.380,6.012,377.900,117.300,36.600,12.780,baseline
1297.000,377.200,102.900,28.380,1556.000,414.500,108.400,28.400,182.800,55.120,17.300,6.040,376.500,117.100,36.410,12.780,baseline
1300.000,378.300,103.400,28.490,1557.000,416.200,108.700,28.410,180.200,55.440,17.300,6.036,376.900,117.600,36.420,12.800,baseline
1301.000,377.900,102.800,28.480,1556.000,415.000,108.800,28.380,180.700,55.070,17.290,6.037,376.800,117.600,36.600,12.840,baseline
1303.000,379.100,103.600,28.690,1559.000,415.900,109.100,28.500,180.700,55.110,17.310,6.027,378.200,117.900,36.680,12.940,baseline
1308.000,379.900,103.900,28.820,1560.000,416.700,109.200,28.580,181.100,55.170,17.310,6.058,378.500,118.600,36.840,13.030,baseline
1312.000,382.200,104.300,28.880,1564.000,417.100,109.500,28.590,180.700,55.320,17.340,6.071,381.100,118.900,37.030,13.040,baseline
1316.000,382.000,104.400,29.020,1566.000,418.000,109.600,28.630,185.100,55.530,17.430,6.079,381.200,119.200,37.160,13.150,baseline
1321.000,385.600,105.100,29.160,1565.000,417.300,109.800,28.700,181.200,55.640,17.430,6.086,381.400,119.600,37.310,13.250,baseline
1324.000,386.600,105.800,29.330,1569.000,417.300,109.900,28.760,183.200,55.890,17.460,6.092,384.500,120.200,37.610,13.300,baseline
1330.000,387.400,106.300,29.470,1572.000,419.100,110.000,28.710,184.800,55.670,17.510,6.097,385.800,120.700,37.650,13.340,baseline
1321.000,383.400,104.800,28.900,1560.000,415.000,109.000,28.510,184.600,55.730,17.370,6.061,380.500,119.100,36.880,12.990,baseline
1303.000,379.100,103.600,28.720,1559.000,415.000,108.900,28.440,180.500,55.630,17.290,6.055,378.900,118.300,36.740,12.910,baseline
1300.000,378.800,103.400,28.610,1554.000,414.200,108.700,28.410,182.800,55.110,17.320,6.003,378.000,118.400,36.680,12.890,baseline
1300.000,377.700,103.200,28.650,1556.000,414.300,108.700,28.490,182.700,55.290,17.230,6.033,377.400,118.200,36.760,12.910,baseline
1300.000,378.500,103.700,28.760,1556.000,414.900,108.900,28.440,179.100,55.390,17.230,6.022,378.400,118.100,36.750,12.920,baseline
1302.000,380.200,103.800,28.810,1556.000,414.700,109.000,28.500,181.000,55.120,17.310,5.998,380.500,118.500,36.990,13.000,baseline
1306.000,381.100,104.000,28.940,1558.000,414.900,109.100,28.570,183.000,55.020,17.350,6.029,380.500,119.000,37.200,13.120,baseline
1310.000,382.100,104.200,29.110,1559.000,415.200,109.200,28.550,179.900,55.860,17.280,6.064,380.900,119.200,37.350,13.150,baseline
1313.000,383.400,104.700,29.130,1561.000,415.100,109.400,28.630,183.000,55.480,17.360,6.055,383.000,119.700,37.550,13.210,baseline
1317.000,383.500,105.500,29.360,1565.000,417.100,109.600,28.620,184.500,55.230,17.400,6.051,383.300,120.200,37.590,13.290,baseline
1322.000,387.100,105.800,29.430,1567.000,417.500,109.800,28.760,180.600,55.800,17.390,6.083,385.800,120.800,37.760,13.410,baseline
1326.000,388.000,106.800,29.680,1570.000,417.700,110.100,28.780,183.000,55.720,17.390,6.075,387.400,121.300,38.060,13.500,baseline
1331.000,388.400,106.600,29.570,1565.000,416.600,109.200,28.520,186.400,55.360,17.420,6.093,385.000,120.200,37.550,13.190,baseline
1303.000,378.300,104.100,28.930,1554.000,414.500,108.600,28.390,180.700,55.190,17.200,6.019,380.300,118.400,36.900,13.000,baseline
1296.000,378.100,103.300,28.800,1551.000,414.100,108.600,28.360,181.600,55.160,17.250,5.999,378.600,118.100,36.860,12.910,baseline
1292.000,375.700,103.100,28.670,1549.000,413.400,108.400,28.330,185.700,54.770,17.170,5.956,378.300,118.000,36.760,12.870,baseline
1292.000,375.700,103.400,28.720,1550.000,413.400,108.300,28.340,180.400,54.970,17.210,5.984,378.000,118.100,36.800,12.940,baseline
1292.000,376.200,103.600,28.770,1548.000,413.300,108.600,28.370,178.100,55.100,17.130,5.983,379.200,117.800,36.810,12.950,baseline
1295.000,378.800,103.600,28.770,1551.000,413.700,108.400,28.410,183.000,54.970,17.220,6.012,379.400,118.200,37.040,12.990,baseline
1298.000,378.000,103.800,28.920,1553.000,413.900,108.400,28.470,182.600,55.040,17.220,5.993,381.100,118.700,37.060,13.090,baseline
1301.000,380.400,104.200,29.070,1557.000,414.100,108.700,28.500,177.900,55.580,17.240,6.007,381.700,118.800,37.390,13.130,baseline
1305.000,379.700,104.800,29.200,1558.000,415.900,109.000,28.510,180.600,55.010,17.260,6.018,383.700,119.200,37.510,13.210,baseline
1310.000,382.200,105.100,29.340,1561.000,415.800,109.000,28.600,184.800,55.400,17.350,6.010,383.400,120.300,37.560,13.310,baseline
1315.000,385.200,105.500,29.490,1560.000,416.800,109.400,28.630,179.900,55.730,17.340,6.049,385.800,120.800,37.710,13.420,baseline
1319.000,384.700,106.200,29.740,1564.000,417.600,109.500,28.670,182.300,55.360,17.320,6.052,386.400,120.800,37.970,13.500,baseline
1325.000,386.300,106.500,29.720,1569.000,416.700,109.000,28.450,184.100,55.290,17.410,6.063,387.000,120.800,37.750,13.280,baseline
1301.000,378.700,104.000,28.940,1551.000,414.100,108.300,28.350,180.700,55.560,17.170,5.985,379.800,118.600,36.930,12.960,baseline
1291.000,376.100,103.600,28.850,1550.000,413.200,108.300,28.310,180.500,55.050,17.120,5.960,379.200,117.700,36.810,12.880,baseline
1286.000,375.600,102.600,28.680,1549.000,412.600,108.100,28.250,182.400,54.650,17.120,5.940,377.500,117.500,36.640,12.870,baseline
1287.000,374.100,102.900,28.720,1545.000,412.900,108.300,28.240,180.300,55.330,17.070,5.948,377.000,117.400,36.670,12.880,baseline
1287.000,376.100,103.500,28.820,1547.000,413.000,108.100,28.270,179.000,54.870,17.070,5.947,378.400,117.900,36.630,12.910,baseline
1290.000,376.500,103.600,28.880,1551.000,413.100,108.400,28.370,182.500,54.740,17.090,5.938,378.800,118.000,36.880,12.990,baseline
1294.000,377.600,103.900,29.050,1551.000,414.100,108.800,28.370,180.900,54.950,17.110,5.974,378.400,118.700,36.870,13.090,baseline
1299.000,379.300,104.200,29.090,1551.000,415.100,108.500,28.400,179.900,55.080,17.160,5.961,379.800,119.000,37.240,13.100,baseline
1303.000,379.900,104.300,29.260,1554.000,415.900,108.900,28.420,184.200,55.090,17.220,5.995,381.400,119.500,37.440,13.220,baseline
1308.000,381.000,105.100,29.420,1560.000,417.300,108.900,28.540,181.800,55.010,17.200,5.990,382.000,120.100,37.640,13.280,baseline
1313.000,384.800,105.200,29.500,1563.000,417.400,109.200,28.560,179.000,55.540,17.220,6.022,383.000,120.600,37.760,13.340,baseline
1318.000,386.500,105.900,29.670,1566.000,417.600,109.500,28.630,183.000,55.550,17.330,6.023,385.000,120.900,37.990,13.440,baseline
1324.000,386.000,106.700,29.820,1567.000,418.100,109.200,28.490,182.700,55.590,17.410,6.019,386.700,121.600,37.930,13.360,baseline
1307.000,379.800,104.400,29.030,1552.000,414.200,108.500,28.270,181.100,55.490,17.190,5.989,380.200,118.700,37.010,13.010,baseline
1294.000,377.000,103.200,28.930,1552.000,413.900,108.400,28.240,181.400,55.010,17.100,5.947,379.100,118.300,36.730,12.890,baseline
1291.000,377.200,103.100,28.720,1549.000,413.600,108.100,28.150,182.600,55.060,17.160,5.941,377.900,117.700,36.730,12.880,baseline
1292.000,378.700,103.100,28.830,1547.000,413.300,107.900,28.210,178.900,54.940,17.060,5.961,376.000,117.800,36.680,12.900,baseline
1292.000,378.300,103.200,28.750,1551.000,413.900,108.400,28.250,178.700,54.880,17.080,5.940,377.100,117.900,36.820,12.880,baseline
1294.000,377.400,103.400,28.900,1550.000,414.100,108.400,28.270,182.300,54.610,17.110,5.943,378.800,118.100,36.920,12.930,baseline
1300.000,380.300,104.100,29.080,1556.000,414.700,108.600,28.330,181.000,55.040,17.100,5.969,378.200,118.800,36.980,13.060,baseline
1304.000,381.400,104.500,29.170,1559.000,416.500,108.800,28.370,179.100,55.540,17.130,5.977,379.300,119.200,37.210,13.060,baseline
1309.000,382.500,104.900,29.290,1557.000,417.300,108.800,28.380,182.300,55.150,17.230,5.964,381.200,119.400,37.290,13.160,baseline
1313.000,384.000,105.100,29.440,1563.000,418.200,108.900,28.470,181.600,55.340,17.160,6.004,381.900,119.900,37.500,13.250,baseline
1318.000,384.800,105.900,29.640,1565.000,417.900,109.400,28.470,179.400,55.550,17.210,6.019,383.800,120.500,37.630,13.290,baseline
1323.000,387.100,106.100,29.750,1567.000,419.600,109.500,28.600,183.900,55.060,17.270,6.015,385.700,121.000,37.880,13.410,baseline
1330.000,390.000,106.800,29.980,1571.000,419.800,109.800,28.570,181.500,55.530,17.320,6.050,386.600,121.400,38.030,13.480,baseline
1324.000,387.300,105.700,29.360,1559.000,415.900,108.700,28.230,179.600,55.640,17.210,6.011,382.200,119.500,37.120,13.020,baseline
1302.000,379.000,104.200,29.010,1551.000,414.600,108.500,28.210,183.000,54.770,17.160,5.948,379.400,118.600,37.050,12.940,baseline
1302.000,382.100,103.700,28.930,1556.000,414.800,108.400,28.180,184.600,54.940,17.120,5.943,378.200,118.600,36.810,12.880,baseline
1298.000,380.700,104.100,28.920,1551.000,414.100,108.400,28.210,177.300,54.990,17.040,5.919,378.500,118.600,36.830,12.920,baseline
1301.000,380.400,103.800,28.900,1554.000,414.400,108.400,28.250,182.300,54.930,17.080,5.916,379.700,118.500,36.820,12.920,baseline
1303.000,380.700,104.400,28.910,1556.000,415.100,108.600,28.250,182.400,54.880,17.120,5.935,379.600,118.900,36.890,13.000,baseline
1309.000,382.300,104.500,29.110,1560.000,417.000,108.800,28.320,179.500,55.290,17.080,5.975,381.500,119.300,37.150,13.040,baseline
1312.000,384.200,105.700,29.250,1562.000,416.900,109.000,28.420,180.600,54.960,17.100,5.965,381.700,119.700,37.450,13.140,baseline
1317.000,386.400,105.700,29.300,1565.000,418.500,109.100,28.360,185.100,55.080,17.210,5.982,382.600,120.300,37.590,13.230,baseline
1322.000,389.300,106.100,29.460,1564.000,418.800,109.400,28.480,179.300,55.400,17.220,5.999,382.500,120.800,37.690,13.260,baseline
1327.000,390.000,106.200,29.670,1568.000,418.200,109.800,28.500,180.100,55.390,17.330,6.009,384.800,121.200,37.990,13.340,baseline
1333.000,390.800,107.100,29.750,1571.000,419.900,109.700,28.590,187.200,55.470,17.300,6.026,387.300,122.000,38.180,13.480,baseline
1339.000,391.100,107.300,29.780,1571.000,418.700,109.800,28.400,181.500,56.010,17.350,6.047,385.800,121.600,37.740,13.230,baseline
1315.000,384.500,105.000,29.130,1558.000,416.400,109.200,28.220,179.800,55.140,17.180,5.964,380.600,120.000,37.210,13.000,baseline
1309.000,383.200,104.500,28.990,1558.000,416.700,109.000,28.270,183.500,54.840,17.210,5.934,380.800,119.700,37.180,12.970,baseline
1306.000,381.900,104.400,29.020,1560.000,415.800,108.900,28.350,181.500,55.100,17.130,5.957,380.800,119.900,37.050,12.970,baseline
1310.000,384.200,105.000,29.000,1558.000,415.600,108.800,28.300,179.200,55.480,17.090,5.955,380.300,120.100,37.120,13.010,baseline
1309.000,383.600,105.100,29.050,1562.000,416.500,108.900,28.310,186.000,55.120,17.150,5.935,381.600,120.300,37.270,13.000,baseline
1313.000,384.300,105.300,29.220,1562.000,416.800,109.100,28.390,182.500,55.190,17.190,5.971,382.400,120.800,37.480,13.130,baseline
1317.000,386.300,105.800,29.350,1565.000,418.000,109.500,28.450,177.700,56.100,17.210,5.995,384.400,121.600,37.800,13.180,baseline
1322.000,386.700,106.300,29.420,1564.000,418.000,109.600,28.480,181.700,55.330,17.310,5.988,385.300,121.900,37.860,13.260,baseline
1327.000,387.600,106.500,29.590,1567.000,418.100,109.700,28.530,185.900,55.640,17.300,6.000,385.900,122.500,37.880,13.330,baseline
1331.000,389.600,107.100,29.790,1572.000,419.200,109.700,28.600,181.400,56.090,17.370,6.055,388.800,123.600,38.290,13.480,baseline
1337.000,393.200,107.300,29.940,1575.000,419.700,110.000,28.650,181.300,56.430,17.520,6.082,391.200,125.000,38.740,13.600,baseline
1344.000,393.600,107.100,29.810,1574.000,418.800,109.100,28.450,183.800,56.630,17.630,6.093,394.100,124.900,38.260,13.380,baseline
1314.000,384.600,104.600,29.130,1561.000,415.700,108.300,28.290,182.700,56.500,17.360,6.041,387.300,123.300,37.790,13.160,baseline
1309.000,383.900,104.700,29.070,1558.000,415.800,108.300,28.220,182.700,56.740,17.410,6.020,385.600,122.800,37.670,13.060,baseline
1302.000,381.500,104.200,28.880,1557.000,414.600,108.200,28.250,184.600,56.150,17.370,6.012,386.300,122.200,37.530,13.050,baseline
1305.000,382.000,104.100,28.970,1559.000,414.500,108.300,28.270,183.600,56.330,17.410,6.032,387.800,123.000,37.570,13.090,baseline
1305.000,381.200,104.000,28.940,1556.000,414.900,108.300,28.310,183.400,56.670,17.400,6.051,387.100,123.200,37.790,13.140,baseline
1307.000,381.900,104.100,29.110,1553.000,415.700,108.400,28.380,186.800,56.740,17.550,6.050,389.600,123.600,38.060,13.230,baseline
1311.000,384.700,104.600,29.250,1558.000,416.100,108.300,28.370,183.800,56.710,17.550,6.078,390.100,124.000,38.000,13.350,baseline
1315.000,384.300,104.400,29.210,1556.000,415.500,108.400,28.360,180.800,57.180,17.520,6.086,390.700,124.500,38.280,13.370,baseline
1319.000,384.600,104.700,29.350,1561.000,417.100,108.100,28.300,188.000,57.060,17.670,6.088,392.000,124.900,38.560,13.430,baseline
1324.000,387.500,104.600,29.420,1566.000,416.600,108.300,28.390,188.700,57.010,17.710,6.132,393.400,126.000,38.610,13.530,baseline
1330.000,388.400,105.500,29.640,1571.000,417.800,108.400,28.430,184.000,57.760,17.780,6.155,396.300,126.600,39.150,13.680,baseline
1336.000,389.800,105.700,29.700,1573.000,418.100,108.700,28.490,190.200,57.960,17.910,6.176,399.200,127.000,39.030,13.620,baseline
1323.000,386.100,103.800,29.080,1558.000,414.000,107.600,28.190,190.400,57.990,17.790,6.132,393.600,124.600,38.210,13.220,baseline
1302.000,380.000,103.100,28.920,1554.000,413.800,107.600,28.170,186.500,57.880,17.630,6.095,391.300,124.400,37.980,13.110,baseline
1298.000,377.100,102.600,28.730,1551.000,412.300,107.300,28.220,187.800,57.450,17.670,6.095,391.100,123.800,37.920,13.060,baseline
1295.000,377.700,102.600,28.840,1549.000,413.300,107.400,28.250,191.000,57.360,17.720,6.107,391.200,124.000,37.930,13.130,baseline
1296.000,377.600,102.400,28.800,1550.000,413.900,107.600,28.290,187.000,58.140,17.750,6.142,391.700,124.000,37.970,13.150,baseline
1299.000,378.500,102.900,29.060,1555.000,413.400,107.900,28.390,186.300,57.740,17.820,6.145,393.300,124.500,38.170,13.180,baseline
1304.000,380.300,103.200,29.200,1557.000,414.600,108.100,28.480,191.200,57.830,17.970,6.181,395.000,124.800,38.390,13.270,baseline
1308.000,382.000,104.000,29.290,1561.000,414.900,108.200,28.550,188.800,58.170,17.860,6.216,395.500,125.500,38.400,13.360,baseline
1314.000,384.100,104.300,29.410,1563.000,416.500,108.100,28.660,188.300,58.430,18.010,6.236,396.300,125.900,38.730,13.440,baseline
1320.000,385.500,104.700,29.750,1568.000,417.700,108.800,28.670,191.000,57.730,18.070,6.246,398.700,126.100,39.080,13.520,baseline
1325.000,386.100,105.500,29.740,1571.000,418.600,109.100,28.800,191.000,58.690,18.120,6.276,399.700,127.000,39.020,13.670,baseline
1331.000,389.000,105.800,30.000,1573.000,420.200,109.400,28.880,188.300,58.870,18.160,6.294,400.800,127.300,39.380,13.760,baseline
1340.000,391.200,106.100,30.030,1573.000,418.300,108.800,28.700,191.600,58.520,18.220,6.283,400.400,126.000,38.850,13.440,baseline
1310.000,380.900,102.800,29.190,1561.000,415.200,108.100,28.470,191.500,58.260,17.960,6.209,393.200,124.000,38.090,13.280,baseline
1302.000,378.900,103.200,29.130,1558.000,414.600,107.900,28.440,186.500,58.150,17.920,6.205,391.900,123.600,37.990,13.140,baseline
1295.000,375.900,102.500,28.890,1558.000,414.600,107.800,28.440,190.100,57.780,17.940,6.180,391.200,122.600,37.880,13.090,baseline
1299.000,376.500,102.800,29.060,1556.000,414.200,108.000,28.470,190.700,57.590,17.930,6.201,390.400,122.700,37.830,13.150,baseline
1298.000,377.700,102.800,28.950,1556.000,415.200,108.100,28.610,186.500,57.870,17.900,6.197,389.200,122.500,37.770,13.170,baseline
1300.000,378.800,103.000,29.190,1561.000,416.100,108.400,28.600,186.800,57.640,17.900,6.194,390.400,122.400,37.970,13.220,baseline
1307.000,380.100,103.400,29.300,1560.000,416.300,108.400,28.670,191.800,57.370,18.010,6.192,391.000,123.100,37.990,13.250,baseline
1311.000,381.300,103.500,29.410,1560.000,416.600,108.500,28.740,185.600,58.120,18.000,6.239,391.200,123.300,38.080,13.340,baseline
1315.000,383.400,104.300,29.600,1566.000,417.600,108.800,28.770,187.600,57.690,17.980,6.239,391.600,123.700,38.410,13.400,baseline
1322.000,385.100,104.600,29.620,1571.000,417.900,109.000,28.780,190.800,57.750,18.050,6.254,392.200,124.300,38.560,13.480,baseline
1327.000,386.900,105.300,29.860,1574.000,419.400,109.300,28.850,186.700,58.000,18.020,6.265,394.700,124.600,38.630,13.520,baseline
1326.000,385.600,104.300,29.410,1562.000,415.700,108.000,28.560,186.300,58.500,18.080,6.246,390.600,122.300,37.750,13.120,baseline
1298.000,378.200,102.800,29.020,1557.000,415.400,107.800,28.600,189.700,57.710,17.920,6.170,387.100,121.500,37.410,12.990,baseline
1296.000,376.700,102.200,28.940,1555.000,414.100,107.800,28.530,187.900,57.400,17.770,6.148,383.600,120.400,36.970,12.880,baseline
1292.000,375.600,102.400,28.890,1554.000,414.500,108.200,28.600,183.200,57.300,17.740,6.126,382.900,120.100,37.030,12.870,baseline
1296.000,376.400,102.100,28.940,1555.000,414.200,108.000,28.590,188.500,56.480,17.700,6.160,381.900,120.000,36.930,12.880,baseline
1296.000,377.500,102.300,28.980,1558.000,414.300,108.200,28.640,187.800,56.870,17.710,6.122,382.200,120.400,36.870,12.920,baseline
1303.000,377.700,102.700,29.220,1556.000,415.900,108.200,28.760,183.900,57.310,17.650,6.153,382.700,120.500,37.070,13.000,baseline
1307.000,379.900,103.500,29.300,1561.000,416.600,108.700,28.790,185.400,57.080,17.770,6.169,383.900,120.500,37.270,13.060,baseline
1312.000,380.800,103.200,29.390,1565.000,417.300,108.800,28.800,188.400,57.360,17.770,6.172,384.200,121.100,37.410,13.100,baseline
1317.000,383.900,104.000,29.550,1570.000,418.300,109.000,28.860,183.600,57.470,17.810,6.201,383.000,121.200,37.650,13.190,baseline
1322.000,385.200,104.600,29.670,1571.000,418.400,109.100,28.970,187.100,57.460,17.930,6.208,385.300,121.800,37.820,13.270,baseline
1329.000,388.000,105.000,29.790,1576.000,420.100,109.600,28.890,188.500,57.080,17.860,6.244,388.400,122.900,38.060,13.430,baseline
1335.000,387.500,105.900,29.800,1573.000,419.100,109.100,28.710,186.700,57.800,17.900,6.243,386.500,121.700,37.530,13.090,baseline
1306.000,379.600,102.500,28.880,1560.000,414.900,108.000,28.510,185.900,57.260,17.780,6.162,380.100,119.800,36.800,12.810,baseline
1298.000,378.000,101.900,28.700,1558.000,414.600,107.900,28.460,187.400,57.090,17.780,6.111,377.800,118.600,36.510,12.690,baseline
1292.000,375.800,101.000,28.550,1552.000,413.700,107.900,28.540,185.300,56.770,17.460,6.080,373.900,117.100,36.050,12.610,baseline
1292.000,375.100,101.600,28.600,1550.000,414.300,108.000,28.440,183.200,56.410,17.510,6.082,373.000,117.500,36.200,12.580,baseline
1293.000,375.900,101.900,28.550,1553.000,414.700,107.900,28.510,185.900,56.380,17.530,6.082,373.300,117.000,36.130,12.700,baseline
1297.000,377.700,102.000,28.640,1557.000,415.500,108.100,28.510,185.400,56.680,17.600,6.101,373.700,117.900,36.350,12.720,baseline
1301.000,379.400,102.200,28.850,1560.000,415.600,108.400,28.630,181.300,56.960,17.670,6.129,374.400,118.200,36.550,12.780,baseline
1306.000,380.100,102.700,29.000,1562.000,416.800,108.600,28.660,185.400,56.820,17.710,6.129,376.100,118.600,36.760,12.810,baseline
1311.000,381.000,103.100,29.070,1565.000,417.500,108.600,28.700,186.400,56.980,17.740,6.174,377.000,119.600,36.740,12.930,baseline
1317.000,384.500,103.600,29.200,1566.000,418.400,109.000,28.770,181.800,57.340,17.750,6.183,378.700,120.100,36.980,13.020,baseline
1322.000,385.800,104.400,29.340,1574.000,418.900,109.100,28.860,184.300,57.510,17.790,6.194,381.000,120.300,37.370,13.100,baseline
1330.000,387.300,105.400,29.600,1577.000,420.100,109.600,28.990,188.900,57.430,17.920,6.210,382.900,121.600,37.590,13.230,baseline
1336.000,388.600,105.400,29.520,1575.000,418.700,108.800,28.650,185.100,58.010,17.790,6.221,381.000,120.600,37.050,12.930,baseline
1304.000,379.300,102.300,28.620,1559.000,414.500,108.100,28.500,186.100,57.210,17.770,6.125,376.400,118.300,36.420,12.670,baseline
1297.000,377.300,101.600,28.470,1558.000,415.000,107.900,28.390,187.300,56.810,17.680,6.111,373.200,117.900,36.230,12.590,baseline
1292.000,374.700,101.400,28.240,1556.000,413.900,107.900,28.440,181.600,56.880,17.540,6.088,371.500,117.200,36.050,12.590,baseline
1295.000,376.500,101.600,28.450,1556.000,413.900,108.000,28.440,183.300,56.880,17.620,6.089,371.300,117.000,36.190,12.530,baseline
1295.000,377.100,101.600,28.440,1560.000,415.600,108.000,28.510,186.700,56.320,17.620,6.099,371.900,117.200,36.000,12.580,baseline
1300.000,378.500,101.900,28.610,1558.000,416.100,108.500,28.590,183.800,56.990,17.640,6.100,371.200,118.000,36.230,12.700,baseline
1306.000,380.600,102.100,28.750,1563.000,416.100,108.900,28.720,183.200,56.930,17.620,6.123,373.200,118.100,36.470,12.760,baseline
1313.000,381.500,103.300,28.890,1566.000,418.700,109.100,28.730,185.400,56.480,17.730,6.145,375.000,118.600,36.600,12.800,baseline
1318.000,385.200,103.900,29.070,1570.000,418.000,109.400,28.800,184.000,57.030,17.730,6.156,377.000,119.400,36.890,12.960,baseline
1326.000,385.300,104.600,29.290,1573.000,419.500,109.400,28.900,182.200,57.480,17.830,6.188,379.700,120.500,37.300,13.050,baseline
1333.000,388.600,105.000,29.500,1577.000,421.400,110.000,28.990,185.000,57.240,17.950,6.209,381.400,121.300,37.570,13.150,baseline
1341.000,389.100,106.000,29.840,1583.000,421.800,110.200,29.140,185.300,57.790,18.020,6.245,384.300,122.100,37.680,13.230,baseline
1348.000,392.400,106.700,30.030,1582.000,423.000,110.700,29.160,182.400,57.670,17.990,6.243,385.300,122.200,37.850,13.240,baseline
1343.000,387.700,104.900,29.280,1573.000,418.100,109.300,28.730,186.200,57.620,17.950,6.199,378.700,120.200,37.020,12.840,baseline
1311.000,382.600,103.300,29.020,1567.000,416.700,109.000,28.720,183.100,57.210,17.750,6.152,377.200,119.800,36.870,12.780,baseline
1310.000,380.900,102.900,28.800,1565.000,416.200,108.900,28.710,181.500,57.540,17.800,6.166,375.200,119.300,36.560,12.730,baseline
1308.000,379.800,103.300,28.940,1563.000,416.900,109.000,28.780,182.000,57.200,17.760,6.149,376.200,119.300,36.750,12.760,baseline
1311.000,381.100,103.200,28.980,1565.000,417.100,109.400,28.870,183.900,57.210,17.810,6.158,377.200,119.200,36.690,12.790,baseline
1313.000,383.300,103.700,29.130,1569.000,417.800,109.600,28.920,181.700,57.520,17.790,6.170,376.400,119.700,36.820,12.850,baseline
1319.000,384.600,104.000,29.440,1569.000,419.900,109.700,28.980,181.500,57.440,17.850,6.192,377.100,120.200,37.160,12.890,baseline
1325.000,385.700,105.000,29.510,1575.000,419.400,110.000,29.090,183.800,57.090,17.900,6.196,379.600,120.800,37.250,13.000,baseline
1330.000,387.200,105.100,29.650,1577.000,419.200,110.200,29.140,183.500,57.750,17.900,6.206,381.700,121.300,37.340,13.070,baseline
1336.000,390.300,105.800,29.860,1582.000,421.300,110.400,29.200,182.500,57.890,17.960,6.225,383.300,121.800,37.720,13.170,baseline
1343.000,392.000,106.800,30.070,1585.000,423.100,110.700,29.330,186.600,57.310,18.020,6.236,384.900,122.700,38.100,13.330,baseline
1351.000,394.800,107.100,30.250,1590.000,422.100,110.300,29.130,184.300,58.090,18.090,6.276,385.300,122.400,37.650,13.090,baseline
1324.000,386.400,104.400,29.310,1571.000,417.600,109.600,28.940,182.500,57.420,17.870,6.176,379.700,120.600,37.150,12.830,baseline
1312.000,382.200,103.800,29.210,1569.000,417.400,109.400,28.840,185.900,57.330,17.870,6.173,378.000,119.600,37.010,12.760,baseline
1308.000,380.900,103.400,29.050,1565.000,416.800,109.300,28.880,184.100,57.300,17.770,6.158,377.000,119.600,36.740,12.790,baseline
1310.000,382.400,103.800,29.240,1565.000,417.100,109.500,28.900,180.900,57.540,17.750,6.141,376.200,119.600,36.800,12.780,baseline
1310.000,382.200,103.800,29.170,1566.000,417.100,109.700,28.890,183.200,57.280,17.820,6.137,377.700,119.500,37.060,12.800,baseline
1315.000,383.900,104.700,29.390,1571.000,418.400,109.900,28.990,184.200,57.210,17.850,6.167,379.300,120.600,37.250,12.920,baseline
1321.000,385.100,104.900,29.590,1573.000,419.200,110.200,29.100,180.600,57.340,17.880,6.185,381.000,121.300,37.330,12.990,baseline
1327.000,386.600,105.900,29.800,1576.000,419.500,110.400,29.200,182.600,57.710,17.980,6.200,383.100,121.900,37.690,13.080,baseline
1332.000,388.200,106.500,29.930,1575.000,420.500,110.300,29.200,186.300,57.800,18.020,6.232,384.700,122.400,37.790,13.180,baseline
1337.000,390.800,106.700,30.170,1580.000,419.900,110.700,29.330,181.900,57.840,18.040,6.271,385.700,123.100,37.950,13.300,baseline
1343.000,393.400,107.100,30.360,1585.000,422.400,110.800,29.420,182.200,57.910,18.100,6.289,388.000,124.000,38.370,13.380,baseline
1352.000,394.300,107.900,30.550,1586.000,422.500,111.400,29.490,187.500,57.960,18.190,6.312,390.600,124.700,38.560,13.540,baseline
1354.000,391.200,106.900,30.120,1579.000,418.300,110.000,29.010,184.700,58.500,18.150,6.257,386.200,122.800,37.720,13.110,baseline
1315.000,382.700,104.300,29.470,1568.000,416.300,109.500,29.000,180.800,57.890,17.960,6.193,383.400,121.700,37.470,12.990,baseline
1311.000,381.300,104.600,29.400,1564.000,416.300,109.400,28.930,185.300,57.470,17.950,6.185,382.600,120.900,37.180,12.900,baseline
1307.000,380.200,104.400,29.400,1564.000,416.100,109.700,28.940,185.300,57.530,17.790,6.170,380.700,121.000,37.220,12.910,baseline
1310.000,381.100,104.700,29.420,1567.000,416.500,109.600,28.960,183.200,57.830,17.860,6.189,380.600,121.200,37.150,12.890,baseline
1310.000,380.700,104.500,29.510,1567.000,417.100,109.800,29.060,184.300,57.180,17.870,6.168,382.800,121.300,37.440,13.000,baseline
1316.000,382.800,105.300,29.720,1568.000,418.300,110.100,29.160,185.300,57.420,17.950,6.171,383.100,121.200,37.520,13.060,baseline
1322.000,385.200,105.600,29.810,1567.000,418.500,110.200,29.160,184.200,57.660,17.940,6.197,384.300,122.100,37.670,13.120,baseline
1326.000,385.700,105.900,30.000,1575.000,419.800,110.400,29.180,185.300,57.610,17.990,6.199,385.400,122.100,37.880,13.170,baseline
1330.000,388.600,106.900,30.100,1574.000,420.500,110.600,29.260,188.300,57.630,18.030,6.236,387.400,122.900,38.120,13.280,baseline
1336.000,389.500,107.300,30.420,1579.000,421.400,111.000,29.350,184.800,57.840,17.960,6.245,388.500,123.500,38.200,13.340,baseline
1343.000,391.700,107.900,30.540,1583.000,422.400,111.200,29.460,185.700,57.910,18.110,6.276,390.400,123.800,38.530,13.460,baseline
1351.000,393.200,108.700,30.690,1586.000,424.500,111.400,29.440,187.900,57.710,18.090,6.265,391.000,124.000,38.400,13.380,baseline
1338.000,388.100,106.300,29.910,1570.000,418.500,110.000,29.060,184.700,58.120,17.910,6.211,384.300,121.500,37.360,13.030,baseline
1313.000,382.800,104.900,29.590,1565.000,417.100,109.800,29.010,183.100,57.230,17.790,6.159,382.900,120.400,37.250,12.930,baseline
1309.000,381.100,104.200,29.540,1564.000,416.500,109.700,28.930,186.900,57.140,17.740,6.136,381.600,119.900,36.910,12.860,baseline
1307.000,381.700,104.500,29.590,1566.000,417.700,109.800,28.980,184.600,56.830,17.690,6.136,381.000,120.100,36.940,12.880,baseline
1310.000,381.300,104.400,29.570,1565.000,416.900,109.800,29.000,183.100,57.100,17.690,6.122,379.900,119.400,36.990,12.880,baseline
1312.000,383.100,105.300,29.700,1569.000,418.600,110.100,29.090,186.700,57.050,17.730,6.124,380.000,119.700,36.940,12.890,baseline
1316.000,384.900,105.800,29.840,1567.000,419.200,110.100,29.090,184.500,56.690,17.670,6.148,381.800,120.200,37.090,13.020,baseline
1322.000,386.800,106.000,29.920,1570.000,420.500,110.300,29.170,182.200,57.070,17.730,6.137,382.000,120.400,37.230,13.050,baseline
1325.000,386.800,106.500,30.020,1577.000,420.300,110.500,29.180,186.200,56.930,17.770,6.153,383.800,120.200,37.410,13.060,baseline
1330.000,387.500,106.600,30.250,1577.000,420.800,110.700,29.260,187.900,57.070,17.760,6.192,384.600,121.100,37.580,13.210,baseline
1336.000,392.800,107.300,30.410,1580.000,422.200,111.200,29.310,182.000,57.390,17.750,6.209,386.300,121.600,37.740,13.280,baseline
1343.000,391.700,107.400,30.390,1583.000,420.800,110.500,29.060,183.800,57.280,17.760,6.186,385.400,120.400,37.410,13.030,baseline
1315.000,383.200,105.200,29.590,1567.000,417.400,109.700,28.850,187.000,56.540,17.680,6.141,381.300,119.300,36.740,12.860,baseline
1308.000,382.200,104.600,29.480,1561.000,417.700,109.800,28.890,178.800,57.030,17.580,6.116,379.800,119.000,36.570,12.830,baseline
1304.000,381.000,105.000,29.360,1561.000,417.200,109.900,28.910,181.900,56.650,17.560,6.111,379.200,118.700,36.630,12.800,baseline
1307.000,383.800,105.000,29.390,1563.000,418.300,109.800,28.880,183.900,56.340,17.570,6.103,379.900,118.500,36.540,12.780,baseline
1308.000,381.400,105.200,29.460,1564.000,418.200,110.100,28.970,182.400,56.510,17.590,6.105,377.700,118.900,36.560,12.790,baseline
1313.000,383.800,105.200,29.600,1567.000,418.700,110.300,28.930,180.900,56.730,17.570,6.089,380.200,119.100,36.720,12.870,baseline
1318.000,386.400,106.000,29.750,1568.000,420.500,110.500,29.000,186.300,56.200,17.680,6.139,380.500,119.400,37.000,12.940,baseline
1323.000,387.600,106.000,29.830,1575.000,420.300,110.800,29.070,183.400,57.180,17.580,6.137,380.700,119.600,36.860,13.020,baseline
1328.000,389.200,106.800,30.040,1578.000,420.400,111.000,29.080,183.200,56.980,17.670,6.142,381.700,119.900,37.200,13.050,baseline
1332.000,391.600,107.600,30.180,1579.000,422.300,111.500,29.180,185.500,56.630,17.780,6.157,384.400,120.900,37.390,13.160,baseline
1339.000,393.500,108.000,30.460,1582.000,424.000,111.500,29.290,185.000,56.950,17.740,6.168,384.400,121.400,37.590,13.260,baseline
1346.000,396.800,108.500,30.470,1581.000,422.600,111.200,29.070,181.900,57.200,17.790,6.201,384.700,120.800,37.250,13.040,baseline
1320.000,386.900,105.800,29.500,1567.000,418.300,110.400,28.820,185.200,56.870,17.700,6.126,379.800,118.800,36.700,12.760,baseline
1309.000,383.400,105.300,29.340,1562.000,418.800,110.200,28.780,183.700,56.350,17.540,6.081,378.100,118.500,36.330,12.730,baseline
1304.000,382.800,104.700,29.120,1560.000,417.900,110.000,28.720,181.200,56.840,17.470,6.071,375.900,117.800,36.260,12.660,baseline
1305.000,382.800,104.900,29.270,1561.000,418.000,110.100,28.690,182.100,56.310,17.450,6.052,375.200,117.400,36.250,12.650,baseline
1306.000,382.800,105.000,29.230,1561.000,418.500,110.200,28.790,184.400,56.200,17.460,6.052,375.500,117.700,36.160,12.680,baseline
1309.000,385.500,105.500,29.430,1564.000,418.800,110.400,28.890,180.400,56.560,17.410,6.064,376.600,118.000,36.380,12.740,baseline
1315.000,386.000,106.100,29.520,1570.000,419.900,111.000,28.940,182.900,56.390,17.500,6.070,376.700,118.000,36.470,12.760,baseline
1319.000,386.700,106.800,29.630,1572.000,421.200,111.000,28.980,185.400,56.310,17.490,6.062,377.700,118.400,36.650,12.880,baseline
1322.000,388.400,107.100,29.770,1571.000,422.100,111.300,29.080,182.400,56.720,17.480,6.117,377.700,119.000,36.770,12.930,baseline
1328.000,389.900,107.600,29.980,1575.000,422.100,111.600,29.210,182.200,56.720,17.540,6.114,380.200,119.300,36.950,13.000,baseline
1334.000,393.000,108.100,30.110,1576.000,422.300,111.900,29.260,183.900,56.210,17.580,6.122,381.300,119.800,37.210,13.090,baseline
1341.000,395.000,108.700,30.350,1580.000,425.100,112.300,29.280,183.000,56.710,17.590,6.164,382.400,120.900,37.380,13.200,baseline
1344.000,393.900,108.500,29.990,1574.000,420.800,111.300,28.980,181.900,56.490,17.650,6.141,380.300,119.100,36.650,12.820,baseline
1312.000,384.400,105.800,29.330,1563.000,419.500,110.900,28.940,184.300,56.000,17.550,6.050,376.400,117.900,36.430,12.720,baseline
1308.000,384.500,105.600,29.180,1561.000,418.500,110.700,28.870,182.700,56.370,17.470,6.040,374.600,118.000,36.240,12.650,baseline
1303.000,383.700,105.300,29.200,1561.000,419.600,110.700,28.790,180.800,56.190,17.350,6.046,374.400,117.700,36.240,12.660,baseline
1307.000,382.700,105.200,29.190,1562.000,418.900,110.400,28.930,183.200,56.080,17.450,6.052,374.500,117.300,36.300,12.640,baseline
1307.000,384.300,105.800,29.280,1562.000,420.700,110.900,28.890,182.200,56.060,17.390,6.051,374.000,117.800,36.180,12.740,baseline
1313.000,386.200,106.300,29.390,1563.000,420.700,111.100,28.990,178.700,56.440,17.450,6.057,375.400,118.100,36.540,12.730,baseline
1317.000,386.400,106.600,29.600,1572.000,421.100,111.200,29.070,184.100,56.090,17.540,6.072,377.500,118.500,36.850,12.830,baseline
1322.000,389.000,107.200,29.720,1570.000,422.000,111.800,29.150,183.900,56.270,17.550,6.083,378.500,118.800,36.830,12.900,baseline
1326.000,389.600,107.700,29.910,1572.000,422.900,111.900,29.220,179.800,56.700,17.500,6.119,378.700,119.700,37.220,12.960,baseline
1332.000,390.700,108.100,30.020,1577.000,422.500,112.100,29.260,183.500,56.560,17.620,6.131,380.300,120.200,37.350,13.040,baseline
1337.000,393.600,108.700,30.220,1582.000,424.400,112.300,29.420,186.700,56.560,17.630,6.107,382.200,120.600,37.450,13.170,baseline
1343.000,396.000,109.300,30.510,1582.000,425.400,112.600,29.420,183.000,56.790,17.700,6.166,383.800,121.500,37.730,13.210,baseline
1342.000,394.600,108.400,29.940,1572.000,421.200,111.400,29.030,184.100,56.810,17.680,6.123,381.000,119.500,37.100,12.880,baseline
1312.000,384.800,106.200,29.430,1567.000,420.700,111.400,28.960,187.700,56.080,17.530,6.087,378.700,119.100,36.720,12.800,baseline
1309.000,383.500,106.500,29.340,1564.000,419.700,111.100,28.920,182.500,56.180,17.460,6.064,376.300,118.600,36.630,12.760,baseline
1306.000,383.600,106.100,29.290,1563.000,419.700,111.000,29.020,180.800,56.360,17.450,6.057,376.300,118.800,36.660,12.730,baseline
1309.000,384.400,106.000,29.340,1563.000,420.000,111.200,29.040,183.900,55.940,17.470,6.044,377.900,118.600,36.710,12.720,baseline
1309.000,384.100,106.300,29.380,1565.000,420.700,111.200,29.060,180.900,56.450,17.420,6.063,377.400,119.100,36.720,12.840,baseline
1313.000,385.800,106.500,29.590,1568.000,421.200,111.600,29.130,180.000,56.430,17.470,6.070,378.400,119.100,36.870,12.860,baseline
1318.000,387.900,107.200,29.730,1569.000,421.000,111.900,29.180,183.200,56.480,17.580,6.077,380.300,119.500,37.310,12.910,baseline
1323.000,388.700,107.200,29.810,1568.000,421.100,111.900,29.230,184.500,56.430,17.550,6.100,381.700,120.200,37.230,13.000,baseline
1326.000,389.800,107.700,29.930,1571.000,422.400,112.200,29.330,179.900,56.710,17.530,6.100,382.300,120.600,37.450,13.070,baseline
1331.000,391.100,108.200,30.200,1576.000,423.300,112.600,29.360,184.800,56.660,17.610,6.114,383.600,120.800,37.720,13.160,baseline
1337.000,393.700,109.000,30.240,1581.000,423.800,112.700,29.360,184.800,56.710,17.670,6.135,384.500,121.300,37.720,13.160,baseline
1326.000,388.500,107.400,29.550,1561.000,420.300,111.300,29.050,181.300,56.550,17.580,6.110,379.700,119.800,36.910,12.860,baseline
1306.000,382.900,106.100,29.340,1565.000,419.100,111.200,29.000,182.600,56.310,17.510,6.055,379.400,118.900,36.740,12.770,baseline
1302.000,380.700,105.700,29.220,1556.000,419.100,111.000,29.010,184.800,55.930,17.460,6.044,378.400,118.700,36.570,12.760,baseline
1301.000,382.100,105.900,29.280,1563.000,419.200,110.800,29.020,181.400,56.300,17.360,6.054,377.300,118.700,36.700,12.790,baseline
1302.000,379.600,105.700,29.260,1563.000,419.100,111.000,29.010,181.600,56.150,17.440,6.043,377.300,119.000,36.710,12.730,baseline
1303.000,381.500,106.000,29.430,1561.000,419.300,111.400,29.120,184.900,55.830,17.530,6.032,379.200,118.800,36.810,12.790,baseline
1308.000,383.500,106.200,29.570,1562.000,420.700,111.300,29.170,181.800,56.460,17.440,6.068,379.500,119.700,36.890,12.900,baseline
1312.000,385.100,106.800,29.690,1567.000,420.400,111.500,29.280,181.300,56.480,17.510,6.072,381.000,119.500,37.040,12.940,baseline
1317.000,385.200,107.400,29.760,1565.000,421.200,111.800,29.250,182.700,56.300,17.580,6.101,383.000,120.000,37.290,13.000,baseline
1322.000,388.200,107.400,30.000,1567.000,421.300,112.100,29.340,183.000,56.770,17.550,6.080,383.800,120.600,37.340,13.120,baseline
1327.000,388.700,108.500,30.140,1571.000,422.900,112.400,29.390,181.200,56.530,17.610,6.110,384.600,121.400,37.560,13.160,baseline
1334.000,391.800,108.900,30.300,1574.000,425.000,112.300,29.500,183.600,56.750,17.670,6.129,387.100,121.700,37.890,13.260,baseline
1339.000,392.700,109.100,30.440,1578.000,422.800,112.200,29.320,185.300,56.790,17.660,6.145,385.300,121.200,37.410,13.050,baseline
1311.000,382.400,106.300,29.520,1563.000,419.400,111.100,29.080,181.400,56.570,17.480,6.071,381.000,119.200,37.000,12.830,baseline
1300.000,381.200,105.700,29.280,1559.000,419.300,111.000,29.030,182.300,55.980,17.440,6.043,380.500,118.800,36.650,12.710,baseline
1296.000,377.700,105.300,29.160,1556.000,419.100,110.900,29.030,183.600,55.980,17.420,6.033,378.100,118.100,36.420,12.700,baseline
1297.000,379.400,105.600,29.270,1559.000,419.000,111.000,29.050,181.000,56.300,17.430,6.035,378.900,118.600,36.430,12.710,baseline
1297.000,380.300,105.500,29.260,1560.000,419.600,111.000,29.140,180.900,55.960,17.400,6.027,378.700,118.300,36.630,12.700,baseline
1301.000,380.900,105.800,29.400,1561.000,420.800,111.300,29.160,184.700,56.100,17.500,6.058,378.900,118.600,36.650,12.800,baseline
1305.000,383.300,106.000,29.560,1562.000,420.200,111.500,29.270,180.200,56.020,17.510,6.054,379.100,118.900,36.720,12.820,baseline
1310.000,384.500,106.600,29.580,1566.000,421.500,111.600,29.260,182.600,56.120,17.460,6.073,381.700,118.900,36.910,12.860,baseline
1315.000,386.200,106.600,29.780,1568.000,423.000,111.800,29.320,186.800,56.220,17.550,6.079,382.800,119.600,36.900,12.940,baseline
1319.000,386.000,107.200,29.920,1569.000,423.200,112.200,29.350,180.600,56.590,17.500,6.112,382.800,120.100,37.060,13.040,baseline
1324.000,389.200,108.000,30.130,1571.000,424.300,112.200,29.440,182.000,56.710,17.540,6.127,384.800,120.500,37.400,13.090,baseline
1330.000,391.900,108.600,30.230,1574.000,425.700,112.700,29.580,184.800,56.420,17.710,6.140,386.300,120.700,37.330,13.160,baseline
1337.000,392.600,109.200,30.420,1577.000,426.100,112.400,29.460,184.800,56.970,17.680,6.165,385.900,121.200,37.310,13.080,baseline
1319.000,386.800,106.500,29.490,1562.000,421.400,111.300,29.130,182.600,56.440,17.530,6.099,381.400,118.700,36.540,12.740,baseline
1300.000,382.300,105.200,29.280,1563.000,421.200,111.100,29.080,184.400,55.840,17.380,6.046,379.200,117.800,36.320,12.660,baseline
1297.000,378.900,105.000,29.150,1559.000,420.400,111.100,29.100,183.400,55.790,17.360,6.038,377.300,117.600,36.090,12.620,baseline
1297.000,381.600,105.100,29.190,1563.000,421.100,111.500,29.110,180.800,56.260,17.290,6.039,376.800,117.700,36.180,12.640,baseline
1299.000,381.400,104.900,29.250,1558.000,421.900,111.100,29.170,183.600,55.690,17.390,6.025,376.800,117.400,36.130,12.600,baseline
1301.000,382.900,105.800,29.360,1560.000,423.000,111.700,29.210,183.900,55.900,17.400,6.045,378.300,117.600,36.160,12.700,baseline
1306.000,383.100,106.100,29.490,1563.000,423.100,111.700,29.300,180.500,56.650,17.390,6.083,378.600,118.300,36.260,12.720,baseline
1311.000,386.200,106.700,29.600,1570.000,423.600,112.200,29.320,181.900,56.240,17.470,6.072,380.100,118.400,36.580,12.800,baseline
1316.000,389.500,107.100,29.720,1569.000,423.900,112.100,29.420,185.500,56.240,17.510,6.082,380.000,118.700,36.540,12.860,baseline
1320.000,389.900,108.000,29.910,1573.000,425.900,112.400,29.480,181.500,56.350,17.490,6.104,381.500,119.400,36.820,12.940,baseline
1327.000,390.100,108.200,30.000,1577.000,426.200,112.600,29.560,183.900,56.490,17.580,6.118,382.800,119.800,37.020,12.980,baseline
1333.000,393.400,108.600,30.210,1576.000,426.500,112.900,29.590,185.700,56.390,17.640,6.118,384.900,120.200,37.200,13.100,baseline
1340.000,394.500,109.500,30.370,1580.000,428.300,113.000,29.650,183.900,56.800,17.620,6.156,384.400,120.700,37.260,13.080,baseline
1328.000,392.200,107.200,29.620,1570.000,422.600,111.800,29.240,181.600,56.540,17.520,6.075,380.600,118.500,36.430,12.740,baseline
1306.000,384.600,106.200,29.350,1565.000,423.100,111.900,29.170,184.700,55.940,17.480,6.049,379.200,117.600,36.260,12.650,baseline
1304.000,383.000,106.300,29.200,1560.000,421.500,111.600,29.080,183.300,56.000,17.350,6.036,376.800,117.400,35.980,12.570,baseline
1303.000,386.500,106.100,29.210,1561.000,423.400,111.700,29.210,180.500,56.350,17.350,6.048,377.300,117.200,36.090,12.590,baseline
1305.000,384.000,106.400,29.340,1563.000,423.300,111.800,29.140,183.600,55.760,17.380,6.044,375.400,117.300,36.060,12.620,baseline
1308.000,386.100,106.500,29.390,1565.000,423.400,112.000,29.270,182.200,55.900,17.390,6.075,377.300,117.600,36.160,12.680,baseline
1315.000,388.600,107.500,29.620,1563.000,424.800,112.500,29.330,180.700,56.520,17.400,6.075,378.000,118.000,36.210,12.720,baseline
1320.000,390.000,107.700,29.680,1571.000,425.600,112.500,29.440,182.000,56.100,17.510,6.071,380.000,118.300,36.430,12.770,baseline
1325.000,391.300,108.200,29.850,1570.000,425.500,112.800,29.460,184.000,56.100,17.530,6.089,380.400,118.900,36.590,12.910,baseline
1330.000,393.700,108.800,30.030,1573.000,427.700,113.200,29.550,181.400,56.810,17.520,6.120,380.900,119.200,36.710,12.990,baseline
1335.000,395.100,108.800,30.170,1580.000,428.300,113.200,29.580,184.100,56.350,17.680,6.132,383.800,119.800,36.980,12.980,baseline
1342.000,396.900,109.600,30.370,1584.000,428.700,113.500,29.640,188.400,56.580,17.720,6.144,384.900,120.700,37.240,13.130,baseline
1349.000,399.700,110.400,30.500,1586.000,431.200,113.600,29.700,182.600,56.810,17.660,6.158,386.200,120.900,37.280,13.160,baseline
1347.000,397.200,109.100,30.040,1575.000,426.000,112.500,29.300,184.500,56.860,17.630,6.122,382.600,119.000,36.590,12.770,baseline
1316.000,390.400,107.400,29.520,1565.000,424.300,112.200,29.250,184.000,55.940,17.550,6.066,379.700,118.600,36.460,12.700,baseline
1315.000,390.000,107.200,29.420,1567.000,424.100,112.400,29.230,180.500,56.190,17.470,6.068,377.500,118.000,36.170,12.650,baseline
1313.000,389.400,106.800,29.480,1569.000,425.100,112.400,29.240,180.700,56.110,17.390,6.055,376.900,118.200,36.370,12.640,baseline
1317.000,390.300,107.200,29.490,1569.000,425.100,112.400,29.240,184.700,56.120,17.480,6.050,378.000,117.800,36.350,12.650,baseline
1318.000,390.600,107.500,29.640,1571.000,426.000,112.700,29.270,181.500,56.150,17.460,6.078,378.100,118.300,36.350,12.710,baseline
1323.000,391.800,107.900,29.780,1570.000,426.200,112.600,29.400,180.100,56.380,17.510,6.084,378.200,118.700,36.410,12.780,baseline
1329.000,392.400,108.600,29.930,1576.000,426.700,113.100,29.450,184.000,56.140,17.630,6.097,381.400,119.200,36.750,12.870,baseline
1333.000,394.800,108.900,30.080,1576.000,428.000,113.100,29.460,182.700,56.490,17.560,6.105,380.300,119.500,36.780,12.940,baseline
1338.000,395.100,109.700,30.100,1580.000,428.100,113.300,29.550,180.000,56.940,17.620,6.132,381.900,120.100,37.030,12.960,baseline
1344.000,396.200,110.400,30.460,1584.000,429.300,113.500,29.540,183.700,56.460,17.630,6.128,383.500,120.700,37.370,13.070,baseline
1349.000,398.900,110.800,30.680,1581.000,430.000,113.900,29.690,185.900,56.870,17.730,6.140,384.900,121.100,37.510,13.160,baseline
1351.000,399.500,110.000,30.320,1577.000,426.600,112.700,29.290,183.100,57.000,17.690,6.146,381.200,119.900,36.720,12.840,baseline
1319.000,391.300,108.100,29.670,1572.000,424.700,112.400,29.180,183.300,56.310,17.580,6.079,379.000,118.700,36.660,12.720,baseline
1318.000,389.100,107.900,29.560,1571.000,423.900,112.000,29.210,183.400,56.300,17.530,6.071,377.600,118.300,36.500,12.680,baseline
1314.000,390.200,107.600,29.680,1570.000,424.500,112.200,29.190,181.100,56.570,17.440,6.086,378.100,118.700,36.470,12.730,baseline
1319.000,391.000,107.700,29.710,1568.000,425.500,112.400,29.150,182.000,56.130,17.580,6.065,378.900,118.800,36.490,12.720,baseline
1319.000,391.300,108.100,29.820,1569.000,425.700,112.500,29.270,185.200,56.390,17.580,6.070,379.100,118.800,36.650,12.790,baseline
1324.000,392.000,108.500,29.970,1571.000,425.900,112.600,29.400,182.700,56.370,17.560,6.097,379.600,119.500,36.760,12.870,baseline
1329.000,393.700,109.000,30.150,1573.000,427.000,112.900,29.370,180.500,56.600,17.510,6.104,379.900,119.600,36.930,12.930,baseline
1334.000,394.900,109.900,30.260,1575.000,427.900,113.000,29.420,186.800,56.330,17.650,6.121,381.400,120.100,37.220,12.980,baseline
1339.000,395.400,110.200,30.410,1580.000,427.700,113.000,29.520,181.700,56.600,17.630,6.143,382.900,120.700,37.310,13.030,baseline
1344.000,399.100,110.700,30.560,1581.000,429.400,113.500,29.570,181.300,56.730,17.690,6.148,384.400,120.900,37.480,13.140,baseline
1350.000,401.300,111.300,30.830,1580.000,429.500,113.600,29.630,187.200,56.800,17.730,6.162,386.700,121.900,37.820,13.210,baseline
1356.000,401.900,111.700,30.920,1587.000,429.900,113.300,29.490,183.500,56.930,17.770,6.171,385.900,121.700,37.500,13.070,baseline
1334.000,393.400,109.100,30.000,1570.000,424.700,112.300,29.150,182.200,57.230,17.620,6.117,380.500,119.800,36.880,12.820,baseline
1317.000,388.500,108.200,29.790,1562.000,424.200,112.000,29.090,184.100,56.490,17.600,6.080,379.400,119.000,36.510,12.700,baseline
1312.000,389.300,107.200,29.620,1560.000,422.500,111.700,29.050,183.900,56.350,17.530,6.061,377.500,118.500,36.350,12.690,baseline
1311.000,388.400,107.700,29.660,1561.000,423.400,111.900,29.170,180.100,56.070,17.490,6.075,376.300,118.300,36.490,12.720,baseline
1312.000,387.100,108.100,29.700,1563.000,423.100,112.100,29.130,183.000,56.330,17.520,6.049,377.000,118.500,36.600,12.700,baseline
1313.000,388.100,108.100,29.820,1562.000,424.500,111.900,29.160,184.400,56.230,17.520,6.072,377.100,118.700,36.710,12.780,baseline
1318.000,390.500,108.300,29.950,1566.000,424.400,112.300,29.270,181.200,56.270,17.520,6.107,378.000,118.900,36.770,12.840,baseline
1324.000,392.200,109.000,30.120,1569.000,425.900,112.300,29.260,180.500,56.250,17.560,6.091,380.500,119.200,36.950,12.890,baseline
1326.000,393.600,109.100,30.240,1569.000,425.600,112.700,29.370,185.800,56.150,17.640,6.103,381.500,119.500,37.130,12.930,baseline
1331.000,394.800,109.500,30.450,1577.000,426.600,112.900,29.350,182.800,56.650,17.540,6.115,381.700,120.400,37.040,13.040,baseline
1337.000,397.100,110.300,30.540,1574.000,428.000,113.200,29.450,182.300,56.460,17.610,6.122,383.500,120.700,37.420,13.120,baseline
1344.000,398.700,110.600,30.800,1580.000,428.900,113.100,29.580,184.800,56.430,17.700,6.138,384.700,121.200,37.670,13.190,baseline
1349.000,400.300,111.100,30.850,1580.000,428.100,112.600,29.320,184.000,56.610,17.700,6.152,383.700,120.900,37.210,12.980,baseline
1321.000,391.600,107.600,29.840,1560.000,424.600,111.800,29.040,180.900,56.750,17.540,6.079,379.900,118.700,36.610,12.730,baseline
1309.000,388.300,107.400,29.740,1561.000,422.900,111.500,29.020,183.900,56.020,17.520,6.034,377.100,118.100,36.490,12.610,baseline
1303.000,384.000,106.900,29.540,1558.000,422.200,111.200,29.040,182.300,56.090,17.440,6.033,376.100,117.500,36.280,12.630,baseline
1303.000,386.700,107.100,29.640,1556.000,423.000,111.600,28.990,179.200,56.110,17.370,6.042,376.300,117.600,36.250,12.610,baseline
1304.000,385.400,106.800,29.680,1557.000,422.500,111.400,29.080,182.000,55.850,17.460,6.024,376.300,117.700,36.370,12.640,baseline
1307.000,386.700,107.300,29.840,1561.000,423.700,111.800,29.110,184.500,55.840,17.440,6.031,376.000,117.800,36.370,12.750,baseline
1312.000,389.300,107.600,29.930,1564.000,424.900,112.000,29.200,178.500,56.260,17.360,6.074,377.600,118.100,36.470,12.770,baseline
1316.000,389.300,108.200,30.130,1567.000,424.900,112.100,29.220,180.700,56.060,17.460,6.052,378.300,118.300,36.700,12.820,baseline
1321.000,390.300,108.700,30.250,1567.000,425.200,112.200,29.280,182.600,56.100,17.480,6.066,379.200,118.600,36.750,12.920,baseline
1326.000,392.700,109.400,30.390,1569.000,426.400,112.500,29.400,182.100,56.250,17.490,6.098,379.400,119.600,36.870,13.000,baseline
1331.000,394.500,109.500,30.560,1576.000,428.100,112.900,29.420,182.300,56.190,17.500,6.099,381.200,119.600,37.250,13.050,baseline
1338.000,397.900,110.400,30.750,1579.000,428.900,113.100,29.500,183.800,56.500,17.560,6.108,383.300,120.300,37.420,13.140,baseline
1344.000,399.300,110.800,30.780,1578.000,427.800,112.700,29.300,183.000,56.680,17.630,6.107,383.100,119.900,36.880,12.940,baseline
1318.000,389.900,107.500,29.860,1559.000,424.400,111.800,29.080,179.400,56.070,17.400,6.036,378.700,117.800,36.330,12.660,baseline
1306.000,387.600,107.600,29.790,1561.000,423.300,111.800,29.050,183.200,55.830,17.370,5.993,376.400,117.000,36.160,12.650,baseline
1302.000,385.100,106.800,29.620,1556.000,424.000,111.300,29.060,181.600,55.680,17.250,6.022,374.200,117.200,35.910,12.620,baseline
1303.000,385.100,107.000,29.720,1562.000,424.300,111.400,29.100,178.200,55.850,17.300,6.026,374.400,117.000,35.940,12.580,baseline
1304.000,386.600,107.100,29.620,1560.000,424.200,111.300,29.060,183.100,55.440,17.280,5.998,375.100,116.800,35.960,12.640,baseline
1308.000,387.900,107.700,29.900,1561.000,425.400,111.800,29.170,181.000,55.620,17.310,6.021,375.500,117.100,36.160,12.710,baseline
1313.000,389.600,107.500,29.960,1566.000,425.500,112.100,29.260,177.700,55.960,17.390,6.046,376.500,117.900,36.390,12.730,baseline
1318.000,391.200,108.300,30.130,1569.000,426.300,112.100,29.330,181.400,55.900,17.370,6.013,377.100,117.800,36.570,12.780,baseline
1323.000,392.800,108.800,30.330,1569.000,426.900,112.600,29.380,183.000,55.870,17.410,6.035,378.800,118.300,36.630,12.920,baseline
1329.000,392.400,109.300,30.420,1573.000,427.500,112.700,29.420,179.800,56.490,17.410,6.077,380.200,118.700,36.940,12.990,baseline
1335.000,396.800,109.600,30.610,1572.000,428.400,113.100,29.570,182.500,56.120,17.490,6.090,382.300,119.200,37.070,13.060,baseline
1341.000,398.400,110.400,30.770,1580.000,429.600,113.400,29.670,184.900,56.010,17.550,6.095,383.300,120.200,37.300,13.170,baseline
1348.000,397.700,110.700,30.730,1579.000,428.600,112.600,29.330,181.600,56.420,17.560,6.083,380.400,118.900,36.770,12.870,baseline
1316.000,390.800,107.800,29.950,1570.000,425.100,111.900,29.260,179.800,56.320,17.410,6.021,377.400,117.700,36.390,12.670,baseline
1311.000,389.500,107.400,29.850,1563.000,424.300,112.000,29.110,181.900,55.680,17.330,6.014,376.100,117.000,36.150,12.650,baseline
1306.000,388.100,107.000,29.680,1564.000,424.300,111.700,29.200,181.000,55.940,17.310,6.001,373.600,117.000,36.100,12.670,baseline
1309.000,389.000,107.200,29.770,1565.000,424.800,111.900,29.170,178.800,55.450,17.310,6.001,375.700,116.800,36.150,12.650,baseline
1310.000,388.200,107.400,29.900,1558.000,424.900,111.900,29.230,182.100,55.650,17.310,5.992,376.900,117.300,36.190,12.690,baseline
1314.000,391.800,107.700,29.990,1565.000,427.000,112.200,29.370,181.300,55.440,17.360,6.049,376.600,117.800,36.250,12.810,baseline
1320.000,392.000,108.200,30.130,1571.000,426.800,112.600,29.430,178.700,56.080,17.440,6.025,378.000,117.900,36.540,12.840,baseline
1326.000,393.600,108.900,30.260,1571.000,427.300,112.900,29.460,182.600,55.480,17.470,6.029,379.500,118.400,36.630,12.880,baseline
1330.000,396.600,109.500,30.430,1576.000,428.700,113.100,29.520,180.200,56.180,17.470,6.049,379.700,119.000,36.880,13.000,baseline
1335.000,397.200,109.600,30.600,1577.000,429.200,113.100,29.620,179.100,56.570,17.440,6.085,381.500,119.500,36.950,13.070,baseline
1341.000,396.700,110.100,30.730,1578.000,429.600,113.600,29.680,181.800,55.940,17.580,6.089,382.300,120.000,37.240,13.150,baseline
1349.000,400.400,111.000,30.730,1580.000,429.800,113.100,29.520,182.400,56.440,17.580,6.082,383.600,119.400,37.020,12.930,baseline
1323.000,391.100,108.100,30.020,1568.000,425.800,112.100,29.320,179.400,56.310,17.390,6.067,378.900,118.400,36.490,12.760,baseline
1315.000,390.400,107.800,29.870,1566.000,425.100,112.000,29.250,180.500,56.160,17.420,6.028,378.200,118.100,36.390,12.670,baseline
1311.000,389.200,107.400,29.800,1562.000,425.400,112.400,29.320,182.000,55.770,17.460,6.014,377.600,118.100,36.330,12.730,baseline
1315.000,390.000,107.700,29.890,1565.000,426.000,112.100,29.340,177.500,56.140,17.340,6.037,378.300,118.500,36.410,12.730,baseline
1315.000,391.000,108.000,29.900,1565.000,426.500,112.200,29.280,178.900,56.060,17.410,6.020,377.400,118.300,36.490,12.770,baseline
1318.000,392.300,108.200,30.070,1567.000,427.100,112.700,29.400,184.200,55.740,17.480,6.051,379.200,118.800,36.740,12.840,baseline
1324.000,393.800,108.800,30.220,1567.000,427.500,112.900,29.470,180.400,56.410,17.460,6.072,380.200,119.700,36.670,12.940,baseline
1328.000,394.600,109.000,30.310,1572.000,428.200,112.900,29.550,178.500,56.480,17.440,6.064,380.300,119.500,36.930,12.970,baseline
1332.000,396.000,109.600,30.390,1577.000,429.400,112.800,29.560,184.800,56.090,17.540,6.058,382.100,120.300,37.160,13.050,baseline
1337.000,397.400,109.600,30.520,1575.000,429.600,113.500,29.580,182.300,56.150,17.620,6.099,383.300,120.700,37.150,13.190,baseline
1343.000,400.300,110.900,30.800,1577.000,429.500,113.800,29.640,181.900,56.880,17.590,6.104,386.800,121.200,37.590,13.170,baseline
1341.000,397.700,109.800,30.160,1570.000,427.200,112.300,29.330,184.500,56.510,17.570,6.072,382.400,119.500,36.790,12.820,baseline
1314.000,387.900,107.600,29.810,1562.000,424.900,112.100,29.260,181.300,55.620,17.500,6.015,379.200,118.800,36.540,12.770,baseline
1309.000,388.700,107.200,29.560,1563.000,423.700,111.700,29.150,178.300,55.990,17.410,6.030,377.900,118.400,36.300,12.640,baseline
1306.000,386.500,106.800,29.510,1558.000,424.800,111.900,29.220,182.200,55.960,17.430,6.013,378.700,118.500,36.410,12.650,baseline
1308.000,387.700,107.300,29.550,1559.000,424.200,111.800,29.250,182.200,56.300,17.370,6.024,378.600,118.200,36.310,12.680,baseline
1308.000,388.200,107.300,29.660,1561.000,424.400,111.900,29.240,179.500,56.390,17.420,6.041,377.400,118.900,36.490,12.770,baseline
1312.000,389.300,107.600,29.650,1565.000,424.900,112.600,29.310,182.200,56.190,17.500,6.033,378.700,118.800,36.650,12.780,baseline
1316.000,389.800,108.200,29.940,1567.000,425.400,112.600,29.360,182.100,55.990,17.480,6.060,379.200,119.400,36.630,12.870,baseline
1320.000,392.200,108.100,29.980,1566.000,425.400,112.600,29.470,180.000,56.380,17.520,6.083,379.900,119.700,36.890,12.880,baseline
1324.000,392.800,108.600,30.090,1569.000,426.000,112.600,29.470,181.700,56.130,17.490,6.067,381.000,120.100,37.060,12.950,baseline
1328.000,395.400,109.300,30.250,1573.000,427.100,112.800,29.550,183.800,56.210,17.610,6.094,381.100,120.300,37.210,13.030,baseline
1333.000,395.000,109.800,30.370,1576.000,428.500,113.300,29.610,180.800,56.910,17.560,6.110,383.100,120.900,37.330,13.090,baseline
1339.000,396.400,110.300,30.470,1578.000,427.400,112.500,29.500,179.300,57.000,17.630,6.106,383.700,120.600,37.130,12.910,baseline
1317.000,389.500,107.600,29.670,1562.000,424.100,111.800,29.190,184.800,56.040,17.520,6.052,378.700,118.900,36.700,12.690,baseline
1305.000,385.900,107.400,29.430,1558.000,422.600,111.800,29.100,181.400,56.060,17.400,6.027,377.200,118.200,36.160,12.610,baseline
1299.000,385.200,106.100,29.340,1554.000,422.000,111.500,29.170,178.100,56.160,17.360,6.023,375.600,118.200,36.300,12.550,baseline
1299.000,384.200,106.200,29.320,1554.000,423.100,111.400,29.230,181.200,55.920,17.410,6.002,375.500,118.000,36.210,12.560,baseline
1299.000,383.900,106.400,29.330,1556.000,422.600,111.400,29.220,180.600,55.840,17.390,6.019,374.500,117.900,36.240,12.610,baseline
1301.000,385.400,106.500,29.430,1559.000,421.900,111.800,29.320,177.700,56.090,17.380,6.029,376.300,118.400,36.170,12.630,baseline
1305.000,385.200,106.800,29.610,1557.000,423.400,111.900,29.280,180.400,56.120,17.390,6.032,376.000,118.500,36.520,12.630,baseline
1308.000,387.300,106.900,29.620,1561.000,424.400,112.000,29.420,180.900,56.080,17.460,6.043,376.200,118.900,36.460,12.740,baseline
1312.000,388.500,107.500,29.790,1564.000,423.900,112.000,29.380,179.300,56.330,17.480,6.068,377.100,119.300,36.700,12.760,baseline
1315.000,388.900,108.200,29.840,1563.000,425.300,112.300,29.510,181.000,56.190,17.460,6.061,378.100,119.400,36.890,12.820,baseline
1320.000,389.600,108.300,30.100,1565.000,425.800,112.400,29.560,182.600,56.290,17.470,6.093,379.100,119.900,36.930,12.920,baseline
1325.000,393.300,108.900,30.160,1568.000,426.500,112.800,29.630,180.100,56.910,17.510,6.109,380.200,120.500,37.070,12.970,baseline
1330.000,393.400,109.200,30.380,1572.000,426.900,112.800,29.540,181.800,56.690,17.580,6.124,381.300,120.500,37.030,12.920,baseline
1317.000,389.200,107.400,29.630,1559.000,422.700,111.700,29.230,183.100,55.940,17.540,6.050,376.200,118.700,36.460,12.650,baseline
1299.000,384.300,106.400,29.390,1553.000,422.300,111.400,29.250,180.400,56.290,17.410,6.019,374.600,118.400,36.090,12.560,baseline
1295.000,381.100,105.500,29.260,1549.000,420.800,111.000,29.150,180.000,56.170,17.350,6.018,372.100,117.100,35.850,12.430,baseline
1292.000,383.600,105.900,29.290,1551.000,420.800,111.500,29.230,180.900,55.610,17.340,6.006,371.800,117.500,35.880,12.480,baseline
1293.000,382.500,105.400,29.280,1552.000,421.800,111.700,29.190,179.300,55.500,17.320,6.019,371.400,117.300,35.890,12.520,baseline
1296.000,382.900,105.900,29.340,1554.000,422.600,111.700,29.300,177.800,56.090,17.320,6.016,372.100,117.400,36.120,12.520,baseline
1301.000,383.700,106.200,29.540,1558.000,421.900,111.700,29.340,181.100,55.590,17.330,6.018,373.400,117.800,36.140,12.600,baseline
1304.000,385.100,107.000,29.640,1559.000,422.600,112.100,29.460,180.600,55.950,17.360,6.046,373.600,118.100,36.200,12.650,baseline
1308.000,386.500,107.100,29.750,1559.000,424.200,112.200,29.520,178.200,56.330,17.380,6.050,373.600,118.300,36.320,12.680,baseline
1313.000,387.300,107.400,29.850,1563.000,425.400,112.400,29.530,179.300,56.050,17.450,6.067,375.400,118.400,36.550,12.700,baseline
1318.000,389.600,108.100,30.000,1564.000,425.300,112.500,29.590,181.600,56.020,17.500,6.060,375.500,119.000,36.680,12.800,baseline
1324.000,392.400,108.500,30.260,1571.000,427.600,113.000,29.770,177.800,56.510,17.500,6.098,377.900,119.700,36.770,12.860,baseline
1329.000,393.000,108.700,30.270,1570.000,426.800,112.700,29.510,178.300,56.250,17.500,6.096,378.000,119.000,36.580,12.690,baseline
1309.000,386.100,107.000,29.610,1557.000,423.300,111.800,29.420,181.600,56.020,17.410,6.016,373.100,117.400,35.930,12.520,baseline
1300.000,383.800,106.500,29.420,1556.000,422.800,111.700,29.310,179.400,55.840,17.360,6.033,371.000,117.000,35.820,12.470,baseline
1296.000,382.400,106.200,29.370,1552.000,422.700,111.800,29.340,179.600,55.990,17.330,6.001,371.400,116.600,35.690,12.390,baseline
1298.000,383.000,106.100,29.470,1554.000,422.700,111.700,29.370,180.400,55.640,17.270,6.013,370.500,116.500,35.620,12.430,baseline
1298.000,384.100,106.400,29.460,1560.000,423.100,111.900,29.410,179.300,56.110,17.250,6.017,370.100,116.400,35.530,12.460,baseline
1301.000,385.800,106.400,29.540,1558.000,423.800,112.300,29.440,178.000,55.910,17.310,6.027,371.800,117.000,35.800,12.500,baseline
1306.000,386.500,107.200,29.720,1559.000,424.800,112.200,29.520,180.000,55.840,17.360,6.015,372.400,117.100,36.000,12.540,baseline
1310.000,387.400,106.900,29.830,1561.000,425.500,112.500,29.590,180.700,56.000,17.370,6.039,372.800,117.800,36.020,12.630,baseline
1315.000,389.100,108.100,30.000,1566.000,426.000,112.700,29.650,177.000,56.190,17.410,6.065,374.000,117.700,36.320,12.680,baseline
1319.000,390.100,108.300,30.130,1565.000,426.400,112.900,29.680,182.100,56.090,17.460,6.054,376.100,118.400,36.480,12.750,baseline
1325.000,393.700,108.800,30.240,1572.000,427.600,113.200,29.770,180.700,56.270,17.440,6.071,376.700,119.100,36.420,12.830,baseline
1328.000,393.400,108.700,30.250,1568.000,425.300,112.400,29.520,177.000,56.600,17.460,6.071,376.000,118.100,36.070,12.600,baseline
1303.000,386.400,106.400,29.620,1553.000,424.100,112.000,29.460,181.100,56.090,17.380,6.021,372.200,116.900,35.800,12.450,baseline
1299.000,385.400,106.400,29.440,1558.000,424.400,111.800,29.410,181.700,55.800,17.360,6.027,370.500,116.700,35.610,12.370,baseline
1295.000,383.100,105.700,29.290,1554.000,423.500,111.900,29.390,177.400,56.350,17.280,6.016,369.700,116.300,35.410,12.390,baseline
1298.000,385.200,105.900,29.430,1554.000,422.900,112.100,29.380,177.800,56.230,17.380,5.997,371.400,116.400,35.580,12.410,baseline
1298.000,386.000,106.100,29.540,1555.000,424.100,112.200,29.500,183.200,55.680,17.340,6.012,371.500,116.500,35.640,12.430,baseline
1304.000,387.000,106.900,29.620,1560.000,424.100,112.000,29.460,177.500,56.280,17.300,6.039,371.800,117.400,35.750,12.480,baseline
1307.000,388.600,107.400,29.730,1558.000,424.800,112.600,29.620,178.500,55.990,17.430,6.049,374.300,117.800,35.960,12.570,baseline
1311.000,389.000,107.900,29.900,1562.000,425.600,112.900,29.600,182.300,55.890,17.470,6.074,374.800,118.300,36.030,12.590,baseline
1316.000,389.700,108.300,30.060,1565.000,428.000,113.000,29.740,178.400,56.570,17.460,6.096,376.100,118.600,36.350,12.720,baseline
1324.000,392.900,108.600,30.250,1572.000,427.600,113.200,29.780,179.200,56.430,17.510,6.091,377.500,119.200,36.570,12.770,baseline
1328.000,395.200,109.300,30.430,1574.000,429.200,113.500,29.900,181.800,56.750,17.610,6.125,379.700,119.600,36.770,12.910,baseline
1335.000,396.700,109.600,30.560,1573.000,429.200,113.800,29.970,181.600,56.760,17.650,6.131,381.500,120.600,36.880,12.970,baseline
1335.000,395.800,108.800,30.150,1567.000,427.000,112.600,29.570,179.800,56.830,17.600,6.108,378.100,118.800,36.300,12.600,baseline
1308.000,388.400,106.900,29.680,1555.000,425.200,112.500,29.430,184.000,56.370,17.470,6.056,375.300,118.100,36.040,12.500,baseline
1304.000,386.600,106.800,29.510,1561.000,423.700,112.200,29.370,181.500,56.490,17.420,6.064,373.300,117.800,35.710,12.500,baseline
1300.000,386.300,106.200,29.560,1556.000,424.300,112.300,29.450,177.800,56.560,17.400,6.044,373.700,117.600,35.930,12.490,baseline
1304.000,386.200,106.600,29.610,1558.000,424.400,112.400,29.530,180.800,56.090,17.520,6.040,373.700,117.700,35.860,12.510,baseline
1305.000,386.000,106.800,29.610,1562.000,425.400,112.300,29.550,181.900,56.540,17.460,6.056,375.000,118.100,36.010,12.600,baseline
1310.000,388.400,107.400,29.780,1563.000,426.000,112.900,29.640,177.900,56.710,17.470,6.063,375.900,118.600,36.140,12.650,baseline
1314.000,389.900,108.000,29.870,1566.000,426.500,113.000,29.630,179.500,56.360,17.510,6.076,376.600,118.800,36.360,12.690,baseline
1318.000,390.900,108.300,30.070,1563.000,426.900,113.100,29.740,183.500,56.770,17.620,6.109,379.100,119.600,36.490,12.800,baseline
1324.000,392.500,108.800,30.250,1573.000,428.000,113.400,29.800,179.400,56.940,17.600,6.109,379.000,120.100,36.540,12.820,baseline
1329.000,394.500,109.500,30.450,1573.000,428.800,113.600,29.800,180.200,57.020,17.640,6.112,381.700,120.600,36.890,12.910,baseline
1335.000,397.000,110.100,30.480,1573.000,429.100,113.900,29.930,184.100,56.650,17.700,6.142,383.000,121.000,37.190,13.030,baseline
1340.000,398.300,110.500,30.740,1577.000,430.400,113.800,30.010,180.200,57.380,17.700,6.160,384.000,121.800,37.320,13.120,baseline
1346.000,400.000,110.700,30.610,1579.000,427.900,113.700,29.680,182.600,57.450,17.820,6.183,384.400,121.300,36.900,12.880,baseline
1318.000,390.600,107.700,29.790,1563.000,425.500,112.600,29.600,184.800,56.680,17.620,6.101,379.300,119.800,36.560,12.640,baseline
1310.000,388.600,107.300,29.710,1564.000,425.200,112.500,29.510,181.200,56.740,17.560,6.089,378.000,119.000,36.180,12.620,baseline
1305.000,387.300,106.800,29.600,1560.000,424.100,112.500,29.480,179.400,56.850,17.450,6.072,377.500,119.100,36.230,12.620,baseline
1306.000,387.900,107.300,29.650,1564.000,424.500,112.500,29.550,182.800,56.560,17.540,6.058,377.600,119.300,36.420,12.610,baseline
1307.000,388.200,107.900,29.750,1559.000,425.000,112.700,29.620,180.900,56.350,17.530,6.075,378.300,119.500,36.380,12.690,baseline
1311.000,387.500,107.700,29.910,1564.000,425.600,112.900,29.670,180.200,56.880,17.600,6.089,378.700,119.800,36.480,12.720,baseline
1317.000,388.900,108.500,30.030,1569.000,426.500,113.100,29.650,182.600,56.500,17.590,6.103,379.900,120.000,36.630,12.790,baseline
1321.000,391.000,108.500,30.200,1572.000,427.500,113.400,29.730,182.800,56.560,17.610,6.113,380.600,120.500,36.750,12.870,baseline
1326.000,392.800,109.000,30.320,1570.000,427.500,113.300,29.810,180.400,57.040,17.660,6.121,382.600,121.100,36.980,12.960,baseline
1330.000,394.100,109.700,30.460,1571.000,428.300,113.800,29.880,183.000,56.790,17.720,6.141,384.300,121.800,37.230,12.990,baseline
1336.000,397.300,110.300,30.680,1577.000,429.700,114.000,29.990,183.800,57.170,17.760,6.164,385.000,122.500,37.330,13.130,baseline
1342.000,399.400,110.600,30.820,1579.000,430.500,114.400,30.090,182.400,57.590,17.710,6.176,387.100,122.900,37.620,13.220,baseline
1348.000,400.400,111.500,31.010,1584.000,430.300,114.000,29.900,181.500,57.410,17.760,6.167,386.600,123.000,37.660,13.060,baseline
1330.000,392.300,108.700,30.180,1565.000,425.800,112.800,29.590,182.300,56.800,17.700,6.119,382.800,120.700,36.740,12.850,baseline
1313.000,388.500,108.300,29.910,1560.000,425.100,112.800,29.520,181.300,56.740,17.550,6.095,379.800,120.500,36.720,12.760,baseline
1309.000,387.100,107.300,29.760,1563.000,425.000,112.400,29.520,179.200,56.860,17.550,6.081,378.900,119.800,36.480,12.700,baseline
1308.000,387.400,107.900,29.810,1562.000,425.200,112.800,29.580,182.400,56.540,17.610,6.082,380.600,120.100,36.630,12.690,baseline
1310.000,388.400,107.800,29.970,1568.000,425.100,112.500,29.610,179.400,56.750,17.570,6.092,378.600,120.500,36.540,12.790,baseline
1313.000,388.300,108.100,30.030,1565.000,427.100,112.900,29.700,177.800,56.870,17.570,6.090,380.300,120.700,36.780,12.820,baseline
1318.000,390.700,108.900,30.200,1567.000,427.100,113.100,29.730,184.500,56.670,17.600,6.077,381.700,121.300,36.920,12.870,baseline
1325.000,391.800,109.300,30.460,1570.000,427.400,113.200,29.790,181.000,57.020,17.600,6.102,381.600,121.300,36.970,12.950,baseline
1328.000,395.500,109.500,30.470,1572.000,428.000,113.500,29.860,180.200,57.180,17.580,6.125,383.700,121.800,37.160,12.990,baseline
1334.000,396.000,110.200,30.660,1576.000,429.000,113.800,29.880,183.000,56.800,17.710,6.115,384.100,122.000,37.420,13.070,baseline
1339.000,397.100,110.600,30.870,1580.000,429.500,114.000,30.010,184.800,57.150,17.750,6.153,385.200,122.800,37.630,13.170,baseline
1345.000,400.300,111.500,31.090,1583.000,430.500,114.100,30.120,179.500,57.520,17.720,6.169,387.600,123.500,37.810,13.230,baseline
1351.000,399.500,111.200,30.920,1577.000,428.500,113.300,29.740,183.500,57.630,17.760,6.142,385.500,121.900,37.270,12.900,baseline
1319.000,390.300,108.200,30.170,1565.000,425.900,112.900,29.620,184.700,56.920,17.620,6.074,381.600,121.200,36.910,12.860,baseline
1315.000,389.200,108.400,30.100,1566.000,425.700,112.700,29.550,181.200,57.060,17.560,6.098,379.700,120.500,36.650,12.770,baseline
1311.000,388.000,108.400,30.060,1565.000,426.000,113.000,29.670,181.000,56.880,17.620,6.078,380.100,120.400,36.710,12.770,baseline
1315.000,388.200,108.100,30.110,1565.000,426.100,112.600,29.610,182.900,56.630,17.560,6.070,379.600,120.500,36.680,12.820,baseline
1315.000,388.600,108.300,30.230,1564.000,426.200,112.800,29.660,180.100,56.910,17.510,6.085,378.400,120.700,36.700,12.850,baseline
1319.000,392.300,108.900,30.380,1569.000,427.300,113.200,29.710,180.700,57.150,17.570,6.098,379.400,120.900,36.950,12.910,baseline
1324.000,391.700,109.300,30.560,1571.000,428.200,113.500,29.830,184.200,56.670,17.590,6.087,382.100,121.200,37.210,12.990,baseline
1329.000,394.300,109.600,30.750,1573.000,429.000,113.800,29.900,182.200,57.010,17.580,6.120,382.700,121.900,37.190,13.020,baseline
1334.000,396.200,110.400,30.800,1572.000,428.600,113.600,29.900,180.300,57.120,17.640,6.124,383.700,122.100,37.380,13.090,baseline
1339.000,397.000,111.200,31.010,1577.000,430.500,114.100,30.030,183.600,56.970,17.700,6.135,384.800,122.600,37.470,13.230,baseline
1346.000,398.400,111.800,31.180,1583.000,431.900,114.400,30.030,183.900,57.150,17.700,6.162,386.800,122.900,37.740,13.210,baseline
1344.000,397.900,110.400,30.680,1573.000,427.500,113.300,29.600,181.500,57.590,17.630,6.120,382.500,121.300,37.000,12.830,baseline
1314.000,390.400,108.200,30.200,1566.000,426.800,112.800,29.600,180.900,56.810,17.550,6.053,379.800,120.200,36.730,12.750,baseline
1310.000,388.400,107.800,30.090,1562.000,425.200,112.200,29.540,183.000,56.880,17.460,6.047,377.600,119.900,36.430,12.690,baseline
1307.000,388.800,107.900,30.010,1558.000,426.400,112.700,29.560,178.700,56.680,17.440,6.050,376.500,119.900,36.520,12.710,baseline
1310.000,388.200,108.200,30.130,1560.000,425.500,112.500,29.590,181.100,56.510,17.490,6.044,377.700,119.400,36.590,12.680,baseline
1310.000,390.400,108.300,30.270,1564.000,426.000,112.800,29.680,184.500,56.590,17.520,6.070,376.800,119.700,36.470,12.790,baseline
1316.000,391.800,109.000,30.370,1563.000,427.200,113.000,29.740,176.900,56.770,17.490,6.059,378.100,120.000,36.510,12.800,baseline
1321.000,392.000,109.600,30.500,1573.000,428.700,113.300,29.770,181.100,56.560,17.520,6.093,379.200,120.400,36.760,12.850,baseline
1327.000,394.500,109.900,30.620,1573.000,429.200,113.600,29.800,184.400,56.770,17.580,6.089,381.400,120.900,36.920,12.980,baseline
1332.000,397.100,109.900,30.800,1573.000,429.500,113.900,29.910,181.000,56.940,17.560,6.123,381.600,121.400,37.070,13.020,baseline
1338.000,398.200,111.000,31.020,1577.000,430.300,114.100,29.970,183.400,57.080,17.680,6.132,383.000,121.700,37.270,13.090,baseline
1344.000,400.900,111.400,31.220,1580.000,431.700,114.100,30.120,183.800,57.050,17.700,6.141,384.500,122.100,37.490,13.190,baseline
1352.000,400.200,112.000,31.330,1584.000,432.500,114.400,29.930,181.600,57.320,17.740,6.167,385.700,122.600,37.280,13.070,baseline
1332.000,394.600,109.400,30.440,1569.000,427.100,113.100,29.630,178.400,56.920,17.590,6.083,379.500,120.000,36.600,12.810,baseline
1314.000,390.100,108.800,30.140,1564.000,427.400,112.900,29.610,182.700,56.630,17.530,6.037,378.000,119.300,36.350,12.690,baseline
1310.000,389.100,108.000,30.030,1563.000,426.000,112.800,29.530,181.700,56.540,17.450,6.044,375.800,118.700,36.140,12.640,baseline
1309.000,389.900,108.000,30.110,1562.000,427.100,112.900,29.560,177.200,56.680,17.400,6.021,375.800,119.000,36.290,12.670,baseline
1311.000,390.500,108.100,30.170,1565.000,426.700,113.100,29.560,181.100,56.580,17.510,6.051,376.000,118.900,36.310,12.680,baseline
1314.000,391.700,108.700,30.320,1565.000,428.400,113.100,29.600,180.900,56.270,17.490,6.065,377.100,119.400,36.430,12.730,baseline
1319.000,394.000,108.600,30.450,1571.000,428.400,113.200,29.650,178.300,56.640,17.470,6.074,378.000,119.600,36.540,12.800,baseline
