A-DC1,A-DC2,A-DC3,A-DC4,A-DC5,A-DC6,A-DC7,A-DC8,B-DC1,B-DC2,B-DC3,B-DC4,B-DC5,B-DC6,B-DC7,B-DC8,condition
1291.000,275.900,44.600,11.170,1449.000,300.500,55.590,12.810,195.900,60.810,15.010,4.645,369.800,101.400,24.020,7.387,baseline
1285.000,274.200,44.170,11.070,1446.000,299.700,55.110,12.850,190.900,60.640,14.990,4.639,370.300,102.000,24.040,7.393,baseline
1289.000,274.300,44.840,11.160,1443.000,300.300,55.430,12.800,193.500,60.810,14.920,4.631,371.000,101.800,24.100,7.380,baseline
1287.000,274.800,44.810,11.190,1449.000,299.900,55.480,12.830,194.700,60.710,14.950,4.656,370.200,102.300,23.970,7.419,baseline
1290.000,275.200,44.200,11.240,1455.000,301.800,54.830,12.960,193.300,60.470,15.050,4.665,373.200,102.400,24.230,7.444,baseline
1295.000,276.500,44.820,11.380,1456.000,303.400,56.540,13.010,195.900,60.760,15.030,4.686,375.700,103.500,24.480,7.553,baseline
1302.000,278.100,44.580,11.540,1458.000,303.700,56.300,13.120,196.900,61.180,15.130,4.684,378.100,104.000,24.580,7.574,baseline
1311.000,281.500,45.220,11.670,1461.000,305.000,56.970,13.240,199.500,61.550,15.220,4.733,382.500,105.300,24.990,7.676,baseline
1318.000,280.400,45.670,11.640,1455.000,303.900,56.630,13.070,197.000,62.270,15.210,4.705,378.100,103.300,24.220,7.446,baseline
1287.000,274.800,43.920,11.280,1446.000,301.500,55.060,12.910,196.700,60.840,15.050,4.650,369.700,101.800,24.030,7.362,baseline
1280.000,272.400,43.190,11.200,1451.000,300.400,55.430,12.930,192.000,60.810,14.890,4.648,368.800,101.500,23.980,7.386,baseline
1280.000,273.200,44.600,11.200,1445.000,300.100,55.590,12.910,197.800,61.030,14.970,4.646,370.100,101.800,23.950,7.373,baseline
1278.000,272.300,44.020,11.210,1448.000,300.500,55.310,12.930,197.100,60.890,14.990,4.658,369.500,102.200,24.050,7.415,baseline
1278.000,273.400,44.090,11.230,1441.000,301.200,55.790,13.000,195.200,60.870,14.990,4.663,371.000,102.200,24.070,7.454,baseline
1285.000,274.900,44.950,11.320,1451.000,303.100,55.620,13.120,195.300,60.920,15.040,4.696,374.300,102.900,24.320,7.506,baseline
1293.000,275.900,46.730,11.460,1456.000,304.900,56.100,13.150,198.100,61.290,15.170,4.712,378.600,103.900,24.540,7.595,baseline
1302.000,279.500,46.380,11.650,1459.000,306.600,56.920,13.300,199.600,61.600,15.230,4.748,381.600,105.000,24.860,7.658,baseline
1312.000,282.500,45.600,11.760,1455.000,306.200,56.800,13.240,202.200,61.780,15.320,4.764,379.600,104.100,24.590,7.516,baseline
1290.000,274.200,44.500,11.370,1450.000,302.900,56.140,13.070,199.400,61.120,15.040,4.675,370.100,102.000,23.930,7.373,baseline
1277.000,272.100,43.890,11.280,1446.000,300.300,55.650,13.000,200.700,60.640,14.990,4.655,368.300,101.700,24.080,7.409,baseline
1277.000,273.400,43.860,11.350,1447.000,303.000,55.830,13.060,191.200,60.980,14.960,4.685,370.700,102.400,24.130,7.438,baseline
1279.000,274.000,43.830,11.320,1448.000,302.600,55.820,13.080,197.100,61.070,15.000,4.699,371.000,102.200,24.030,7.413,baseline
1279.000,273.100,44.050,11.380,1450.000,302.600,56.500,13.140,196.100,60.840,15.090,4.696,372.100,102.400,24.170,7.473,baseline
1286.000,276.600,44.130,11.430,1452.000,304.200,56.350,13.290,198.900,61.220,15.090,4.715,374.700,103.600,24.430,7.529,baseline
1295.000,278.900,46.250,11.650,1463.000,306.200,57.010,13.380,197.700,61.310,15.210,4.725,378.100,104.300,24.580,7.630,baseline
1306.000,281.100,47.220,11.850,1468.000,307.700,57.650,13.510,202.000,62.090,15.350,4.747,380.200,105.400,24.840,7.684,baseline
1315.000,282.800,46.290,11.930,1465.000,307.100,56.440,13.370,206.500,62.360,15.330,4.789,382.700,105.100,24.580,7.534,baseline
1294.000,275.400,45.850,11.540,1449.000,303.900,56.520,13.270,195.700,61.120,15.200,4.704,371.000,101.900,24.100,7.434,baseline
1281.000,275.300,45.140,11.440,1446.000,303.300,55.720,13.150,199.500,60.800,15.060,4.674,369.900,101.700,24.020,7.397,baseline
1282.000,274.100,43.840,11.250,1445.000,303.300,55.060,12.790,195.200,61.230,15.070,4.692,373.600,102.700,24.270,7.451,baseline
1284.000,273.600,43.720,10.980,1451.000,301.300,54.380,12.660,199.400,61.390,15.160,4.696,373.500,102.800,24.230,7.439,baseline
1284.000,271.700,42.050,10.900,1458.000,302.500,54.620,12.750,196.200,61.650,15.240,4.718,376.400,103.400,24.410,7.464,baseline
1290.000,273.700,42.960,11.050,1457.000,303.900,54.970,12.870,199.000,61.740,15.230,4.727,379.900,104.300,24.660,7.579,baseline
1299.000,275.700,44.150,11.240,1460.000,304.900,56.010,13.000,201.500,62.300,15.350,4.754,384.100,105.400,24.950,7.672,baseline
1311.000,279.700,45.210,11.600,1472.000,305.900,55.860,13.140,201.700,62.270,15.510,4.809,388.500,106.300,25.060,7.629,baseline
1301.000,277.000,45.060,11.270,1454.000,303.100,55.490,12.920,201.800,62.520,15.300,4.751,376.200,102.800,24.260,7.429,baseline
1282.000,273.000,45.510,11.200,1449.000,303.500,55.740,13.020,196.300,61.440,15.160,4.726,372.800,102.400,24.250,7.426,baseline
1282.000,273.500,44.880,11.250,1455.000,303.900,55.960,13.090,198.600,61.490,15.200,4.722,371.200,102.800,24.150,7.481,baseline
1290.000,275.900,45.440,11.420,1457.000,304.500,56.070,13.150,196.100,61.670,15.270,4.748,374.800,102.900,24.310,7.475,baseline
1291.000,274.100,44.370,11.500,1457.000,305.200,56.320,13.240,197.500,61.420,15.280,4.728,373.700,103.400,24.270,7.464,baseline
1297.000,277.800,45.740,11.530,1465.000,306.300,57.180,13.370,198.800,61.890,15.280,4.740,376.000,104.000,24.540,7.580,baseline
1308.000,282.000,46.040,11.790,1471.000,308.900,58.470,13.490,201.100,62.070,15.340,4.778,381.900,105.500,24.800,7.659,baseline
1320.000,283.400,45.180,11.820,1463.000,307.300,57.200,13.330,199.300,62.570,15.430,4.767,380.200,104.200,24.340,7.450,baseline
1293.000,276.700,45.170,11.420,1454.000,303.900,56.780,13.220,194.600,61.270,15.230,4.727,370.100,102.000,23.910,7.344,baseline
1285.000,276.200,44.420,11.390,1456.000,303.400,56.020,13.250,198.700,61.050,15.180,4.727,371.400,101.800,24.060,7.407,baseline
1292.000,276.400,45.300,11.570,1459.000,306.000,56.400,13.310,197.800,61.520,15.220,4.731,374.200,103.400,24.230,7.430,baseline
1296.000,278.000,45.070,11.540,1462.000,306.200,57.190,13.350,196.900,61.630,15.190,4.749,374.500,103.700,24.280,7.463,baseline
1301.000,279.300,46.130,11.730,1463.000,307.700,57.820,13.480,197.500,62.260,15.280,4.763,376.100,104.000,24.540,7.506,baseline
1310.000,281.600,46.790,11.850,1473.000,309.400,57.500,13.620,199.500,62.180,15.390,4.769,381.200,104.700,24.870,7.622,baseline
1323.000,283.700,46.590,12.030,1481.000,311.700,58.280,13.660,197.200,62.650,15.530,4.804,385.800,106.200,24.900,7.659,baseline
1320.000,283.000,47.230,11.760,1463.000,306.700,57.210,13.450,202.500,62.510,15.380,4.786,377.600,103.400,24.160,7.392,baseline
1295.000,276.400,44.650,11.580,1460.000,306.100,57.450,13.400,200.100,61.790,15.210,4.741,371.900,102.600,24.040,7.434,baseline
1297.000,278.600,45.920,11.670,1466.000,308.100,57.370,13.460,196.000,61.600,15.280,4.776,374.900,103.500,24.290,7.501,baseline
1305.000,280.900,45.320,11.740,1471.000,307.900,58.160,13.480,197.800,62.270,15.330,4.775,377.100,103.800,24.290,7.479,baseline
1306.000,281.200,46.110,11.800,1468.000,308.400,58.180,13.530,200.600,62.110,15.390,4.761,378.500,104.300,24.540,7.534,baseline
1313.000,282.100,45.040,11.900,1481.000,309.900,58.400,13.690,198.900,62.500,15.480,4.816,381.400,105.000,24.720,7.624,baseline
1323.000,285.100,46.150,12.100,1484.000,311.900,59.180,13.780,201.400,62.790,15.550,4.840,385.100,106.100,25.000,7.715,baseline
1335.000,288.000,47.880,12.190,1481.000,310.600,57.940,13.590,205.200,63.080,15.590,4.852,386.300,105.600,24.860,7.560,baseline
1310.000,280.000,45.880,11.730,1463.000,306.900,57.260,13.520,199.800,62.260,15.420,4.773,376.800,103.400,24.230,7.446,baseline
1301.000,279.500,45.630,11.710,1470.000,307.600,58.110,13.500,198.800,62.040,15.310,4.759,377.500,103.700,24.340,7.534,baseline
1307.000,281.900,45.900,11.810,1475.000,308.500,57.150,13.560,200.800,62.210,15.390,4.780,381.500,104.800,24.500,7.577,baseline
1312.000,282.000,46.010,11.820,1476.000,308.400,57.220,13.590,202.300,62.480,15.440,4.812,381.300,104.500,24.650,7.559,baseline
1312.000,283.400,46.800,11.870,1470.000,309.000,58.320,13.630,202.400,62.700,15.430,4.808,382.800,105.100,24.690,7.633,baseline
1321.000,285.000,46.890,12.020,1482.000,310.500,58.520,13.730,202.000,63.070,15.520,4.860,386.800,106.300,24.930,7.704,baseline
1332.000,288.200,48.120,12.110,1485.000,311.100,58.780,13.640,203.500,63.190,15.560,4.871,390.200,106.500,25.030,7.662,baseline
1319.000,283.600,46.520,11.770,1470.000,307.700,58.000,13.470,202.300,62.740,15.470,4.803,379.600,103.700,24.340,7.478,baseline
1302.000,280.200,45.830,11.620,1464.000,307.700,57.580,13.430,201.700,62.420,15.250,4.783,378.800,103.800,24.370,7.465,baseline
1304.000,280.300,44.870,11.630,1475.000,306.700,57.230,13.350,201.800,62.150,15.440,4.810,381.100,104.900,24.650,7.580,baseline
1308.000,279.400,46.060,11.560,1473.000,306.300,56.210,13.220,204.600,62.410,15.470,4.821,382.100,104.800,24.730,7.605,baseline
1307.000,279.700,45.610,11.370,1469.000,305.000,55.270,12.920,201.200,62.270,15.510,4.823,385.400,105.300,24.780,7.631,baseline
1310.000,277.500,45.340,11.210,1468.000,304.800,54.690,13.040,201.100,62.630,15.560,4.840,389.000,105.900,25.040,7.764,baseline
1320.000,280.500,46.630,11.590,1478.000,308.900,56.680,13.330,206.200,62.970,15.710,4.874,393.900,107.600,25.340,7.829,baseline
1321.000,280.600,46.100,11.550,1469.000,304.600,55.990,13.070,204.400,62.930,15.600,4.844,385.200,104.800,24.690,7.566,baseline
1298.000,274.100,44.820,11.170,1463.000,302.800,54.400,12.720,202.700,62.280,15.390,4.793,381.600,104.200,24.540,7.541,baseline
1296.000,272.800,42.100,10.950,1463.000,301.100,55.310,12.810,200.500,62.180,15.460,4.815,384.300,104.600,24.710,7.594,baseline
1302.000,274.300,43.590,11.150,1470.000,303.500,54.900,12.810,203.600,62.820,15.520,4.827,386.100,105.500,24.730,7.646,baseline
1300.000,275.400,42.860,11.110,1465.000,304.000,54.640,12.830,203.800,62.830,15.580,4.839,386.600,105.200,24.980,7.694,baseline
1308.000,276.900,43.380,11.300,1472.000,304.900,55.820,12.980,205.000,62.920,15.630,4.848,389.600,106.100,25.190,7.740,baseline
1317.000,279.900,44.910,11.560,1475.000,306.500,57.180,13.250,205.800,62.810,15.740,4.888,393.800,107.300,25.390,7.861,baseline
1330.000,284.900,46.260,11.690,1474.000,305.600,56.190,13.110,207.000,63.950,15.810,4.863,391.200,106.300,25.060,7.642,baseline
1305.000,276.700,44.480,11.300,1468.000,304.300,56.040,13.030,202.200,62.510,15.560,4.798,384.600,104.900,24.750,7.600,baseline
1301.000,276.500,44.370,11.320,1466.000,304.800,55.760,13.050,203.800,62.720,15.480,4.842,385.800,104.900,24.780,7.658,baseline
1306.000,279.200,45.440,11.450,1465.000,305.000,55.990,13.120,206.000,63.180,15.650,4.864,386.900,105.500,24.980,7.716,baseline
1309.000,278.700,43.470,11.410,1468.000,304.900,55.660,13.090,205.400,63.110,15.620,4.879,387.500,105.800,25.170,7.723,baseline
1313.000,279.400,45.510,11.580,1467.000,305.500,55.990,13.170,203.300,63.110,15.610,4.886,390.000,106.200,25.190,7.810,baseline
1320.000,283.200,45.580,11.690,1480.000,307.400,56.750,13.280,203.200,63.510,15.720,4.912,393.900,107.400,25.470,7.866,baseline
1332.000,283.900,45.600,11.880,1479.000,308.700,57.520,13.260,206.000,63.830,15.850,4.956,396.900,108.300,25.630,7.910,baseline
1327.000,282.000,45.480,11.620,1471.000,304.400,56.460,13.050,203.000,63.150,15.690,4.891,388.000,105.500,24.910,7.695,baseline
1309.000,279.700,44.980,11.510,1469.000,304.000,56.100,13.050,201.000,62.780,15.610,4.855,387.900,105.500,25.120,7.713,baseline
1312.000,281.800,44.620,11.510,1469.000,304.100,55.990,13.150,201.900,63.170,15.640,4.862,389.200,106.100,25.170,7.756,baseline
1318.000,281.000,46.110,11.590,1465.000,305.200,55.650,13.140,206.900,63.040,15.700,4.880,389.600,106.400,25.190,7.767,baseline
1319.000,282.500,45.090,11.600,1472.000,306.900,56.660,13.160,202.700,62.890,15.760,4.891,391.700,107.000,25.460,7.840,baseline
1326.000,284.900,46.340,11.730,1479.000,307.100,56.840,13.230,205.400,63.180,15.730,4.899,394.100,107.700,25.510,7.878,baseline
1335.000,286.900,46.550,11.820,1483.000,308.400,56.750,13.370,205.500,63.700,15.870,4.940,398.400,108.200,25.830,8.007,baseline
1346.000,289.700,46.630,11.950,1482.000,308.200,56.590,13.160,209.000,63.860,15.940,4.954,396.500,107.400,25.400,7.807,baseline
1323.000,281.400,45.530,11.500,1471.000,306.400,56.630,13.090,207.500,63.120,15.680,4.888,388.900,105.800,25.230,7.767,baseline
1321.000,282.700,45.210,11.560,1469.000,306.500,56.220,13.120,204.900,63.240,15.750,4.897,389.500,106.200,25.160,7.797,baseline
1326.000,282.100,44.910,11.670,1475.000,307.200,56.310,13.160,204.100,63.180,15.700,4.910,391.600,106.800,25.270,7.809,baseline
1328.000,281.300,45.370,11.760,1480.000,306.400,56.260,13.180,203.600,63.260,15.710,4.896,391.900,106.400,25.300,7.782,baseline
1330.000,285.000,46.220,11.770,1482.000,306.900,57.600,13.290,203.600,63.020,15.730,4.917,392.300,107.200,25.410,7.842,baseline
1336.000,287.200,45.830,11.850,1477.000,308.100,57.460,13.320,205.700,63.480,15.750,4.933,394.600,108.200,25.640,7.920,baseline
1345.000,290.500,48.250,12.010,1484.000,310.100,57.210,13.410,204.900,63.470,15.890,4.951,398.800,108.600,25.860,7.918,baseline
1339.000,284.400,46.180,11.680,1478.000,306.100,56.640,13.190,205.900,63.290,15.810,4.891,389.200,106.100,25.140,7.734,baseline
1322.000,281.200,45.410,11.590,1470.000,305.400,55.900,13.130,202.800,63.040,15.630,4.857,386.200,105.700,25.070,7.685,baseline
1321.000,281.900,45.580,11.640,1474.000,306.000,55.980,13.200,201.800,62.950,15.620,4.881,387.700,105.900,25.140,7.738,baseline
1326.000,283.800,46.460,11.580,1482.000,305.700,56.230,13.100,202.900,63.100,15.620,4.884,388.200,105.900,24.970,7.749,baseline
1325.000,282.800,46.060,11.670,1475.000,306.400,56.940,13.210,203.100,63.270,15.740,4.897,387.700,106.200,25.240,7.701,baseline
1331.000,284.000,47.370,11.730,1474.000,307.400,56.760,13.290,203.100,63.250,15.750,4.892,389.900,106.700,25.300,7.801,baseline
1337.000,286.400,46.940,11.940,1487.000,309.700,57.770,13.410,203.600,63.460,15.810,4.904,393.800,108.000,25.620,7.856,baseline
1348.000,289.400,45.970,11.990,1485.000,308.000,57.010,13.300,206.700,63.900,15.860,4.941,394.000,107.300,25.240,7.743,baseline
1329.000,282.700,46.330,11.630,1478.000,306.500,56.570,13.100,206.300,62.920,15.630,4.866,384.000,105.200,24.690,7.666,baseline
1320.000,281.700,45.950,11.490,1472.000,304.900,56.140,13.100,203.500,62.770,15.600,4.866,381.700,104.700,24.750,7.638,baseline
1320.000,281.100,45.760,11.570,1477.000,306.400,55.770,13.120,202.600,62.850,15.650,4.858,383.200,105.400,24.900,7.644,baseline
1322.000,281.700,45.340,11.560,1477.000,307.000,55.430,13.160,204.000,63.110,15.580,4.866,384.100,105.100,24.920,7.622,baseline
1322.000,282.600,45.530,11.600,1476.000,307.400,56.080,13.250,200.200,62.580,15.660,4.874,384.700,105.800,24.930,7.666,baseline
1328.000,281.700,44.580,11.710,1476.000,308.900,56.570,13.350,203.200,63.150,15.710,4.891,386.300,106.500,25.100,7.764,baseline
1336.000,286.500,48.380,11.880,1487.000,309.400,57.470,13.430,203.700,63.840,15.800,4.907,391.100,107.400,25.590,7.838,baseline
1346.000,290.100,47.520,12.000,1491.000,311.300,57.810,13.440,206.200,63.730,15.890,4.943,394.300,108.200,25.470,7.832,baseline
1339.000,285.000,46.450,11.670,1475.000,307.400,57.000,13.190,205.600,63.470,15.680,4.881,383.300,104.900,24.790,7.645,baseline
1318.000,281.800,44.840,11.520,1473.000,307.200,56.800,13.200,202.600,62.620,15.600,4.869,381.200,104.700,24.620,7.625,baseline
1317.000,280.400,45.930,11.530,1478.000,307.200,56.690,13.230,201.900,62.930,15.630,4.881,382.700,105.300,24.760,7.645,baseline
1322.000,281.900,45.900,11.570,1475.000,307.400,56.840,13.210,204.800,62.920,15.620,4.889,382.700,105.500,24.830,7.638,baseline
1323.000,282.400,46.130,11.620,1479.000,307.400,56.760,13.300,203.800,62.920,15.620,4.883,383.300,105.600,25.000,7.659,baseline
1328.000,283.700,45.180,11.690,1481.000,308.300,57.540,13.340,202.400,63.420,15.660,4.912,386.900,106.500,25.170,7.769,baseline
1336.000,286.600,47.170,11.870,1483.000,309.900,57.770,13.470,206.600,63.510,15.820,4.930,389.500,106.700,25.440,7.838,baseline
1345.000,287.500,48.070,12.070,1494.000,311.900,58.520,13.640,206.300,64.040,15.890,4.960,393.900,108.500,25.620,7.901,baseline
1357.000,292.300,48.500,12.240,1499.000,312.700,58.620,13.630,210.200,64.480,16.020,4.998,397.800,109.100,25.720,7.887,baseline
1346.000,287.800,47.380,11.860,1483.000,309.000,57.330,13.370,204.700,63.850,15.900,4.937,385.800,105.800,24.850,7.668,baseline
1324.000,282.300,45.710,11.760,1483.000,308.600,57.040,13.360,205.400,62.930,15.720,4.892,384.800,105.400,24.800,7.659,baseline
1322.000,281.400,45.440,11.680,1482.000,308.700,57.190,13.370,201.700,63.220,15.700,4.917,385.800,106.100,25.010,7.688,baseline
1328.000,283.000,45.670,11.680,1484.000,307.900,57.690,13.360,206.200,63.630,15.770,4.934,384.500,105.900,24.990,7.693,baseline
1325.000,283.500,45.880,11.670,1484.000,308.800,57.640,13.420,203.600,63.430,15.730,4.922,385.600,106.000,25.030,7.707,baseline
1330.000,284.500,47.040,11.820,1488.000,309.200,58.470,13.480,203.300,63.420,15.830,4.941,387.700,106.600,25.230,7.763,baseline
1338.000,287.000,46.620,12.060,1491.000,312.100,58.820,13.670,207.400,64.000,15.890,4.977,392.400,108.100,25.430,7.863,baseline
1346.000,289.500,48.140,12.130,1499.000,314.400,59.110,13.790,207.700,64.400,16.050,4.999,395.600,108.800,25.810,7.939,baseline
1359.000,293.000,49.180,12.320,1502.000,313.800,58.610,13.740,209.100,64.660,16.060,5.044,399.800,109.500,25.900,7.916,baseline
1345.000,289.000,47.200,11.950,1487.000,310.200,57.240,13.470,205.100,63.940,15.970,4.941,388.300,106.100,24.990,7.665,baseline
1322.000,282.500,46.320,11.800,1480.000,308.800,57.250,13.540,204.700,63.220,15.800,4.931,384.100,105.300,24.850,7.670,baseline
1320.000,281.600,46.680,11.860,1483.000,310.300,57.390,13.590,203.600,63.610,15.820,4.908,386.400,106.100,25.140,7.724,baseline
1326.000,282.200,47.860,11.780,1484.000,309.300,57.860,13.520,205.200,63.840,15.850,4.961,385.400,106.000,25.030,7.686,baseline
1323.000,282.500,46.620,11.770,1485.000,309.800,56.910,13.410,203.400,63.790,15.890,4.955,386.000,106.500,25.040,7.707,baseline
1326.000,282.300,45.670,11.720,1493.000,309.900,58.210,13.470,207.600,64.100,15.940,4.964,387.800,107.000,25.360,7.786,baseline
1333.000,286.000,45.910,11.890,1498.000,312.000,58.000,13.660,206.500,64.140,15.970,5.010,392.700,108.000,25.500,7.841,baseline
1346.000,288.200,46.760,12.070,1498.000,313.400,58.440,13.750,207.800,64.770,16.080,5.036,396.700,109.300,25.790,8.010,baseline
1354.000,290.200,46.410,11.920,1496.000,310.200,58.140,13.440,211.300,64.510,16.120,5.023,391.100,106.300,25.030,7.662,baseline
1318.000,280.400,45.550,11.480,1475.000,306.600,56.340,13.120,205.800,64.060,15.870,4.935,382.000,105.100,24.720,7.618,baseline
1308.000,276.400,44.110,11.310,1481.000,306.200,56.190,13.130,204.100,63.240,15.770,4.924,383.400,105.200,24.810,7.657,baseline
1314.000,279.400,45.000,11.490,1483.000,308.000,56.260,13.330,205.600,63.630,15.890,4.977,386.200,106.000,24.950,7.685,baseline
1315.000,279.200,45.610,11.540,1483.000,307.400,57.150,13.390,207.500,63.830,15.850,4.965,385.700,105.700,24.910,7.703,baseline
1318.000,280.100,45.880,11.630,1480.000,309.500,57.670,13.520,205.600,64.150,15.890,4.980,387.400,106.800,25.160,7.749,baseline
1327.000,281.600,46.060,11.830,1491.000,311.300,57.640,13.630,206.200,64.480,16.050,5.014,391.400,107.400,25.310,7.860,baseline
1339.000,286.000,47.600,12.000,1498.000,313.100,58.290,13.670,208.800,64.580,16.180,5.051,395.700,108.700,25.570,7.862,baseline
1339.000,285.000,46.910,11.730,1487.000,308.400,57.090,13.410,212.100,64.900,16.060,5.017,386.600,105.600,24.740,7.596,baseline
1306.000,279.400,44.490,11.460,1474.000,307.900,57.150,13.380,205.700,63.420,15.820,4.944,379.000,104.400,24.630,7.557,baseline
1304.000,275.800,43.970,11.480,1483.000,308.100,57.670,13.420,206.000,63.920,15.890,4.958,381.500,105.100,24.760,7.625,baseline
1310.000,278.900,45.070,11.570,1480.000,308.200,57.770,13.460,208.300,63.850,15.890,5.003,383.300,105.700,24.850,7.647,baseline
1311.000,277.800,44.260,11.570,1486.000,309.200,57.830,13.450,207.300,63.920,15.990,4.995,383.300,105.500,24.870,7.656,baseline
1314.000,280.300,44.720,11.560,1488.000,308.500,57.700,13.560,209.300,64.230,16.090,4.995,386.600,106.200,25.090,7.710,baseline
1325.000,283.900,45.790,11.720,1496.000,311.400,58.050,13.610,207.600,64.530,16.020,5.039,390.800,107.400,25.350,7.844,baseline
1335.000,283.700,46.550,11.750,1496.000,308.800,57.120,13.470,209.800,64.930,16.170,5.034,390.500,106.100,24.930,7.613,baseline
1306.000,276.400,44.990,11.410,1478.000,306.900,56.870,13.290,207.400,64.080,15.890,4.969,377.000,104.100,24.400,7.491,baseline
1296.000,274.800,44.580,11.360,1472.000,305.900,56.740,13.300,207.500,63.650,15.820,4.960,377.200,103.800,24.500,7.550,baseline
1300.000,275.100,45.690,11.380,1488.000,307.000,57.670,13.380,206.600,63.830,15.920,4.969,380.300,104.700,24.660,7.578,baseline
1303.000,277.300,44.790,11.350,1477.000,307.300,57.360,13.370,205.800,64.210,15.960,5.003,380.900,104.800,24.560,7.580,baseline
1304.000,276.600,44.080,11.460,1480.000,308.100,57.730,13.470,209.600,64.350,16.030,4.998,382.600,105.200,24.760,7.641,baseline
1313.000,278.700,45.710,11.590,1496.000,309.700,57.890,13.500,212.200,64.410,16.030,5.014,386.500,106.600,25.130,7.756,baseline
1323.000,281.200,45.820,11.740,1499.000,310.700,58.060,13.520,212.800,64.690,16.210,5.075,390.600,107.300,25.200,7.742,baseline
1315.000,278.300,43.490,11.340,1484.000,306.900,57.030,13.230,209.700,64.130,16.010,4.983,378.900,103.900,24.380,7.486,baseline
1290.000,272.300,42.640,11.200,1476.000,305.200,56.360,13.220,207.300,63.420,15.810,4.955,374.800,103.400,24.380,7.432,baseline
1290.000,273.900,43.980,11.190,1476.000,306.200,56.110,13.280,206.300,63.810,15.910,4.969,377.400,103.900,24.430,7.521,baseline
1297.000,275.400,43.600,11.180,1476.000,305.900,56.260,13.230,207.800,63.880,15.900,4.990,378.800,104.000,24.470,7.522,baseline
1296.000,274.900,44.050,11.190,1480.000,307.800,56.190,13.290,204.900,63.910,15.970,4.980,379.500,104.600,24.560,7.587,baseline
1303.000,276.900,44.700,11.330,1487.000,308.200,57.030,13.370,208.500,64.170,16.020,5.013,382.400,105.500,24.890,7.662,baseline
1314.000,277.200,45.300,11.490,1490.000,310.700,57.100,13.420,208.200,64.790,16.110,5.030,385.700,106.900,25.040,7.732,baseline
1328.000,282.100,45.970,11.560,1490.000,309.800,56.930,13.370,211.400,64.690,16.220,5.057,388.400,106.200,24.890,7.628,baseline
1307.000,275.000,43.900,11.070,1473.000,306.400,56.000,13.130,211.200,64.010,15.930,4.979,375.300,103.700,24.350,7.433,baseline
1290.000,271.300,42.660,11.040,1478.000,306.200,55.690,13.120,206.000,63.590,15.880,4.957,375.500,103.300,24.180,7.460,baseline
1293.000,273.700,42.340,11.180,1476.000,307.100,56.650,13.140,207.600,63.930,15.990,4.971,376.900,104.100,24.560,7.563,baseline
1297.000,275.500,42.840,11.100,1482.000,306.500,56.160,13.160,208.500,64.120,15.960,5.011,377.600,104.100,24.480,7.526,baseline
1298.000,274.000,43.100,11.120,1483.000,306.500,56.190,13.190,209.200,64.160,15.920,4.985,378.900,104.500,24.580,7.569,baseline
1306.000,276.000,43.380,11.180,1481.000,307.000,56.350,13.260,211.900,64.440,16.110,5.001,382.200,105.500,24.830,7.691,baseline
1315.000,277.800,45.530,11.390,1493.000,309.600,56.620,13.290,212.100,64.470,16.140,5.061,387.700,106.900,25.240,7.762,baseline
1329.000,282.600,45.490,11.520,1501.000,310.100,56.450,13.280,211.200,65.120,16.330,5.089,391.800,107.600,25.080,7.716,baseline
1315.000,276.900,44.920,11.160,1484.000,306.300,56.520,13.130,211.300,64.430,16.090,4.997,378.300,103.900,24.360,7.482,baseline
1294.000,272.700,44.280,11.080,1479.000,306.100,55.760,13.140,205.900,63.910,15.910,5.000,376.500,103.500,24.260,7.487,baseline
1294.000,273.100,44.140,11.100,1480.000,307.500,56.280,13.220,208.200,63.910,15.970,5.008,380.600,104.400,24.710,7.585,baseline
1302.000,275.000,43.960,11.150,1482.000,306.400,56.350,13.150,208.600,64.030,16.070,5.008,379.700,104.500,24.660,7.572,baseline
1303.000,275.100,43.610,11.230,1486.000,306.800,56.810,13.280,210.500,64.270,16.040,5.020,381.300,105.100,24.830,7.621,baseline
1309.000,277.400,44.800,11.320,1490.000,308.600,56.610,13.310,205.000,64.540,16.110,5.032,384.900,105.700,25.010,7.709,baseline
1321.000,280.800,44.530,11.500,1498.000,310.400,57.280,13.430,210.800,64.810,16.220,5.081,388.600,106.800,25.250,7.774,baseline
1333.000,281.700,43.720,11.650,1503.000,311.600,57.970,13.520,209.500,65.200,16.310,5.095,393.000,107.900,25.560,7.915,baseline
1337.000,281.900,45.610,11.400,1488.000,307.300,56.510,13.300,209.300,65.160,16.310,5.088,385.200,105.400,24.740,7.589,baseline
1304.000,274.900,43.650,11.150,1483.000,306.400,56.180,13.210,209.000,64.290,16.080,4.985,379.700,104.000,24.500,7.549,baseline
1301.000,275.300,43.800,11.180,1486.000,306.900,56.470,13.220,207.500,64.330,16.110,5.035,380.400,104.600,24.790,7.557,baseline
1309.000,277.400,43.630,11.310,1481.000,306.800,56.950,13.230,209.100,64.310,16.200,5.022,383.100,105.200,24.840,7.620,baseline
1309.000,277.700,44.280,11.300,1491.000,307.500,56.560,13.290,210.600,64.440,16.130,5.053,383.200,105.000,24.800,7.639,baseline
1313.000,276.800,43.610,11.410,1493.000,309.100,57.230,13.360,210.900,64.420,16.170,5.059,385.500,105.600,24.890,7.673,baseline
1322.000,280.000,44.350,11.490,1496.000,310.100,56.930,13.430,212.400,64.650,16.320,5.096,388.400,106.800,25.170,7.805,baseline
1332.000,282.500,44.310,11.530,1499.000,310.800,57.260,13.430,214.100,65.280,16.430,5.113,394.000,107.800,25.560,7.873,baseline
1342.000,284.200,45.670,11.660,1500.000,308.800,56.870,13.270,211.800,65.800,16.370,5.128,393.200,107.300,25.150,7.711,baseline
1313.000,277.000,44.730,11.230,1484.000,306.600,56.990,13.220,207.600,64.860,16.100,5.030,381.400,104.200,24.570,7.532,baseline
1304.000,277.500,43.470,11.230,1487.000,306.500,56.650,13.240,209.800,64.510,16.090,5.036,381.400,104.500,24.570,7.602,baseline
1309.000,276.700,44.160,11.310,1494.000,307.000,56.400,13.340,209.400,64.540,16.160,5.039,384.200,105.100,24.860,7.598,baseline
1311.000,276.300,44.130,11.290,1487.000,307.700,56.810,13.290,210.700,64.540,16.100,5.035,384.200,105.000,24.670,7.577,baseline
1311.000,278.100,45.030,11.320,1494.000,307.700,56.890,13.340,213.800,64.740,16.220,5.044,383.500,105.400,24.860,7.684,baseline
1317.000,278.100,44.510,11.440,1489.000,310.200,56.820,13.430,209.900,64.830,16.250,5.065,387.400,106.300,25.140,7.709,baseline
1326.000,280.500,46.660,11.590,1500.000,311.200,57.150,13.460,215.100,65.150,16.330,5.105,390.900,107.500,25.360,7.819,baseline
1338.000,283.000,45.640,11.620,1503.000,309.800,57.540,13.330,212.600,65.860,16.410,5.138,392.300,106.800,25.100,7.716,baseline
1312.000,276.100,44.520,11.180,1483.000,306.100,56.760,13.230,215.500,64.700,16.110,5.039,378.700,103.700,24.400,7.493,baseline
1298.000,273.500,43.880,11.110,1484.000,305.900,56.050,13.130,210.600,64.110,16.050,4.999,377.200,103.600,24.400,7.511,baseline
1299.000,274.800,44.110,11.200,1485.000,306.900,56.250,13.230,211.900,64.020,16.120,5.035,379.900,104.800,24.590,7.534,baseline
1303.000,274.400,43.560,11.170,1486.000,306.100,57.250,13.220,208.600,64.540,16.070,5.036,379.300,104.500,24.560,7.516,baseline
1301.000,272.200,43.320,11.290,1483.000,306.600,57.030,13.270,208.000,64.490,16.090,5.026,381.600,104.200,24.650,7.586,baseline
1308.000,274.800,44.050,11.270,1489.000,307.100,57.180,13.340,210.100,64.720,16.250,5.049,383.400,105.600,24.940,7.673,baseline
1317.000,279.600,45.180,11.430,1494.000,310.300,57.150,13.440,209.400,65.150,16.260,5.089,386.600,106.800,25.080,7.720,baseline
1329.000,280.300,45.570,11.380,1496.000,307.600,56.160,13.270,216.300,65.440,16.340,5.095,386.400,105.500,24.720,7.541,baseline
1298.000,273.300,43.350,10.970,1485.000,305.600,55.680,13.130,212.900,64.550,15.970,5.015,375.100,103.000,24.160,7.446,baseline
1289.000,272.000,42.980,10.900,1474.000,304.500,55.670,13.160,209.200,64.330,16.010,4.993,372.800,102.800,24.150,7.441,baseline
1293.000,270.200,43.770,11.000,1484.000,306.200,56.160,13.120,209.400,64.260,16.050,5.040,376.400,103.900,24.300,7.507,baseline
1295.000,273.700,42.930,10.980,1480.000,305.800,55.930,13.150,208.300,64.390,16.120,5.023,376.200,103.500,24.410,7.495,baseline
1296.000,271.900,44.260,11.110,1485.000,306.200,56.660,13.230,210.000,64.620,16.060,5.048,377.500,104.000,24.480,7.548,baseline
1303.000,274.500,44.210,11.260,1491.000,308.800,57.300,13.340,209.200,64.550,16.240,5.066,380.000,105.400,24.580,7.633,baseline
1316.000,276.900,44.740,11.330,1496.000,309.700,57.790,13.400,210.300,65.180,16.300,5.090,385.400,106.600,24.990,7.724,baseline
1324.000,278.800,43.990,11.210,1487.000,306.800,56.130,13.170,212.500,65.610,16.230,5.072,381.200,104.500,24.220,7.455,baseline
1288.000,270.600,43.240,10.840,1477.000,304.900,55.580,13.080,210.800,63.840,16.030,4.976,372.400,102.200,24.070,7.381,baseline
1282.000,268.700,42.130,10.810,1480.000,305.700,55.500,13.140,209.700,64.250,16.010,5.006,371.300,102.500,24.210,7.419,baseline
1289.000,270.900,44.500,10.950,1480.000,306.100,55.960,13.140,209.700,64.360,16.040,5.012,375.900,103.500,24.240,7.458,baseline
1290.000,271.400,43.400,10.960,1479.000,306.100,56.070,13.150,210.100,64.470,16.050,5.017,373.800,103.300,24.290,7.486,baseline
1292.000,270.700,43.590,11.040,1486.000,307.200,56.580,13.290,210.300,64.250,16.140,5.012,376.100,104.100,24.460,7.526,baseline
1301.000,274.200,44.390,11.210,1488.000,308.100,56.740,13.460,212.100,65.000,16.280,5.073,380.700,105.500,24.860,7.632,baseline
1314.000,277.800,45.390,11.470,1501.000,310.700,57.250,13.610,207.100,65.090,16.250,5.093,386.100,106.400,25.210,7.732,baseline
1327.000,280.600,45.400,11.470,1491.000,308.600,57.210,13.410,214.400,65.470,16.430,5.097,383.800,105.100,24.490,7.469,baseline
1291.000,272.300,43.320,11.030,1479.000,305.500,56.020,13.240,211.900,64.650,16.010,5.009,372.000,102.500,23.950,7.370,baseline
1282.000,269.500,42.380,10.960,1476.000,305.500,56.430,13.260,211.100,64.110,16.010,5.003,371.100,102.900,24.160,7.404,baseline
1286.000,272.200,44.160,11.070,1479.000,306.800,56.940,13.350,209.800,64.550,16.140,5.039,374.400,103.500,24.360,7.468,baseline
1289.000,272.000,43.240,11.100,1482.000,306.200,56.990,13.320,206.300,64.590,16.120,5.028,375.100,103.500,24.280,7.453,baseline
1289.000,272.000,43.820,11.180,1483.000,308.000,57.370,13.400,210.000,64.790,16.200,5.019,376.800,104.200,24.520,7.565,baseline
1298.000,274.500,44.450,11.370,1488.000,310.300,56.600,13.630,212.700,64.780,16.230,5.059,381.800,105.400,24.840,7.655,baseline
1311.000,277.100,45.880,11.530,1498.000,310.600,57.890,13.750,212.400,64.890,16.280,5.075,386.700,106.700,25.020,7.726,baseline
1325.000,281.600,46.850,11.690,1508.000,312.900,58.230,13.700,210.000,65.680,16.400,5.159,390.700,107.200,25.260,7.710,baseline
1309.000,274.700,43.500,11.250,1485.000,307.300,56.990,13.430,211.300,64.920,16.170,5.044,375.900,103.200,24.180,7.410,baseline
1280.000,269.000,43.610,11.130,1477.000,306.800,57.060,13.420,210.700,64.500,16.020,4.993,372.200,103.100,24.080,7.449,baseline
1283.000,272.000,43.800,11.220,1481.000,307.300,57.390,13.490,209.700,64.400,16.040,5.053,375.700,103.900,24.420,7.527,baseline
1292.000,271.900,43.680,11.160,1487.000,307.500,57.430,13.480,211.700,64.560,16.130,5.053,376.000,103.900,24.360,7.497,baseline
1291.000,273.800,42.940,11.210,1485.000,307.700,57.240,13.530,208.000,64.520,16.140,5.046,377.000,104.000,24.460,7.525,baseline
1295.000,273.700,44.220,11.320,1494.000,309.200,58.020,13.680,212.100,64.820,16.200,5.070,380.900,104.900,24.800,7.597,baseline
1307.000,276.900,43.090,11.500,1493.000,310.900,58.260,13.770,210.400,65.130,16.250,5.105,384.800,106.200,25.090,7.726,baseline
1321.000,281.600,45.530,11.660,1504.000,314.100,58.600,13.810,216.100,65.820,16.380,5.129,390.700,107.500,25.380,7.785,baseline
1324.000,280.500,44.700,11.380,1484.000,309.200,57.860,13.550,213.600,65.640,16.370,5.077,380.400,103.700,24.390,7.484,baseline
1283.000,269.100,42.610,11.050,1480.000,307.400,56.750,13.540,212.200,64.750,15.990,4.995,373.200,102.700,24.150,7.405,baseline
1279.000,269.900,44.230,11.050,1481.000,307.600,56.790,13.470,210.700,64.420,16.090,5.005,374.400,103.400,24.340,7.530,baseline
1286.000,272.700,44.200,11.220,1485.000,308.300,57.460,13.530,210.800,65.160,16.180,5.040,377.200,103.700,24.470,7.504,baseline
1287.000,273.000,43.840,11.180,1481.000,307.700,57.210,13.510,210.700,64.380,16.150,5.053,377.100,103.900,24.380,7.535,baseline
1289.000,272.900,44.290,11.210,1485.000,308.900,58.660,13.620,208.200,65.010,16.230,5.061,380.100,104.500,24.610,7.597,baseline
1299.000,274.100,44.470,11.420,1487.000,310.700,57.870,13.730,215.800,65.100,16.290,5.108,384.200,105.700,24.930,7.689,baseline
1311.000,279.200,44.840,11.610,1498.000,311.700,59.400,13.820,211.200,65.620,16.280,5.123,389.100,107.300,25.390,7.771,baseline
1317.000,278.300,44.280,11.380,1491.000,308.100,57.220,13.490,215.900,65.400,16.320,5.094,380.500,103.600,24.430,7.448,baseline
1277.000,269.400,41.800,10.980,1479.000,305.000,56.540,13.410,209.900,64.490,16.020,5.039,373.100,102.600,24.020,7.388,baseline
1272.000,267.700,42.820,10.980,1483.000,306.800,57.680,13.410,210.200,64.180,16.120,5.022,375.000,102.700,24.270,7.460,baseline
1281.000,270.400,43.230,11.060,1479.000,307.800,57.170,13.460,209.800,64.670,16.190,5.054,376.800,104.000,24.410,7.482,baseline
1280.000,270.000,43.620,11.120,1476.000,307.300,56.790,13.460,211.600,64.590,16.220,5.032,377.400,103.600,24.350,7.543,baseline
1283.000,270.800,44.720,11.180,1481.000,307.500,57.130,13.530,208.900,64.900,16.200,5.061,379.400,104.700,24.510,7.558,baseline
1293.000,273.000,45.560,11.300,1493.000,310.600,57.750,13.660,213.700,65.140,16.240,5.101,383.900,105.200,24.890,7.658,baseline
1305.000,276.000,44.330,11.460,1500.000,311.700,57.760,13.660,214.200,65.260,16.400,5.115,387.900,106.500,25.190,7.733,baseline
1305.000,273.600,44.500,11.180,1476.000,306.700,57.120,13.360,216.800,65.050,16.240,5.062,377.400,103.500,24.300,7.463,baseline
1270.000,267.500,43.070,10.860,1472.000,304.400,56.620,13.250,213.600,64.750,16.060,5.013,373.100,102.400,24.020,7.419,baseline
1267.000,266.600,42.730,10.880,1476.000,305.500,56.510,13.260,210.100,64.220,16.080,5.027,375.400,103.100,24.380,7.489,baseline
1275.000,268.300,42.170,10.970,1480.000,305.300,56.540,13.270,210.600,64.590,16.110,5.062,376.700,103.800,24.430,7.475,baseline
1276.000,267.800,42.230,10.900,1479.000,305.000,57.120,13.330,210.000,64.450,16.120,5.040,378.600,103.600,24.440,7.531,baseline
1280.000,269.700,43.400,11.000,1481.000,306.200,57.170,13.390,210.100,64.710,16.180,5.068,380.000,104.700,24.580,7.564,baseline
1289.000,270.500,43.190,11.140,1490.000,308.400,57.290,13.520,211.100,65.210,16.250,5.098,384.600,105.500,24.960,7.668,baseline
1302.000,275.400,44.380,11.320,1497.000,309.200,57.310,13.490,212.400,65.440,16.480,5.154,389.900,106.600,24.960,7.655,baseline
1294.000,269.600,43.340,10.930,1481.000,305.500,56.150,13.210,213.800,64.980,16.200,5.048,378.100,102.700,24.190,7.456,baseline
1268.000,264.600,42.570,10.710,1470.000,304.300,55.450,13.190,207.000,64.410,16.090,5.006,375.200,102.500,24.200,7.446,baseline
1268.000,266.000,41.990,10.740,1475.000,303.900,55.860,13.210,213.300,64.010,16.060,5.041,376.900,103.100,24.480,7.487,baseline
1275.000,266.800,41.600,10.850,1474.000,304.200,56.120,13.210,210.700,64.490,16.230,5.062,378.700,103.300,24.420,7.511,baseline
1275.000,266.500,42.250,10.780,1479.000,304.800,56.580,13.160,210.400,64.660,16.100,5.037,378.900,103.700,24.540,7.549,baseline
1280.000,267.000,42.590,10.830,1480.000,304.400,57.070,13.250,212.000,64.770,16.180,5.075,381.700,104.500,24.760,7.635,baseline
1289.000,270.200,42.380,11.100,1481.000,306.300,57.240,13.380,210.400,64.690,16.300,5.098,386.700,105.500,24.990,7.695,baseline
1300.000,273.900,43.050,11.160,1492.000,307.200,56.960,13.340,214.200,65.650,16.440,5.133,389.400,106.200,25.100,7.658,baseline
1290.000,268.800,42.170,10.800,1480.000,301.900,55.650,13.090,211.800,64.720,16.190,5.024,379.100,103.100,24.250,7.496,baseline
1271.000,265.600,42.630,10.670,1474.000,302.800,55.700,13.080,208.200,64.100,16.140,5.041,377.300,102.800,24.330,7.496,baseline
1270.000,265.800,43.220,10.670,1472.000,303.000,56.270,13.060,208.800,64.350,16.080,5.050,380.000,103.600,24.480,7.525,baseline
1277.000,266.600,42.810,10.730,1478.000,303.000,56.060,13.020,212.200,64.310,16.140,5.038,380.700,103.700,24.520,7.508,baseline
1277.000,265.300,42.240,10.840,1475.000,303.500,55.230,13.070,209.700,64.860,16.250,5.072,382.000,103.900,24.690,7.585,baseline
1284.000,267.200,42.290,10.830,1482.000,304.900,56.260,13.190,211.800,64.830,16.190,5.065,384.600,104.900,24.930,7.665,baseline
1292.000,270.000,43.680,10.970,1479.000,305.200,56.860,13.200,210.500,64.950,16.340,5.099,389.200,106.100,25.240,7.742,baseline
1304.000,273.700,42.660,11.130,1490.000,307.300,56.710,13.270,211.800,65.210,16.400,5.122,390.700,106.700,25.180,7.768,baseline
1298.000,271.300,43.700,10.790,1480.000,302.600,56.200,12.960,213.500,64.750,16.240,5.089,383.300,104.100,24.590,7.573,baseline
1277.000,266.800,42.130,10.670,1471.000,301.500,55.990,12.940,208.900,64.480,16.060,5.047,381.000,103.500,24.430,7.539,baseline
1279.000,265.200,41.270,10.700,1476.000,303.000,55.320,12.950,210.200,64.430,16.130,5.065,382.800,104.300,24.780,7.636,baseline
1286.000,268.800,41.910,10.780,1484.000,302.100,55.330,12.930,209.600,64.870,16.160,5.051,384.500,104.500,24.780,7.594,baseline
1286.000,269.600,42.720,10.760,1481.000,303.100,55.870,12.970,210.300,64.490,16.170,5.064,384.900,104.800,24.810,7.626,baseline
1292.000,269.600,43.760,10.850,1482.000,305.000,55.200,13.100,212.000,64.780,16.270,5.081,387.800,105.700,25.040,7.703,baseline
1300.000,273.600,42.920,11.020,1488.000,305.800,56.120,13.130,213.200,65.110,16.310,5.122,391.100,106.200,25.180,7.779,baseline
1309.000,274.000,44.580,11.020,1491.000,306.300,56.260,13.180,213.000,65.400,16.410,5.159,393.900,107.200,25.490,7.854,baseline
1319.000,275.600,45.170,11.170,1485.000,305.100,54.970,13.030,215.500,65.550,16.420,5.140,392.900,105.900,25.030,7.683,baseline
1293.000,268.700,42.620,10.760,1479.000,303.000,54.990,12.940,210.200,64.470,16.210,5.069,384.600,104.300,24.680,7.594,baseline
1290.000,269.100,42.570,10.740,1470.000,302.500,55.040,12.880,213.700,64.370,16.190,5.043,384.900,104.800,24.820,7.636,baseline
1292.000,268.900,41.530,10.830,1481.000,303.700,55.420,12.970,211.400,64.330,16.160,5.071,387.400,105.000,24.890,7.644,baseline
1295.000,269.800,43.060,10.860,1482.000,304.100,55.110,12.900,209.300,64.450,16.140,5.070,387.200,104.900,24.950,7.678,baseline
1297.000,271.400,41.730,10.940,1481.000,303.800,55.870,13.020,210.500,64.640,16.210,5.070,388.300,105.400,24.970,7.692,baseline
1303.000,273.000,44.120,10.990,1484.000,305.200,56.750,13.070,212.700,64.940,16.280,5.086,390.900,105.900,25.200,7.788,baseline
1311.000,274.500,43.690,11.080,1494.000,306.500,56.410,13.210,211.400,65.150,16.350,5.103,394.300,107.000,25.470,7.846,baseline
1319.000,277.500,44.350,11.260,1498.000,307.500,55.800,13.330,214.600,65.270,16.340,5.152,395.800,107.900,25.670,7.918,baseline
1328.000,279.500,45.200,11.460,1498.000,307.800,56.700,13.220,212.100,66.000,16.400,5.151,396.600,107.400,25.320,7.783,baseline
1310.000,273.200,44.610,10.960,1481.000,304.100,55.540,12.990,215.500,64.580,16.160,5.060,386.800,104.800,24.680,7.606,baseline
1295.000,272.100,43.290,10.910,1477.000,303.700,55.270,12.980,209.400,64.450,16.080,5.017,386.000,104.500,24.610,7.578,baseline
1295.000,271.400,43.380,10.970,1479.000,304.200,56.590,12.990,208.000,64.170,16.150,5.031,385.000,105.100,24.840,7.599,baseline
1295.000,270.700,42.810,10.950,1478.000,303.000,55.310,12.970,208.100,64.510,16.080,5.045,382.900,104.200,24.580,7.546,baseline
1293.000,270.900,42.770,10.890,1479.000,303.200,56.540,13.040,212.400,64.380,16.090,5.018,383.200,104.300,24.720,7.581,baseline
1296.000,272.700,42.130,10.990,1484.000,303.900,56.410,13.100,211.800,64.580,16.120,5.047,384.800,104.800,24.810,7.641,baseline
1301.000,273.100,42.890,11.150,1488.000,305.100,56.720,13.150,210.000,64.640,16.160,5.050,386.900,105.500,24.950,7.702,baseline
1307.000,275.600,44.430,11.280,1486.000,307.000,56.420,13.290,211.200,64.520,16.200,5.064,389.800,106.200,25.130,7.716,baseline
1313.000,275.600,45.500,11.210,1480.000,303.600,56.600,13.030,209.100,65.200,16.170,5.022,384.500,104.300,24.450,7.433,baseline
1283.000,266.900,42.900,10.800,1466.000,301.500,55.120,12.970,211.800,64.010,15.940,4.983,375.600,102.400,23.910,7.364,baseline
1273.000,266.400,41.600,10.710,1469.000,301.600,54.370,12.910,208.600,63.420,15.870,4.931,373.200,102.200,24.140,7.365,baseline
1274.000,266.200,42.900,10.810,1467.000,301.700,55.350,12.970,207.400,63.690,15.930,4.967,375.100,102.400,24.060,7.347,baseline
1272.000,263.700,41.750,10.700,1464.000,301.200,55.250,12.930,203.900,63.690,15.820,4.973,372.400,102.300,23.820,7.347,baseline
1271.000,263.100,41.110,10.730,1464.000,302.500,55.610,12.960,209.200,63.680,15.830,4.946,374.100,102.600,24.040,7.360,baseline
1277.000,266.800,42.460,10.860,1477.000,303.700,55.470,13.150,208.300,63.880,15.880,4.991,375.400,103.000,24.190,7.441,baseline
1286.000,269.900,43.410,10.960,1479.000,304.800,56.930,13.160,208.900,64.070,16.020,5.004,378.700,104.100,24.340,7.481,baseline
1288.000,268.800,42.960,10.770,1468.000,301.200,55.070,12.890,210.700,64.330,15.940,4.965,372.900,101.600,23.730,7.239,baseline
1258.000,262.600,41.040,10.530,1461.000,299.100,54.880,12.870,207.500,63.280,15.740,4.925,365.600,100.400,23.410,7.170,baseline
1251.000,260.200,40.720,10.420,1463.000,299.300,54.620,12.870,212.200,63.180,15.670,4.896,363.300,99.870,23.480,7.204,baseline
1254.000,261.600,40.970,10.500,1463.000,301.000,55.450,12.820,207.100,63.460,15.760,4.918,366.400,100.800,23.460,7.187,baseline
1254.000,261.300,40.790,10.470,1464.000,300.500,54.080,12.700,206.100,63.030,15.810,4.915,365.500,100.500,23.490,7.196,baseline
1255.000,261.300,41.920,10.300,1467.000,300.600,54.270,12.780,205.400,63.140,15.760,4.919,368.600,101.400,23.770,7.270,baseline
1264.000,263.100,42.640,10.500,1470.000,302.500,54.750,12.800,208.800,63.650,15.850,4.947,373.100,102.400,24.020,7.350,baseline
1276.000,265.900,41.460,10.510,1480.000,304.100,54.730,12.660,209.100,64.050,15.980,4.975,378.600,103.500,24.200,7.304,baseline
1271.000,261.200,40.480,10.060,1469.000,298.400,53.620,12.290,208.900,63.740,15.870,4.909,367.900,100.500,23.400,7.088,baseline
1244.000,253.800,38.510,9.667,1455.000,295.800,52.730,12.130,203.200,62.980,15.770,4.855,364.300,99.440,23.220,7.028,baseline
1238.000,253.200,37.980,9.673,1460.000,296.400,52.410,12.180,204.900,62.820,15.640,4.862,365.400,100.200,23.360,7.106,baseline
1244.000,254.900,37.870,9.747,1457.000,296.700,52.330,12.140,208.900,63.580,15.790,4.879,367.500,100.600,23.360,7.084,baseline
1242.000,252.700,38.200,9.755,1456.000,296.400,52.990,12.180,205.900,63.480,15.720,4.888,369.200,100.700,23.480,7.138,baseline
1246.000,256.600,38.550,9.805,1467.000,297.600,52.950,12.210,210.800,63.790,15.730,4.910,371.800,101.800,23.790,7.226,baseline
1255.000,257.400,38.450,9.911,1472.000,297.800,53.030,12.220,210.600,64.150,15.850,4.945,377.300,103.000,24.080,7.291,baseline
1266.000,259.400,39.360,9.984,1476.000,300.900,52.950,12.280,210.000,64.530,16.030,4.957,383.500,104.400,24.400,7.406,baseline
1273.000,258.700,38.980,9.804,1465.000,297.000,52.620,12.090,211.200,64.680,15.950,4.968,375.100,101.900,23.430,7.123,baseline
1238.000,253.900,39.260,9.590,1455.000,295.200,51.460,12.020,208.600,63.650,15.620,4.888,367.700,100.200,23.240,7.041,baseline
1233.000,250.500,37.590,9.551,1456.000,294.400,51.970,12.060,211.100,63.460,15.690,4.870,368.500,100.700,23.480,7.132,baseline
1239.000,251.300,38.140,9.661,1459.000,295.300,51.850,12.100,211.000,63.820,15.780,4.898,370.900,101.700,23.410,7.146,baseline
1242.000,252.000,38.940,9.721,1460.000,295.600,52.830,12.280,206.300,64.220,15.780,4.924,372.000,101.500,23.570,7.178,baseline
1249.000,255.600,38.920,9.938,1463.000,298.100,53.230,12.370,208.900,63.810,15.910,4.961,374.500,102.400,23.920,7.264,baseline
1260.000,259.200,39.530,10.140,1472.000,301.700,53.870,12.650,210.300,64.390,15.970,5.018,378.300,103.700,24.140,7.384,baseline
1276.000,264.600,41.520,10.490,1488.000,303.700,55.280,12.890,212.300,65.050,16.100,5.046,382.300,104.800,24.570,7.483,baseline
1294.000,268.600,41.970,10.750,1497.000,305.800,57.000,13.000,213.100,65.360,16.240,5.085,387.300,106.000,24.520,7.503,baseline
1284.000,265.300,41.830,10.560,1476.000,301.500,55.370,12.840,210.600,64.670,16.030,4.990,372.900,101.700,23.690,7.205,baseline
1258.000,261.800,42.220,10.390,1480.000,301.700,55.280,12.950,208.100,63.900,15.940,4.958,367.900,101.100,23.610,7.180,baseline
1262.000,263.000,41.410,10.570,1474.000,302.200,55.770,12.990,206.700,63.910,15.910,4.962,371.500,101.800,23.790,7.285,baseline
1271.000,265.100,42.240,10.670,1483.000,304.200,56.050,13.080,209.300,64.260,16.040,4.999,373.000,102.300,23.890,7.322,baseline
1273.000,263.900,43.100,10.740,1481.000,303.500,56.310,13.170,209.800,63.990,15.960,4.995,373.100,102.500,24.000,7.349,baseline
1281.000,268.600,42.640,10.840,1490.000,305.700,56.820,13.320,213.700,64.490,16.090,5.027,377.100,103.500,24.190,7.386,baseline
1292.000,270.800,44.350,11.070,1497.000,308.200,57.710,13.440,209.200,64.810,16.170,5.080,382.500,104.700,24.510,7.529,baseline
1307.000,274.900,43.730,11.250,1505.000,310.500,58.240,13.640,211.700,65.310,16.290,5.107,387.500,106.400,24.880,7.641,baseline
1321.000,277.900,43.240,11.470,1512.000,312.000,58.270,13.560,212.800,66.040,16.450,5.142,392.100,106.700,24.980,7.627,baseline
1308.000,274.200,43.090,11.100,1489.000,305.800,56.650,13.370,212.900,65.050,16.160,5.077,377.900,102.900,23.930,7.308,baseline
1281.000,267.800,42.570,10.930,1490.000,305.800,57.140,13.340,210.600,64.110,16.100,5.022,373.300,102.300,24.090,7.309,baseline
1285.000,270.100,42.170,11.070,1490.000,307.100,57.090,13.430,214.700,64.600,16.050,5.028,377.900,103.500,24.280,7.441,baseline
1296.000,271.800,43.000,11.090,1490.000,307.100,57.390,13.460,215.400,64.630,16.190,5.069,380.300,103.900,24.260,7.427,baseline
1294.000,271.500,44.360,11.100,1502.000,308.300,57.440,13.540,212.500,64.590,16.190,5.066,381.100,103.800,24.430,7.495,baseline
1301.000,273.300,45.710,11.220,1495.000,309.600,58.120,13.660,214.800,65.180,16.290,5.092,384.200,105.400,24.680,7.557,baseline
1312.000,276.800,44.650,11.490,1503.000,310.300,58.220,13.710,213.800,65.160,16.310,5.113,389.000,106.300,24.990,7.644,baseline
1326.000,280.000,46.670,11.650,1513.000,313.700,58.890,13.830,218.000,65.970,16.410,5.167,394.200,108.000,25.180,7.776,baseline
1340.000,280.000,46.080,11.590,1508.000,310.100,58.130,13.620,218.600,66.140,16.510,5.183,390.000,105.700,24.460,7.528,baseline
1300.000,272.500,44.280,11.200,1490.000,307.900,57.180,13.480,216.100,64.730,16.210,5.049,378.900,103.300,24.190,7.461,baseline
1295.000,272.100,44.530,11.190,1494.000,310.000,58.210,13.560,212.100,64.820,16.150,5.047,380.400,103.800,24.390,7.512,baseline
1304.000,273.600,44.950,11.390,1499.000,309.800,58.500,13.640,214.600,65.010,16.290,5.097,385.400,104.800,24.650,7.537,baseline
1307.000,276.100,44.190,11.400,1497.000,309.000,58.800,13.730,214.200,65.260,16.310,5.111,385.800,105.400,24.670,7.566,baseline
1309.000,276.000,44.950,11.510,1504.000,310.800,58.260,13.820,213.400,64.940,16.300,5.111,388.100,105.500,24.800,7.638,baseline
1318.000,278.300,45.340,11.670,1504.000,312.600,58.770,13.900,216.500,65.650,16.330,5.154,391.500,106.800,25.090,7.733,baseline
1332.000,282.100,47.850,11.840,1514.000,314.800,59.690,14.000,215.600,66.300,16.500,5.166,396.900,108.300,25.360,7.846,baseline
1346.000,285.800,46.830,11.850,1512.000,312.700,58.700,13.820,220.700,66.270,16.490,5.187,395.100,106.500,24.900,7.627,baseline
1310.000,276.100,45.990,11.440,1496.000,309.000,58.180,13.670,213.100,65.210,16.220,5.054,383.600,103.800,24.440,7.499,baseline
1300.000,275.800,45.360,11.430,1500.000,309.800,58.510,13.670,215.200,65.010,16.220,5.092,382.600,104.400,24.600,7.522,baseline
1306.000,275.100,45.900,11.470,1499.000,310.300,58.220,13.760,213.200,65.290,16.320,5.117,386.500,105.400,24.750,7.606,baseline
1313.000,276.200,46.080,11.540,1502.000,310.200,58.840,13.800,218.900,65.110,16.320,5.112,387.500,105.300,24.730,7.581,baseline
1311.000,277.900,45.950,11.620,1499.000,310.900,59.130,13.820,214.400,65.260,16.370,5.122,388.800,105.900,24.940,7.627,baseline
1318.000,280.800,46.270,11.760,1509.000,312.200,59.760,13.950,217.200,65.660,16.420,5.140,392.500,106.900,25.240,7.739,baseline
1332.000,282.600,46.830,11.920,1512.000,314.000,59.860,14.100,216.500,65.940,16.530,5.175,398.100,108.400,25.570,7.853,baseline
1344.000,287.200,46.460,12.040,1515.000,312.300,59.600,13.850,219.300,66.480,16.620,5.193,397.300,107.200,25.040,7.673,baseline
1309.000,276.300,45.970,11.560,1491.000,308.300,57.890,13.750,216.800,65.580,16.200,5.065,382.900,104.100,24.510,7.515,baseline
1297.000,274.800,45.200,11.480,1493.000,308.600,58.130,13.720,215.100,64.610,16.200,5.086,382.800,104.400,24.530,7.570,baseline
1302.000,277.300,45.330,11.560,1500.000,309.300,58.360,13.820,211.300,65.000,16.250,5.109,386.600,105.200,24.680,7.607,baseline
1305.000,275.400,46.230,11.560,1499.000,309.000,58.300,13.760,215.700,64.910,16.350,5.116,386.500,105.100,24.720,7.577,baseline
1305.000,275.000,46.310,11.560,1490.000,310.000,58.460,13.810,216.200,65.360,16.380,5.094,388.900,105.500,24.910,7.643,baseline
1313.000,277.300,47.100,11.770,1503.000,311.600,59.330,13.950,214.600,65.570,16.360,5.132,391.600,106.900,25.090,7.711,baseline
1322.000,281.900,47.230,11.870,1507.000,313.000,59.850,14.070,216.900,66.210,16.450,5.151,395.400,107.900,25.410,7.821,baseline
1335.000,284.300,46.840,11.890,1498.000,312.100,59.390,13.840,217.900,65.990,16.560,5.163,395.000,106.800,25.000,7.612,baseline
1303.000,274.600,44.050,11.450,1486.000,307.400,58.570,13.680,217.600,65.320,16.270,5.060,380.700,103.500,24.410,7.431,baseline
1288.000,272.700,44.610,11.390,1494.000,307.000,58.400,13.640,211.400,64.740,16.120,5.045,380.600,103.600,24.440,7.463,baseline
1293.000,274.100,44.420,11.440,1495.000,307.900,58.070,13.650,213.100,65.060,16.180,5.082,383.500,104.500,24.690,7.533,baseline
1294.000,272.900,44.090,11.340,1487.000,307.100,57.850,13.600,212.000,65.370,16.180,5.083,383.300,104.200,24.510,7.517,baseline
1292.000,272.400,45.280,11.340,1495.000,307.400,57.640,13.640,213.500,65.010,16.160,5.077,384.000,104.600,24.780,7.571,baseline
1299.000,273.900,44.880,11.500,1496.000,308.400,58.320,13.690,213.000,65.560,16.300,5.093,386.200,105.700,24.960,7.662,baseline
1308.000,277.800,44.950,11.630,1497.000,310.400,58.330,13.820,217.600,65.520,16.350,5.141,391.000,106.600,25.250,7.748,baseline
1321.000,279.100,46.510,11.670,1494.000,309.800,58.130,13.620,215.600,66.150,16.520,5.150,391.600,105.900,24.750,7.570,baseline
1292.000,270.000,44.830,11.090,1485.000,304.300,56.970,13.430,213.300,64.920,16.180,5.020,377.900,102.900,24.250,7.437,baseline
1275.000,268.500,42.640,11.140,1473.000,303.500,57.150,13.370,210.000,64.730,15.970,5.026,374.800,102.700,24.330,7.446,baseline
1277.000,267.600,43.620,11.070,1481.000,304.700,56.750,13.310,209.600,64.640,16.150,5.025,379.100,103.700,24.360,7.495,baseline
1280.000,269.100,43.680,11.110,1481.000,304.400,56.750,13.370,211.700,64.430,16.170,5.057,377.800,103.300,24.460,7.445,baseline
1280.000,269.800,43.040,11.110,1477.000,304.700,57.770,13.410,210.500,64.640,16.160,5.042,378.800,103.600,24.590,7.541,baseline
1287.000,270.700,43.820,11.190,1483.000,305.700,57.510,13.440,213.900,64.870,16.200,5.057,381.700,104.900,24.740,7.588,baseline
1295.000,272.100,44.260,11.380,1495.000,307.300,57.490,13.580,212.900,65.370,16.230,5.098,386.100,105.700,25.010,7.679,baseline
1307.000,275.300,44.840,11.440,1495.000,306.600,57.400,13.450,213.700,65.430,16.380,5.112,387.400,105.000,24.670,7.530,baseline
1283.000,267.900,44.030,10.930,1476.000,303.800,56.040,13.200,212.900,64.480,16.110,5.043,373.900,102.300,23.970,7.382,baseline
1268.000,266.300,43.370,10.840,1472.000,303.000,56.350,13.240,208.000,64.050,16.030,5.017,372.500,102.300,24.130,7.397,baseline
1270.000,266.100,43.580,10.910,1478.000,304.900,55.830,13.210,211.200,64.380,16.070,5.039,375.100,102.800,24.330,7.441,baseline
1274.000,264.500,43.290,10.940,1477.000,302.500,56.410,13.210,208.600,64.340,16.130,5.038,374.300,102.900,24.270,7.411,baseline
1274.000,265.600,43.090,10.970,1477.000,303.800,55.870,13.200,209.900,64.260,16.080,5.048,375.600,103.500,24.380,7.466,baseline
1280.000,268.600,44.380,11.060,1485.000,305.100,57.190,13.310,211.900,64.530,16.190,5.078,378.800,104.400,24.560,7.594,baseline
1289.000,270.700,43.610,11.260,1489.000,306.000,57.600,13.470,213.800,65.130,16.300,5.100,383.600,105.500,24.800,7.632,baseline
1302.000,275.200,43.680,11.340,1494.000,307.500,56.880,13.350,215.900,65.160,16.360,5.141,385.500,105.200,24.710,7.538,baseline
1284.000,269.400,43.910,10.880,1475.000,302.000,57.140,13.150,210.400,64.440,16.100,5.035,373.400,101.700,24.030,7.382,baseline
1266.000,264.300,42.990,10.860,1467.000,302.500,56.350,13.090,210.700,63.890,16.010,5.008,369.900,101.600,24.050,7.388,baseline
1267.000,265.100,43.560,10.830,1472.000,303.500,56.490,13.120,209.200,64.140,16.070,5.008,372.900,102.400,24.240,7.433,baseline
1272.000,265.600,42.740,10.900,1477.000,302.800,56.730,13.120,210.100,64.290,16.100,5.023,373.600,102.300,24.160,7.436,baseline
1271.000,265.700,43.700,10.820,1478.000,303.000,55.860,13.190,210.600,64.570,16.080,5.040,374.000,102.900,24.180,7.489,baseline
1276.000,267.900,44.360,10.970,1476.000,304.300,56.890,13.210,210.000,64.340,16.220,5.073,377.300,103.800,24.520,7.546,baseline
1287.000,271.100,42.810,11.130,1484.000,306.200,56.160,13.350,207.100,65.180,16.240,5.082,382.800,104.900,24.760,7.631,baseline
1298.000,272.900,44.240,11.230,1499.000,307.600,56.990,13.390,215.300,64.980,16.330,5.124,385.700,105.800,24.950,7.673,baseline
1294.000,270.000,42.680,10.970,1477.000,302.500,56.240,13.070,211.000,64.950,16.130,5.070,373.900,102.400,24.060,7.389,baseline
1267.000,265.000,41.620,10.760,1478.000,302.000,55.810,12.910,207.700,63.820,16.110,5.008,370.500,101.600,23.900,7.368,baseline
1263.000,263.800,40.720,10.400,1470.000,300.100,55.150,12.630,208.100,64.050,16.030,5.020,371.300,102.600,24.130,7.399,baseline
1270.000,262.600,40.250,10.380,1477.000,301.700,54.990,12.570,211.100,64.130,16.080,5.018,373.200,102.900,24.290,7.413,baseline
1269.000,263.400,39.920,10.360,1471.000,300.600,54.080,12.600,207.600,64.160,16.110,5.039,373.000,102.600,24.210,7.484,baseline
1273.000,263.300,41.350,10.440,1486.000,301.900,54.540,12.700,209.900,64.470,16.070,5.052,376.800,103.500,24.510,7.533,baseline
1282.000,266.400,41.820,10.530,1488.000,304.100,55.740,12.800,212.900,64.950,16.240,5.062,381.100,104.500,24.740,7.588,baseline
1294.000,268.600,42.060,10.750,1495.000,304.700,55.800,12.910,212.500,65.350,16.260,5.118,385.600,105.700,25.150,7.726,baseline
1307.000,271.000,42.450,10.740,1488.000,302.800,55.200,12.770,212.500,65.440,16.380,5.104,380.900,103.800,24.420,7.463,baseline
1276.000,264.500,41.500,10.460,1481.000,302.200,55.030,12.740,210.000,64.500,16.140,5.020,372.500,102.200,24.200,7.389,baseline
1273.000,263.300,40.990,10.440,1476.000,301.700,55.360,12.730,209.700,64.540,16.130,5.028,373.400,102.700,24.350,7.469,baseline
1279.000,264.900,41.780,10.650,1476.000,302.600,55.230,12.770,213.200,64.700,16.160,5.066,376.100,103.500,24.410,7.516,baseline
1281.000,266.100,41.900,10.550,1484.000,303.700,55.880,12.780,212.900,64.550,16.170,5.062,375.500,103.100,24.300,7.497,baseline
1283.000,267.500,41.820,10.710,1487.000,304.400,55.550,12.870,209.800,64.920,16.190,5.072,378.000,104.000,24.560,7.582,baseline
1288.000,268.300,41.710,10.810,1490.000,304.800,56.600,13.020,213.100,65.090,16.320,5.092,383.300,105.100,24.850,7.611,baseline
1298.000,274.000,42.650,11.040,1492.000,305.800,56.830,13.170,211.800,65.620,16.370,5.110,386.200,106.000,25.090,7.700,baseline
1308.000,273.300,44.400,11.070,1494.000,305.900,56.070,13.010,218.200,65.480,16.500,5.135,386.300,105.000,24.660,7.532,baseline
1284.000,266.200,41.480,10.620,1476.000,302.400,55.060,12.820,212.000,64.790,16.060,5.044,373.200,102.200,24.180,7.419,baseline
1274.000,264.000,41.690,10.540,1479.000,301.900,55.430,12.890,213.700,64.440,16.080,5.020,373.900,102.300,24.140,7.426,baseline
1275.000,265.000,42.980,10.600,1482.000,303.000,54.910,12.870,213.200,64.210,16.090,5.062,376.600,103.200,24.280,7.464,baseline
1279.000,264.800,42.260,10.580,1479.000,303.100,55.190,12.850,217.100,64.500,16.090,5.019,373.900,102.700,24.310,7.465,baseline
1278.000,266.000,41.990,10.720,1483.000,303.300,55.960,12.970,215.200,64.420,16.170,5.069,375.100,103.200,24.470,7.495,baseline
1285.000,268.000,42.470,10.830,1486.000,304.800,56.680,13.130,218.700,64.990,16.270,5.050,378.800,104.200,24.690,7.565,baseline
1293.000,271.700,42.430,11.030,1488.000,307.600,57.250,13.200,222.000,65.310,16.230,5.114,381.900,104.900,24.700,7.598,baseline
1293.000,270.200,43.330,10.860,1478.000,303.000,55.980,12.960,215.600,64.870,16.180,5.047,373.700,102.300,23.960,7.372,baseline
1269.000,264.200,41.600,10.680,1474.000,301.500,56.500,12.980,213.200,64.280,16.040,5.009,370.300,101.800,23.900,7.335,baseline
1267.000,264.500,41.740,10.670,1476.000,302.600,55.550,13.060,217.600,64.090,15.980,5.004,371.900,102.000,24.040,7.367,baseline
1274.000,265.900,42.110,10.780,1480.000,303.400,55.840,12.980,213.300,64.480,16.020,5.000,371.400,102.200,24.180,7.396,baseline
1273.000,265.800,42.730,10.690,1481.000,303.200,55.800,13.070,217.900,64.280,16.130,4.988,371.700,102.400,24.130,7.404,baseline
1276.000,267.100,42.820,10.860,1478.000,304.200,56.950,13.150,220.600,64.430,16.130,5.065,374.000,103.200,24.410,7.499,baseline
1286.000,269.100,42.700,11.040,1486.000,305.800,56.370,13.220,219.400,64.500,16.270,5.065,379.300,104.200,24.640,7.539,baseline
1291.000,269.600,43.280,10.940,1481.000,304.000,56.370,13.050,219.000,64.910,16.200,5.047,372.900,101.600,24.010,7.358,baseline
1264.000,262.300,42.290,10.650,1474.000,301.500,55.800,12.970,213.300,63.910,15.950,4.981,367.200,101.400,23.820,7.322,baseline
1262.000,262.800,42.170,10.670,1470.000,302.600,55.750,13.020,216.000,63.790,16.020,4.993,368.500,101.900,24.050,7.368,baseline
1270.000,266.000,41.080,10.720,1473.000,302.800,57.240,13.050,220.700,64.400,16.080,5.011,371.500,102.200,24.020,7.387,baseline
1268.000,263.300,41.760,10.750,1475.000,303.200,56.320,13.120,218.000,64.100,16.080,4.997,371.400,102.500,24.120,7.420,baseline
1274.000,265.400,41.330,10.930,1477.000,304.600,57.320,13.200,218.800,64.510,16.130,5.068,374.900,103.300,24.290,7.494,baseline
1284.000,269.600,42.460,11.050,1486.000,306.500,57.050,13.370,221.600,64.650,16.250,5.071,378.300,103.900,24.610,7.572,baseline
1293.000,271.400,42.050,11.060,1484.000,304.900,56.340,13.170,219.600,65.090,16.310,5.059,375.400,102.600,24.150,7.344,baseline
1265.000,265.500,41.590,10.660,1473.000,300.800,56.340,13.040,218.200,63.860,15.960,5.013,368.300,101.000,23.910,7.322,baseline
1262.000,264.400,41.950,10.800,1470.000,302.800,56.120,13.130,217.400,63.940,16.010,4.990,369.100,101.600,24.050,7.405,baseline
1269.000,266.800,42.240,10.820,1477.000,303.800,55.550,13.180,218.400,64.050,16.110,5.057,372.700,102.600,24.280,7.390,baseline
1271.000,267.000,43.560,10.880,1482.000,303.600,55.960,13.170,219.700,64.630,16.100,5.052,373.200,102.700,24.260,7.430,baseline
1273.000,266.700,42.500,10.920,1480.000,304.300,56.070,13.140,221.400,64.540,16.110,5.074,375.000,103.500,24.410,7.497,baseline
1281.000,267.600,42.300,10.940,1486.000,305.500,56.840,13.310,221.000,65.000,16.050,5.083,379.800,104.500,24.780,7.618,baseline
1294.000,271.900,44.260,11.220,1487.000,307.700,57.210,13.330,223.700,65.340,16.330,5.150,384.000,105.400,24.780,7.567,baseline
1286.000,268.800,43.290,10.960,1474.000,302.700,56.410,13.150,221.800,64.640,16.160,5.060,372.400,102.200,24.000,7.360,baseline
1263.000,264.000,42.220,10.790,1474.000,302.000,56.760,13.150,217.500,63.910,15.990,5.016,370.800,101.900,23.990,7.426,baseline
1269.000,267.100,42.570,10.930,1474.000,303.700,56.880,13.250,217.000,64.550,16.170,5.055,375.400,103.100,24.270,7.496,baseline
1277.000,268.600,42.310,10.990,1483.000,305.200,57.570,13.300,217.600,64.600,16.200,5.056,375.500,103.500,24.370,7.450,baseline
1277.000,268.300,43.010,11.080,1483.000,305.000,57.550,13.410,213.100,65.010,16.130,5.068,376.100,103.600,24.490,7.507,baseline
1286.000,271.500,44.180,11.210,1493.000,307.000,58.040,13.590,217.800,65.160,16.300,5.106,380.800,104.800,24.750,7.640,baseline
1296.000,274.600,44.290,11.510,1493.000,308.500,58.170,13.740,223.400,65.550,16.390,5.126,385.800,106.000,25.040,7.725,baseline
1310.000,277.100,46.560,11.610,1503.000,310.600,59.140,13.710,222.100,65.670,16.550,5.187,391.000,106.800,25.150,7.726,baseline
1300.000,272.700,44.470,11.270,1477.000,305.600,57.110,13.440,221.400,65.220,16.230,5.088,376.500,103.100,24.220,7.465,baseline
1277.000,268.400,43.890,11.170,1479.000,306.200,57.200,13.450,216.200,64.220,16.110,5.071,375.100,103.100,24.340,7.490,baseline
1282.000,271.200,44.180,11.190,1482.000,307.400,57.550,13.550,217.400,64.780,16.170,5.088,379.800,104.600,24.580,7.597,baseline
1292.000,272.600,42.870,11.370,1483.000,306.600,58.040,13.560,223.500,65.390,16.330,5.122,381.200,104.400,24.670,7.568,baseline
1292.000,273.000,44.350,11.400,1491.000,307.500,58.940,13.670,220.600,65.430,16.330,5.132,383.000,104.600,24.830,7.613,baseline
1299.000,274.900,44.790,11.550,1495.000,310.600,59.130,13.790,220.000,65.750,16.390,5.154,385.700,105.900,24.970,7.717,baseline
1312.000,278.900,44.150,11.690,1501.000,311.400,59.070,13.930,220.300,65.830,16.500,5.188,390.800,107.100,25.360,7.794,baseline
1326.000,282.600,47.340,11.870,1513.000,313.900,59.720,14.060,225.800,66.530,16.710,5.213,396.400,108.400,25.760,7.974,baseline
1341.000,286.500,47.780,12.130,1513.000,312.900,58.830,13.920,227.100,66.670,16.760,5.236,397.600,107.900,25.340,7.761,baseline
1307.000,275.400,44.660,11.540,1487.000,308.800,57.910,13.760,221.500,65.150,16.430,5.119,383.100,104.400,24.630,7.586,baseline
1293.000,274.100,44.790,11.410,1492.000,308.400,58.670,13.760,217.300,65.170,16.340,5.120,383.700,104.600,24.840,7.667,baseline
1304.000,275.400,46.280,11.660,1494.000,310.900,58.930,13.900,220.100,65.740,16.460,5.165,388.500,106.300,24.990,7.700,baseline
1312.000,277.300,45.390,11.710,1500.000,311.400,59.170,13.880,221.400,65.990,16.500,5.181,388.700,106.500,25.070,7.678,baseline
1311.000,278.000,46.720,11.740,1500.000,311.300,59.230,13.970,220.800,65.860,16.470,5.164,390.200,106.800,25.230,7.807,baseline
1319.000,279.500,46.390,11.900,1504.000,312.500,59.990,14.110,220.800,66.090,16.590,5.193,393.900,107.700,25.510,7.885,baseline
1332.000,283.200,46.620,12.180,1510.000,314.300,60.950,14.240,221.600,66.460,16.710,5.246,398.400,109.300,25.890,8.006,baseline
1346.000,288.900,48.170,12.410,1520.000,317.500,61.220,14.360,225.700,67.120,16.790,5.290,404.200,110.600,26.130,8.097,baseline
1360.000,290.800,47.230,12.330,1517.000,314.900,59.470,14.090,223.800,67.080,16.830,5.254,400.700,108.300,25.520,7.819,baseline
1316.000,279.700,46.130,11.800,1504.000,311.100,59.500,13.960,221.900,65.650,16.520,5.175,386.900,105.600,25.020,7.715,baseline
1309.000,278.800,47.000,11.820,1504.000,311.900,59.320,14.060,222.000,65.900,16.520,5.183,390.100,106.500,25.170,7.813,baseline
1320.000,280.500,47.180,12.050,1505.000,312.900,60.160,14.100,221.800,66.260,16.580,5.235,394.800,107.800,25.600,7.861,baseline
1326.000,281.900,47.390,11.960,1502.000,313.400,59.560,14.140,224.000,66.350,16.580,5.224,395.600,107.500,25.560,7.851,baseline
1325.000,284.400,47.510,12.080,1511.000,314.500,60.420,14.240,226.200,66.430,16.670,5.235,396.900,108.300,25.690,7.880,baseline
1335.000,284.700,48.550,12.280,1517.000,315.700,60.340,14.330,224.000,66.720,16.730,5.263,400.800,109.500,25.890,7.990,baseline
1348.000,286.200,48.730,12.460,1520.000,317.100,61.590,14.460,229.200,67.390,16.880,5.288,405.500,110.700,26.200,8.125,baseline
1362.000,293.000,48.710,12.630,1527.000,319.100,61.540,14.420,226.200,67.720,16.910,5.311,410.200,111.500,26.410,8.070,baseline
1345.000,286.300,46.990,12.130,1510.000,312.200,60.220,14.090,225.800,66.730,16.730,5.226,395.400,107.200,25.310,7.802,baseline
1315.000,278.800,45.070,11.950,1505.000,312.500,60.480,14.060,222.400,65.990,16.590,5.211,392.000,106.800,25.390,7.818,baseline
1320.000,282.600,45.910,12.080,1511.000,313.000,60.830,14.190,224.800,66.380,16.690,5.235,396.200,108.200,25.760,7.946,baseline
1331.000,284.400,47.160,12.150,1512.000,313.000,60.490,14.190,222.500,66.400,16.710,5.237,397.100,108.300,25.640,7.913,baseline
1329.000,283.900,46.930,12.150,1514.000,313.100,60.720,14.230,226.300,66.620,16.710,5.247,397.500,108.400,25.700,7.959,baseline
1333.000,285.200,48.010,12.320,1511.000,314.700,61.190,14.340,227.100,66.790,16.840,5.267,401.000,109.000,26.070,8.020,baseline
1345.000,287.700,49.900,12.440,1522.000,317.200,60.790,14.450,226.400,66.930,16.890,5.302,404.400,110.500,26.170,8.130,baseline
1358.000,290.700,48.790,12.630,1528.000,317.900,61.390,14.600,227.400,67.450,16.980,5.319,410.700,111.400,26.510,8.221,baseline
1370.000,292.900,48.580,12.630,1514.000,315.100,60.130,14.240,231.000,67.370,16.950,5.311,403.500,109.000,25.670,7.930,baseline
1322.000,282.000,46.870,12.010,1504.000,311.900,59.730,14.120,225.000,66.210,16.660,5.199,392.800,107.000,25.420,7.844,baseline
1316.000,281.300,45.820,12.050,1502.000,312.900,59.530,14.080,224.500,66.530,16.670,5.216,394.100,107.700,25.500,7.874,baseline
1324.000,283.000,46.480,12.080,1507.000,313.300,59.790,14.090,222.200,65.930,16.750,5.255,397.100,108.100,25.780,7.960,baseline
1327.000,281.500,46.620,12.110,1508.000,312.300,60.000,14.080,226.300,66.470,16.730,5.257,396.400,108.100,25.720,7.945,baseline
1325.000,282.200,46.660,12.140,1511.000,313.900,60.210,14.180,225.500,66.530,16.790,5.239,398.500,108.600,25.850,7.986,baseline
1334.000,286.100,47.470,12.250,1512.000,314.000,60.790,14.300,226.600,66.940,16.790,5.264,401.900,109.400,26.110,8.089,baseline
1344.000,289.000,48.400,12.440,1522.000,317.700,60.940,14.420,226.500,67.310,16.860,5.313,405.100,110.700,26.370,8.121,baseline
1357.000,290.600,49.150,12.500,1516.000,314.400,60.120,14.140,227.200,67.400,17.020,5.312,405.400,109.000,25.770,7.913,baseline
1318.000,278.800,46.580,11.940,1497.000,310.500,58.680,13.950,227.900,66.510,16.680,5.223,391.700,106.500,25.250,7.786,baseline
1306.000,278.400,46.050,11.870,1496.000,310.400,59.410,13.980,223.300,65.970,16.660,5.210,390.700,106.300,25.470,7.839,baseline
1310.000,278.900,46.590,11.870,1500.000,310.900,58.370,14.000,221.300,66.290,16.690,5.222,392.800,107.300,25.490,7.855,baseline
1314.000,279.700,46.110,11.880,1495.000,310.200,58.780,13.900,225.300,66.430,16.660,5.215,393.800,106.900,25.530,7.873,baseline
1311.000,278.900,46.210,11.900,1503.000,310.800,58.730,13.980,222.300,66.580,16.720,5.230,393.300,107.400,25.650,7.911,baseline
1316.000,279.000,46.490,11.940,1499.000,312.000,59.560,14.010,225.500,66.350,16.820,5.257,396.700,108.400,25.720,7.996,baseline
1325.000,283.500,46.940,12.120,1505.000,312.700,59.810,14.090,229.200,66.850,16.880,5.276,401.500,109.300,26.130,8.042,baseline
1335.000,285.200,46.730,12.180,1502.000,310.800,58.990,13.930,227.200,67.490,16.940,5.296,398.700,108.000,25.640,7.841,baseline
1300.000,276.100,44.670,11.670,1489.000,307.800,58.660,13.660,222.000,65.950,16.570,5.186,386.200,105.400,25.130,7.745,baseline
1285.000,272.300,44.610,11.530,1486.000,307.300,58.080,13.720,220.000,65.590,16.500,5.175,384.200,105.200,25.140,7.729,baseline
1288.000,272.500,44.860,11.560,1486.000,306.800,58.240,13.710,221.200,65.760,16.460,5.195,387.800,105.700,25.160,7.751,baseline
1289.000,273.600,45.580,11.530,1484.000,306.700,58.300,13.660,223.500,65.890,16.550,5.189,385.400,105.300,24.990,7.779,baseline
1287.000,271.700,45.570,11.500,1489.000,307.300,57.740,13.630,221.200,65.900,16.550,5.208,386.600,105.900,25.320,7.778,baseline
1293.000,274.000,45.710,11.610,1488.000,307.800,58.610,13.770,224.800,66.100,16.600,5.180,388.700,106.400,25.360,7.851,baseline
1301.000,276.100,46.760,11.830,1492.000,309.600,58.360,13.910,222.700,66.010,16.710,5.236,393.100,107.500,25.670,7.930,baseline
1312.000,279.400,45.730,11.860,1496.000,308.300,58.720,13.670,223.000,66.630,16.720,5.241,392.400,106.800,25.260,7.735,baseline
1282.000,271.400,43.420,11.330,1477.000,304.100,57.820,13.460,218.800,65.480,16.380,5.145,377.600,103.900,24.670,7.555,baseline
1265.000,267.700,43.310,11.190,1472.000,303.000,57.510,13.430,218.900,64.960,16.360,5.120,376.400,102.900,24.650,7.517,baseline
1264.000,266.800,41.920,11.200,1475.000,303.700,57.150,13.380,217.800,65.090,16.390,5.134,377.000,103.600,24.550,7.629,baseline
1267.000,266.600,43.270,11.180,1475.000,303.500,57.110,13.340,218.500,65.390,16.320,5.103,377.000,103.200,24.610,7.588,baseline
1263.000,267.200,44.190,11.200,1477.000,303.000,56.990,13.400,215.100,65.420,16.310,5.137,377.600,103.500,24.700,7.637,baseline
1270.000,267.000,44.140,11.170,1482.000,305.000,57.740,13.480,218.400,65.380,16.350,5.125,379.600,104.300,24.800,7.653,baseline
1279.000,271.100,43.890,11.350,1487.000,306.500,57.730,13.610,219.900,65.710,16.420,5.176,382.700,105.300,25.090,7.760,baseline
1290.000,274.400,44.740,11.500,1488.000,308.100,57.570,13.670,223.300,65.950,16.610,5.179,385.600,106.000,25.290,7.793,baseline
1285.000,271.200,44.640,11.250,1476.000,304.000,56.920,13.290,219.100,65.700,16.430,5.125,376.100,102.800,24.310,7.476,baseline
1253.000,263.200,42.700,10.930,1472.000,301.900,56.350,13.160,216.200,64.900,16.300,5.084,369.400,101.600,24.270,7.417,baseline
1249.000,261.700,42.040,10.920,1464.000,302.300,56.140,13.220,217.900,64.980,16.280,5.076,369.000,101.500,24.130,7.440,baseline
1253.000,263.100,42.750,10.930,1470.000,302.900,56.840,13.200,216.900,64.500,16.120,5.074,370.400,101.800,24.220,7.431,baseline
1252.000,264.600,41.000,10.880,1472.000,302.600,57.210,13.210,215.800,64.820,16.190,5.072,370.700,102.300,24.200,7.447,baseline
1256.000,263.900,41.250,10.960,1469.000,303.600,56.470,13.240,216.200,64.810,16.340,5.093,372.400,102.700,24.370,7.505,baseline
1264.000,266.600,43.350,11.070,1481.000,304.900,57.450,13.390,217.100,65.260,16.350,5.138,375.600,103.500,24.590,7.582,baseline
1274.000,267.700,43.310,11.250,1485.000,306.900,58.030,13.510,216.900,65.650,16.450,5.112,379.300,104.800,24.980,7.678,baseline
1286.000,272.200,44.160,11.500,1490.000,308.500,57.940,13.660,217.100,65.580,16.590,5.192,383.900,105.600,25.090,7.744,baseline
1292.000,273.100,44.260,11.210,1483.000,305.900,57.070,13.340,221.600,65.980,16.510,5.147,376.200,103.100,24.350,7.470,baseline
1257.000,264.200,41.940,10.840,1470.000,303.200,56.770,13.240,216.200,64.700,16.200,5.067,368.200,101.300,24.010,7.380,baseline
1252.000,263.100,42.110,10.830,1473.000,302.700,56.270,13.250,216.400,64.820,16.190,5.092,367.800,101.300,24.130,7.395,baseline
1257.000,263.600,42.760,10.920,1476.000,304.100,56.520,13.260,214.200,64.940,16.260,5.079,369.800,102.000,24.140,7.429,baseline
1256.000,265.500,42.310,10.910,1469.000,302.200,56.770,13.260,221.100,64.970,16.210,5.085,370.100,101.900,24.250,7.428,baseline
1259.000,265.400,42.110,10.990,1479.000,304.400,57.150,13.320,217.700,65.070,16.240,5.102,372.000,102.400,24.360,7.486,baseline
1268.000,266.400,42.410,11.180,1480.000,305.700,57.380,13.480,217.400,65.070,16.350,5.133,375.200,103.600,24.420,7.591,baseline
1279.000,269.300,42.850,11.270,1489.000,307.700,58.070,13.600,219.000,65.530,16.430,5.154,379.100,104.600,24.850,7.661,baseline
1290.000,273.400,43.970,11.460,1490.000,309.500,58.470,13.720,223.500,65.730,16.580,5.185,384.100,105.300,25.140,7.757,baseline
1300.000,274.600,44.640,11.580,1504.000,311.100,59.360,13.820,219.700,66.300,16.680,5.219,387.200,106.600,25.260,7.763,baseline
1297.000,274.700,43.750,11.360,1485.000,305.900,57.860,13.470,222.800,66.020,16.550,5.155,376.500,102.800,24.290,7.452,baseline
1266.000,267.800,44.040,11.120,1477.000,306.100,56.970,13.400,216.100,65.070,16.350,5.091,371.800,102.200,24.150,7.469,baseline
1268.000,266.700,42.960,11.110,1480.000,306.100,57.560,13.380,216.000,64.860,16.410,5.099,371.600,102.600,24.410,7.506,baseline
1272.000,268.300,43.620,11.170,1484.000,306.000,57.530,13.410,217.200,65.190,16.410,5.165,373.700,103.200,24.430,7.511,baseline
1273.000,267.000,43.190,11.140,1484.000,306.600,57.510,13.450,216.900,65.240,16.340,5.108,374.500,102.700,24.430,7.505,baseline
1275.000,267.500,43.840,11.210,1485.000,307.800,57.940,13.540,220.700,65.360,16.450,5.136,375.700,103.500,24.610,7.605,baseline
1283.000,272.900,44.050,11.360,1486.000,308.900,58.910,13.620,218.600,65.420,16.580,5.151,379.900,104.800,24.840,7.651,baseline
1296.000,274.000,44.300,11.580,1498.000,311.100,59.390,13.770,218.200,66.000,16.500,5.185,384.500,105.800,25.150,7.766,baseline
1307.000,277.900,44.470,11.780,1505.000,311.400,59.940,13.900,221.200,66.120,16.620,5.214,388.100,106.800,25.490,7.822,baseline
1316.000,281.400,46.640,11.910,1506.000,314.200,59.910,14.040,221.500,66.540,16.690,5.250,392.400,107.800,25.550,7.926,baseline
1328.000,282.300,46.630,11.900,1509.000,311.300,58.880,13.790,223.100,66.930,16.830,5.252,389.200,106.000,25.120,7.682,baseline
1291.000,272.900,44.500,11.450,1488.000,307.800,58.660,13.660,221.700,65.380,16.480,5.132,378.300,103.400,24.590,7.528,baseline
1282.000,272.500,43.890,11.370,1486.000,307.300,58.200,13.690,220.000,65.290,16.480,5.148,376.100,103.900,24.560,7.593,baseline
1285.000,272.300,45.040,11.470,1494.000,308.600,58.380,13.690,218.600,65.850,16.450,5.157,379.700,104.100,24.800,7.611,baseline
1287.000,272.600,42.940,11.390,1492.000,308.600,58.020,13.610,218.500,65.790,16.570,5.164,377.800,103.800,24.740,7.611,baseline
1287.000,273.500,45.510,11.480,1497.000,308.000,59.040,13.650,221.200,65.890,16.410,5.164,379.500,104.700,24.860,7.675,baseline
1293.000,273.300,44.510,11.550,1492.000,310.200,58.810,13.780,218.700,65.530,16.590,5.182,383.200,105.200,25.150,7.748,baseline
1303.000,278.400,44.990,11.730,1501.000,311.500,59.660,13.910,221.500,66.140,16.610,5.182,387.800,106.700,25.240,7.810,baseline
1315.000,281.500,45.920,11.840,1510.000,312.500,60.050,14.010,221.800,66.330,16.710,5.247,391.300,107.500,25.570,7.914,baseline
1324.000,284.200,45.800,11.940,1514.000,314.200,59.260,14.050,222.200,66.810,16.880,5.282,396.300,108.700,25.750,7.965,baseline
1336.000,285.900,46.750,12.040,1511.000,312.300,59.730,13.830,225.800,67.360,16.980,5.271,396.600,107.800,25.460,7.796,baseline
1301.000,276.300,44.100,11.440,1492.000,307.100,58.370,13.630,224.100,66.080,16.600,5.172,380.600,104.200,24.740,7.593,baseline
1284.000,271.600,43.620,11.400,1496.000,309.100,58.050,13.660,216.700,65.370,16.480,5.167,380.600,104.000,24.790,7.664,baseline
1288.000,273.100,45.770,11.520,1489.000,309.100,58.610,13.690,220.000,65.590,16.540,5.179,382.300,105.000,25.020,7.679,baseline
1293.000,273.200,45.270,11.550,1490.000,308.400,58.050,13.700,220.800,65.760,16.560,5.154,381.600,105.000,24.970,7.655,baseline
1290.000,274.400,44.330,11.520,1493.000,308.300,58.620,13.750,218.900,66.110,16.590,5.178,382.700,105.000,24.890,7.715,baseline
1294.000,275.400,45.610,11.700,1495.000,310.600,58.640,13.890,220.700,65.940,16.640,5.209,384.900,106.100,25.130,7.748,baseline
1305.000,278.600,46.110,11.810,1502.000,311.900,60.530,14.090,221.400,66.480,16.760,5.248,389.700,107.100,25.420,7.883,baseline
1318.000,281.600,46.850,12.040,1509.000,314.600,60.450,14.220,222.300,66.810,16.800,5.300,393.400,108.200,25.800,7.953,baseline
1331.000,285.000,47.180,12.330,1513.000,315.800,60.540,14.300,224.400,67.260,16.860,5.303,399.100,109.500,26.090,8.071,baseline
1341.000,287.800,47.860,12.500,1523.000,317.400,61.050,14.440,221.700,67.560,16.990,5.327,402.600,110.500,26.310,8.081,baseline
1340.000,285.200,47.990,12.090,1501.000,311.700,59.370,13.970,226.700,66.920,16.840,5.265,389.600,105.900,25.130,7.746,baseline
1292.000,275.600,45.090,11.710,1487.000,308.900,59.290,13.930,220.700,65.930,16.610,5.160,380.900,104.600,24.860,7.645,baseline
1288.000,275.100,45.550,11.680,1492.000,310.200,60.450,13.970,217.700,65.930,16.530,5.166,382.500,105.000,25.010,7.684,baseline
1296.000,277.500,45.250,11.840,1493.000,310.500,59.500,14.040,220.600,66.110,16.660,5.191,385.100,105.600,25.150,7.710,baseline
1293.000,273.300,47.380,11.800,1492.000,310.000,59.320,14.050,217.900,66.190,16.580,5.196,383.900,105.200,25.030,7.732,baseline
1294.000,275.000,46.620,11.870,1494.000,310.900,59.670,14.060,221.000,66.220,16.550,5.195,384.200,106.200,25.130,7.793,baseline
1303.000,279.000,47.330,11.930,1503.000,312.200,60.550,14.190,221.400,66.380,16.670,5.230,389.300,107.000,25.490,7.868,baseline
1315.000,282.200,46.810,12.160,1509.000,315.000,60.350,14.310,220.300,66.770,16.740,5.281,394.100,108.100,25.780,7.943,baseline
1329.000,284.700,47.540,12.360,1514.000,315.800,61.180,14.440,222.100,67.030,16.940,5.313,398.100,109.500,26.130,8.063,baseline
1342.000,288.200,47.860,12.600,1514.000,318.300,62.310,14.550,226.600,67.560,16.930,5.324,402.400,110.800,26.500,8.135,baseline
1346.000,285.700,46.240,12.210,1501.000,312.300,60.480,14.100,226.000,67.260,16.910,5.261,391.000,106.400,25.210,7.756,baseline
1291.000,274.300,44.670,11.730,1489.000,309.000,59.090,13.980,219.800,65.860,16.560,5.195,380.700,104.300,24.800,7.599,baseline
1284.000,272.200,45.340,11.710,1492.000,308.800,59.450,13.990,220.600,65.580,16.510,5.165,381.000,104.600,24.880,7.675,baseline
1291.000,275.700,47.130,11.880,1496.000,309.900,60.950,14.070,220.500,65.870,16.570,5.201,386.400,105.800,25.150,7.703,baseline
1293.000,275.300,46.360,11.800,1489.000,309.000,59.540,14.030,218.600,66.010,16.560,5.178,383.800,105.300,25.070,7.722,baseline
1291.000,275.300,45.850,11.830,1491.000,310.400,59.890,14.060,221.700,65.940,16.600,5.232,384.300,105.700,25.040,7.757,baseline
1300.000,276.100,46.610,11.920,1497.000,312.100,59.870,14.200,220.000,66.380,16.640,5.216,388.800,106.800,25.570,7.845,baseline
1313.000,280.100,46.990,12.140,1503.000,313.500,61.430,14.320,221.300,66.610,16.770,5.252,392.900,108.400,25.840,7.953,baseline
1329.000,285.300,47.610,12.350,1509.000,316.700,61.080,14.430,222.700,67.290,16.960,5.318,398.100,109.700,26.060,8.033,baseline
1343.000,287.400,49.200,12.480,1518.000,315.600,61.010,14.320,224.700,67.770,17.020,5.317,400.900,109.400,25.770,7.912,baseline
1310.000,278.900,46.080,11.810,1487.000,309.200,59.900,13.970,220.000,66.230,16.590,5.188,382.200,104.700,24.700,7.607,baseline
1280.000,271.700,45.160,11.650,1482.000,307.900,59.070,13.950,215.300,65.410,16.480,5.154,376.700,103.900,24.680,7.572,baseline
1282.000,272.300,45.600,11.770,1493.000,309.400,59.290,14.050,215.000,65.830,16.530,5.172,381.300,105.000,25.000,7.724,baseline
1292.000,274.900,45.980,11.850,1490.000,310.100,60.190,14.050,221.000,66.250,16.590,5.193,383.700,105.100,24.860,7.686,baseline
1289.000,275.200,45.000,11.750,1486.000,309.300,59.150,14.060,222.600,65.910,16.560,5.174,382.000,105.300,24.850,7.667,baseline
1292.000,275.900,47.510,11.820,1491.000,310.400,59.480,14.120,219.700,65.650,16.550,5.192,385.200,105.900,25.240,7.781,baseline
1303.000,278.100,46.870,12.120,1503.000,312.400,60.680,14.220,219.900,66.620,16.560,5.241,390.100,107.400,25.560,7.890,baseline
1316.000,281.500,48.470,12.270,1506.000,315.500,60.890,14.380,220.000,66.630,16.860,5.268,394.500,109.100,25.850,7.990,baseline
1333.000,285.800,48.400,12.430,1508.000,316.300,60.520,14.310,223.900,67.030,16.900,5.294,400.000,109.300,25.710,7.914,baseline
1313.000,279.100,46.410,11.830,1488.000,307.800,59.140,13.970,221.800,66.280,16.610,5.193,381.800,104.500,24.670,7.607,baseline
1278.000,273.000,44.540,11.610,1478.000,306.900,59.780,13.940,218.000,65.320,16.350,5.128,376.900,103.700,24.570,7.605,baseline
1279.000,272.200,44.580,11.730,1482.000,309.400,59.380,13.970,216.800,65.920,16.450,5.156,380.200,104.700,24.920,7.668,baseline
1290.000,275.800,45.330,11.760,1486.000,309.000,59.390,13.940,219.100,65.780,16.490,5.180,383.100,104.900,24.820,7.646,baseline
1287.000,274.100,45.160,11.710,1485.000,307.500,59.660,13.980,215.900,65.530,16.490,5.162,382.400,105.000,24.840,7.678,baseline
1289.000,275.900,45.300,11.820,1487.000,309.600,59.830,14.030,218.200,66.130,16.530,5.177,384.300,106.100,25.120,7.750,baseline
1299.000,278.100,45.860,11.960,1492.000,310.900,60.080,14.200,218.100,66.160,16.630,5.238,387.400,106.900,25.280,7.812,baseline
1314.000,279.700,47.330,12.110,1501.000,313.500,61.240,14.240,221.700,66.640,16.750,5.265,393.000,108.200,25.750,7.939,baseline
1327.000,283.200,47.820,12.200,1500.000,311.300,59.490,14.040,222.200,67.050,16.850,5.254,391.100,106.800,25.130,7.677,baseline
1286.000,273.700,45.730,11.560,1475.000,306.800,58.900,13.790,220.600,65.440,16.380,5.118,375.300,103.000,24.440,7.543,baseline
1267.000,268.200,44.600,11.460,1467.000,305.600,58.660,13.840,216.100,64.760,16.350,5.110,373.800,103.200,24.460,7.556,baseline
1273.000,270.100,45.550,11.600,1477.000,307.700,59.520,13.830,215.800,65.110,16.370,5.118,377.200,104.200,24.670,7.599,baseline
1277.000,269.500,45.280,11.560,1475.000,306.200,58.820,13.780,219.400,65.170,16.340,5.125,375.900,103.700,24.510,7.545,baseline
1273.000,269.400,45.070,11.560,1475.000,306.600,58.710,13.780,215.900,65.210,16.360,5.115,377.000,103.800,24.650,7.567,baseline
1279.000,271.300,45.450,11.620,1481.000,307.300,59.340,13.910,218.100,65.000,16.420,5.149,379.200,104.800,24.830,7.646,baseline
1290.000,274.800,44.920,11.810,1488.000,308.700,59.850,14.010,218.100,65.510,16.520,5.162,383.500,106.100,25.160,7.761,baseline
1302.000,277.700,44.820,11.730,1476.000,306.600,59.040,13.760,220.500,65.820,16.510,5.154,381.300,103.800,24.580,7.509,baseline
1261.000,265.400,44.920,11.270,1458.000,302.000,58.140,13.580,216.000,64.550,16.190,5.054,368.100,101.300,24.000,7.370,baseline
1247.000,264.000,43.700,11.120,1463.000,301.900,57.710,13.500,214.000,64.330,16.040,5.039,367.100,101.100,23.920,7.350,baseline
1251.000,264.700,42.620,11.250,1458.000,303.300,57.140,13.550,213.100,64.340,16.130,5.013,368.200,101.800,24.150,7.405,baseline
1253.000,263.000,43.650,11.190,1460.000,301.500,57.200,13.470,212.200,64.560,16.140,5.035,367.800,101.400,24.030,7.366,baseline
1251.000,264.300,44.420,11.160,1464.000,302.400,58.030,13.560,215.100,64.220,16.140,5.041,370.000,102.000,24.170,7.439,baseline
1257.000,266.200,42.910,11.280,1466.000,303.200,57.610,13.600,214.400,64.370,16.190,5.072,371.700,103.200,24.260,7.511,baseline
1269.000,268.200,43.670,11.490,1472.000,304.900,58.270,13.640,216.700,64.920,16.240,5.095,375.300,103.900,24.520,7.496,baseline
1258.000,264.400,42.090,11.150,1449.000,300.200,56.630,13.290,219.500,64.690,16.100,5.029,363.900,100.000,23.600,7.196,baseline
1227.000,257.000,40.800,10.840,1442.000,297.100,55.900,13.210,215.100,63.470,15.880,4.967,357.500,98.830,23.300,7.155,baseline
1222.000,257.100,41.240,10.770,1443.000,297.500,55.880,13.180,212.300,63.500,15.880,4.970,358.500,98.900,23.450,7.224,baseline
1227.000,258.000,40.570,10.770,1440.000,296.700,56.290,13.150,213.500,63.660,15.900,4.992,360.000,99.470,23.470,7.214,baseline
1224.000,257.200,40.900,10.740,1446.000,296.000,56.410,13.190,213.700,63.650,15.910,4.974,360.000,99.310,23.440,7.195,baseline
1229.000,257.200,41.970,10.820,1449.000,298.200,56.140,13.250,215.200,63.400,15.880,4.971,361.500,100.300,23.560,7.327,baseline
1238.000,260.800,42.970,10.940,1461.000,299.700,57.120,13.350,212.900,64.440,16.050,5.024,366.600,101.600,23.950,7.377,baseline
1251.000,264.400,43.060,11.090,1457.000,298.300,56.170,13.170,211.200,64.250,16.100,5.025,367.700,100.700,23.640,7.197,baseline
1223.000,257.100,40.620,10.570,1430.000,294.400,54.840,12.890,215.600,63.260,15.830,4.924,354.400,97.720,23.000,7.057,baseline
1205.000,250.600,40.370,10.420,1423.000,292.800,54.210,12.910,209.000,62.780,15.660,4.900,350.800,97.190,22.880,7.056,baseline
1204.000,253.100,39.670,10.450,1428.000,293.300,55.120,12.900,211.800,62.890,15.700,4.885,352.900,98.110,23.010,7.084,baseline
1208.000,252.900,39.860,10.400,1433.000,293.900,54.860,12.840,213.200,62.790,15.720,4.897,353.400,97.600,23.150,7.073,baseline
1207.000,253.000,39.740,10.440,1428.000,293.600,55.120,12.850,211.500,62.880,15.770,4.926,355.200,98.300,23.100,7.155,baseline
1214.000,254.900,40.420,10.510,1433.000,295.300,55.650,12.950,212.100,63.430,15.820,4.958,358.300,99.380,23.410,7.238,baseline
1226.000,258.200,40.360,10.650,1440.000,297.700,56.650,13.110,210.700,63.560,15.830,4.969,364.200,100.600,23.790,7.321,baseline
1239.000,261.100,42.160,10.860,1447.000,297.900,56.570,13.120,217.000,64.130,16.140,5.013,367.900,101.500,23.850,7.324,baseline
1226.000,255.700,40.390,10.440,1430.000,292.200,55.100,12.760,215.700,63.070,15.750,4.916,353.600,97.110,22.980,7.017,baseline
1197.000,249.800,40.270,10.240,1422.000,290.900,54.380,12.630,211.700,62.260,15.660,4.872,349.700,97.000,22.680,7.004,baseline
1194.000,249.100,39.510,10.260,1425.000,291.600,54.080,12.680,208.500,62.290,15.620,4.860,351.100,97.600,23.010,7.080,baseline
1202.000,250.900,40.830,10.210,1419.000,292.000,53.530,12.660,208.400,63.020,15.660,4.868,353.100,97.890,22.950,7.033,baseline
1201.000,250.600,38.980,10.230,1430.000,291.400,54.360,12.690,209.400,62.600,15.620,4.852,353.900,97.850,23.080,7.101,baseline
1206.000,251.600,39.400,10.320,1431.000,293.500,54.740,12.770,209.900,63.270,15.670,4.909,357.000,98.700,23.410,7.203,baseline
1218.000,254.500,39.810,10.540,1436.000,295.800,55.040,12.890,214.300,63.110,15.880,4.931,361.900,100.100,23.770,7.300,baseline
1230.000,257.300,40.960,10.690,1445.000,298.400,55.730,13.030,210.800,63.720,15.900,4.994,366.600,101.300,23.980,7.386,baseline
1244.000,261.600,40.870,10.880,1452.000,298.500,56.780,13.150,213.000,64.250,16.030,5.007,370.900,102.900,24.370,7.463,baseline
1257.000,264.800,42.200,10.890,1453.000,296.700,55.150,12.840,217.800,64.640,16.130,5.014,369.200,101.200,23.670,7.250,baseline
1217.000,254.900,39.370,10.310,1432.000,292.100,54.580,12.660,210.800,63.030,15.760,4.898,355.100,98.010,23.090,7.093,baseline
1203.000,251.300,40.240,10.250,1426.000,292.000,54.160,12.630,209.800,62.600,15.690,4.888,354.200,97.860,23.160,7.120,baseline
1203.000,251.000,39.270,10.280,1431.000,292.800,54.250,12.640,210.000,63.060,15.780,4.913,357.900,98.740,23.280,7.147,baseline
1207.000,250.400,40.510,10.230,1427.000,292.100,54.190,12.650,208.800,63.200,15.690,4.895,356.400,98.140,23.290,7.110,baseline
1206.000,251.800,39.510,10.230,1429.000,293.100,53.590,12.710,204.300,62.810,15.700,4.894,358.300,99.060,23.360,7.178,baseline
1213.000,253.000,40.240,10.370,1434.000,293.700,53.990,12.790,213.900,63.090,15.820,4.933,361.600,100.200,23.670,7.276,baseline
1225.000,256.900,40.680,10.530,1445.000,297.300,55.770,12.880,214.000,63.550,15.930,4.979,366.400,102.000,24.000,7.377,baseline
1240.000,259.700,40.690,10.770,1450.000,298.300,56.520,13.070,216.200,64.280,16.010,5.019,372.300,102.700,24.260,7.505,baseline
1252.000,264.200,42.620,10.940,1460.000,300.100,56.470,13.210,216.800,64.400,16.070,5.035,375.800,103.800,24.540,7.577,baseline
1266.000,267.000,42.550,11.090,1460.000,299.300,56.880,13.080,219.200,65.130,16.220,5.061,378.200,103.400,24.320,7.398,baseline
1233.000,256.900,40.680,10.460,1437.000,293.700,55.330,12.770,215.400,63.510,15.910,4.929,359.700,98.800,23.480,7.149,baseline
1212.000,255.000,39.160,10.400,1432.000,293.700,54.700,12.770,212.300,63.050,15.750,4.898,357.300,98.890,23.370,7.176,baseline
1213.000,254.000,39.810,10.390,1439.000,293.900,54.570,12.840,214.500,63.680,15.830,4.929,361.700,100.000,23.490,7.247,baseline
1220.000,254.400,40.310,10.430,1433.000,293.800,55.000,12.840,212.000,63.630,15.840,4.936,361.100,99.670,23.500,7.178,baseline
1217.000,254.800,40.530,10.430,1435.000,294.400,54.470,12.850,213.100,63.400,15.860,4.930,361.900,99.720,23.610,7.226,baseline
1223.000,254.500,41.040,10.510,1447.000,295.400,55.850,13.000,209.700,63.330,15.930,4.967,364.900,101.000,23.840,7.274,baseline
1234.000,260.500,42.730,10.750,1453.000,298.700,55.870,13.120,215.000,63.880,16.020,5.011,369.800,102.200,24.220,7.429,baseline
1249.000,261.300,42.600,10.890,1462.000,300.400,57.010,13.170,218.800,64.400,16.110,5.030,374.700,103.600,24.430,7.562,baseline
1261.000,266.700,42.960,11.120,1468.000,302.200,57.330,13.390,220.300,64.560,16.220,5.045,379.900,104.800,24.720,7.608,baseline
1275.000,269.200,44.190,11.300,1474.000,303.100,56.990,13.230,219.700,65.590,16.320,5.081,381.300,104.600,24.580,7.490,baseline
1244.000,259.900,40.510,10.720,1438.000,297.200,56.170,12.990,213.500,64.200,15.970,4.979,363.900,99.340,23.530,7.204,baseline
1219.000,255.700,40.380,10.540,1443.000,295.400,55.160,12.930,213.100,63.430,15.800,4.912,360.600,99.610,23.480,7.190,baseline
1221.000,256.500,40.970,10.620,1440.000,296.900,55.800,13.050,212.800,63.350,15.840,4.954,365.700,101.100,23.840,7.296,baseline
1229.000,258.500,40.160,10.600,1443.000,297.100,56.430,12.980,218.000,63.990,15.890,4.942,365.400,100.900,23.760,7.275,baseline
1226.000,257.400,41.570,10.560,1446.000,296.300,55.870,13.050,212.500,63.370,15.880,4.961,365.200,100.700,23.740,7.281,baseline
1231.000,258.600,42.240,10.670,1451.000,298.000,56.560,13.150,214.500,64.030,16.010,4.985,368.200,101.800,24.150,7.389,baseline
1243.000,261.000,44.110,10.840,1454.000,300.300,56.840,13.250,217.400,64.560,16.080,5.006,373.100,103.100,24.290,7.473,baseline
1257.000,264.700,44.280,11.100,1462.000,303.300,57.230,13.420,216.700,64.810,16.200,5.068,378.600,104.400,24.700,7.594,baseline
1271.000,267.300,44.060,11.280,1474.000,301.900,57.560,13.320,220.400,65.310,16.300,5.075,381.500,104.500,24.470,7.494,baseline
1243.000,261.600,42.790,10.680,1445.000,295.800,55.090,13.050,218.700,64.150,16.090,4.962,364.400,100.100,23.580,7.184,baseline
1217.000,253.800,39.400,10.490,1439.000,296.000,55.900,12.920,218.000,63.440,15.930,4.941,362.500,99.730,23.500,7.207,baseline
1218.000,254.600,40.650,10.560,1442.000,295.400,56.630,12.980,215.600,63.510,15.930,4.964,365.700,100.700,23.800,7.317,baseline
1228.000,258.000,40.850,10.650,1447.000,296.400,56.570,13.010,218.100,64.110,15.980,4.974,365.100,100.800,23.750,7.320,baseline
1225.000,256.300,41.800,10.590,1446.000,295.900,56.080,13.030,216.000,63.870,15.960,4.991,364.700,100.900,23.750,7.321,baseline
1229.000,258.200,40.950,10.660,1454.000,298.200,56.360,13.150,219.200,64.220,15.990,5.014,369.100,101.900,24.040,7.393,baseline
1241.000,261.800,42.440,10.850,1460.000,299.800,57.450,13.230,220.200,64.500,16.110,5.039,373.700,103.300,24.350,7.510,baseline
1255.000,264.400,43.970,10.990,1467.000,302.300,56.660,13.330,221.100,65.090,16.260,5.044,380.100,104.700,24.670,7.629,baseline
1266.000,264.900,43.660,10.830,1457.000,297.400,55.480,12.980,224.800,65.370,16.150,5.013,371.200,101.600,23.990,7.291,baseline
1218.000,255.100,40.680,10.360,1439.000,294.300,55.650,12.820,219.400,63.410,15.810,4.899,360.800,99.630,23.530,7.196,baseline
1208.000,252.200,40.770,10.360,1443.000,293.700,55.150,12.920,217.400,63.850,15.850,4.954,360.900,99.940,23.530,7.239,baseline
1217.000,254.800,40.180,10.410,1439.000,296.100,55.990,12.860,218.400,63.860,15.930,4.976,365.300,100.800,23.710,7.257,baseline
1219.000,254.700,40.880,10.430,1445.000,295.400,55.470,12.870,219.700,63.780,16.030,4.963,364.100,100.600,23.780,7.286,baseline
1219.000,254.600,39.990,10.390,1444.000,295.700,55.740,12.960,218.200,64.190,15.890,4.952,365.900,101.400,23.800,7.340,baseline
1226.000,257.900,39.340,10.610,1450.000,297.100,55.840,13.080,217.400,64.440,16.050,4.976,369.800,102.200,24.090,7.424,baseline
1241.000,260.400,41.290,10.800,1459.000,300.100,56.880,13.200,224.600,64.590,16.190,5.028,374.900,103.700,24.620,7.520,baseline
1257.000,264.800,42.220,10.840,1452.000,297.600,55.730,13.000,220.700,65.180,16.250,5.055,375.600,102.500,24.120,7.308,baseline
1219.000,254.600,40.300,10.330,1435.000,292.800,54.970,12.750,220.700,63.900,15.890,4.949,361.100,99.340,23.400,7.138,baseline
1203.000,250.100,40.430,10.280,1433.000,292.700,55.480,12.760,214.900,63.390,15.790,4.925,359.600,99.610,23.450,7.188,baseline
1206.000,250.600,40.960,10.250,1431.000,293.900,54.900,12.790,215.400,63.400,15.860,4.935,363.100,100.000,23.640,7.229,baseline
1213.000,253.500,40.550,10.310,1436.000,293.000,55.100,12.840,218.300,63.530,15.990,4.968,363.000,100.200,23.600,7.226,baseline
1212.000,254.300,40.470,10.310,1439.000,294.300,54.950,12.810,216.000,63.660,15.940,4.966,364.900,100.600,23.570,7.295,baseline
1219.000,254.400,40.610,10.450,1441.000,295.400,54.760,12.960,218.800,64.100,15.950,4.982,367.800,101.800,24.110,7.372,baseline
1232.000,257.200,41.060,10.660,1453.000,297.800,56.510,13.100,220.800,64.200,16.140,5.019,372.900,103.000,24.320,7.481,baseline
1247.000,262.900,41.720,10.910,1460.000,299.300,56.850,13.050,220.200,65.180,16.240,5.049,378.100,104.000,24.440,7.439,baseline
1230.000,257.100,39.830,10.380,1430.000,293.200,54.400,12.730,222.600,64.540,15.980,4.956,362.600,99.580,23.560,7.177,baseline
1204.000,249.700,38.890,10.260,1435.000,292.600,54.450,12.690,216.000,63.430,15.830,4.936,359.600,99.500,23.390,7.222,baseline
1204.000,251.400,39.770,10.230,1432.000,292.200,55.070,12.690,216.000,63.620,15.880,4.944,362.200,99.910,23.690,7.261,baseline
1213.000,253.300,40.510,10.280,1440.000,293.000,55.060,12.710,216.700,63.710,15.920,4.980,364.100,100.300,23.720,7.233,baseline
1212.000,252.200,40.900,10.230,1434.000,292.800,55.450,12.750,216.600,63.610,15.850,4.920,364.600,100.300,23.780,7.297,baseline
1218.000,254.400,41.030,10.420,1434.000,294.700,55.400,12.880,214.200,64.150,15.860,4.982,369.100,101.200,24.060,7.358,baseline
1228.000,257.200,42.380,10.560,1445.000,296.800,56.160,13.010,217.200,64.340,16.070,4.997,371.800,102.800,24.310,7.464,baseline
1242.000,261.300,42.730,10.790,1460.000,298.700,56.080,13.060,222.100,64.450,16.170,5.038,378.400,103.600,24.450,7.466,baseline
1235.000,257.000,40.580,10.410,1436.000,293.000,55.130,12.720,220.600,63.970,15.930,4.973,364.500,100.100,23.550,7.199,baseline
1205.000,250.500,40.020,10.250,1431.000,291.700,54.660,12.650,216.000,63.300,15.870,4.945,360.600,99.070,23.500,7.195,baseline
1204.000,253.000,38.860,10.220,1435.000,292.000,55.170,12.630,216.900,63.680,15.840,4.919,363.500,100.100,23.640,7.272,baseline
1213.000,254.000,38.870,10.230,1431.000,293.200,54.480,12.650,217.400,63.680,15.940,4.933,365.200,100.000,23.740,7.279,baseline
1212.000,252.500,40.270,10.220,1437.000,291.400,54.260,12.650,222.000,63.320,15.860,4.967,364.700,100.300,23.810,7.337,baseline
1216.000,252.900,40.350,10.340,1437.000,293.400,54.830,12.700,216.800,63.540,15.900,4.987,367.200,101.800,23.940,7.373,baseline
1226.000,254.400,40.170,10.440,1441.000,294.800,55.380,12.830,221.200,64.150,15.980,5.005,372.100,102.200,24.300,7.447,baseline
1238.000,259.800,41.630,10.600,1454.000,295.400,54.980,12.780,221.700,64.360,16.130,5.026,375.600,103.200,24.270,7.432,baseline
1224.000,253.300,40.010,10.220,1424.000,290.800,54.150,12.520,217.800,63.660,15.860,4.909,362.800,99.160,23.510,7.170,baseline
1202.000,249.000,38.940,10.080,1425.000,290.600,54.160,12.460,216.100,62.880,15.780,4.905,360.200,98.930,23.400,7.151,baseline
1202.000,250.800,39.610,10.100,1430.000,291.200,53.720,12.460,220.500,63.160,15.740,4.920,361.800,99.680,23.720,7.244,baseline
1209.000,250.100,39.140,10.060,1428.000,291.000,53.420,12.470,220.500,63.310,15.820,4.907,364.300,99.800,23.580,7.248,baseline
1208.000,251.500,39.440,10.150,1425.000,291.200,54.030,12.540,215.200,63.730,15.790,4.910,363.900,100.400,23.560,7.266,baseline
1214.000,252.400,39.990,10.280,1436.000,292.000,54.980,12.670,214.900,63.600,15.830,4.945,367.800,100.800,23.920,7.340,baseline
1223.000,255.700,40.380,10.390,1440.000,294.300,55.190,12.740,219.700,63.780,15.910,4.974,371.000,102.400,24.220,7.444,baseline
1236.000,257.200,39.460,10.540,1446.000,294.700,55.270,12.640,220.700,64.440,16.050,5.003,374.700,102.500,24.050,7.370,baseline
1215.000,252.600,39.580,10.120,1426.000,289.200,53.910,12.400,221.200,63.560,15.790,4.910,360.400,98.870,23.340,7.129,baseline
1197.000,248.000,38.890,9.903,1426.000,288.400,53.020,12.340,214.900,63.020,15.680,4.888,359.400,98.640,23.410,7.213,baseline
1197.000,248.400,39.530,9.967,1425.000,290.000,53.790,12.390,213.400,62.940,15.750,4.880,362.300,99.340,23.470,7.211,baseline
1202.000,249.200,39.500,10.010,1431.000,288.900,53.010,12.360,215.400,62.930,15.810,4.926,362.800,99.310,23.580,7.221,baseline
1202.000,249.500,40.370,10.040,1428.000,289.600,53.310,12.400,215.700,63.260,15.710,4.910,363.300,99.800,23.590,7.218,baseline
1207.000,250.800,40.140,10.120,1436.000,290.900,53.810,12.530,216.800,63.380,15.800,4.926,365.900,100.700,23.890,7.288,baseline
1216.000,252.700,41.130,10.230,1436.000,291.900,54.270,12.600,217.000,63.900,15.950,4.968,371.000,101.800,24.100,7.396,baseline
1228.000,257.600,40.350,10.440,1441.000,293.300,54.330,12.650,223.600,64.120,15.980,4.997,376.200,102.600,24.230,7.402,baseline
1217.000,252.400,39.380,10.060,1420.000,288.300,53.650,12.300,218.100,63.720,15.840,4.908,361.400,98.700,23.350,7.127,baseline
1190.000,246.400,38.360,9.828,1421.000,287.700,53.380,12.250,215.200,62.580,15.740,4.885,358.700,98.020,23.270,7.081,baseline
1189.000,246.500,37.900,9.816,1418.000,287.500,53.040,12.280,215.300,62.830,15.710,4.878,360.700,99.120,23.540,7.149,baseline
1194.000,247.500,38.740,9.929,1420.000,287.900,52.990,12.230,216.300,63.000,15.750,4.902,360.400,98.690,23.470,7.177,baseline
1192.000,247.300,38.500,9.814,1423.000,288.100,53.460,12.310,214.000,62.920,15.670,4.890,360.900,99.160,23.530,7.163,baseline
1197.000,248.300,38.540,9.947,1426.000,289.700,53.320,12.460,214.600,63.320,15.820,4.915,364.200,99.870,23.710,7.275,baseline
1207.000,250.800,39.740,10.170,1426.000,291.800,54.340,12.490,215.400,63.330,15.900,4.944,368.100,101.400,23.940,7.348,baseline
1219.000,254.200,40.720,10.280,1442.000,291.900,54.650,12.650,216.000,63.980,15.840,4.975,372.600,102.300,24.210,7.433,baseline
1226.000,255.500,40.270,10.160,1423.000,289.400,53.210,12.300,217.300,63.710,15.980,4.953,363.800,99.660,23.480,7.151,baseline
1189.000,245.400,37.310,9.752,1419.000,286.700,52.850,12.160,213.400,62.680,15.700,4.879,358.100,98.460,23.300,7.094,baseline
1185.000,246.100,38.540,9.779,1418.000,286.400,52.530,12.240,215.200,62.420,15.590,4.872,358.800,98.840,23.360,7.191,baseline
1193.000,246.700,38.350,9.859,1420.000,288.600,53.750,12.250,211.900,63.060,15.690,4.886,362.900,99.610,23.620,7.156,baseline
1195.000,247.000,38.080,9.867,1421.000,288.600,53.750,12.320,215.500,62.960,15.720,4.911,361.900,99.590,23.390,7.176,baseline
1198.000,248.500,37.810,9.967,1426.000,289.800,54.360,12.430,215.600,63.160,15.810,4.921,364.400,100.400,23.670,7.280,baseline
1208.000,251.100,39.900,10.160,1429.000,291.600,54.760,12.540,219.000,63.590,15.780,4.936,368.000,101.400,24.130,7.367,baseline
1221.000,253.600,40.200,10.280,1445.000,293.100,55.400,12.630,214.800,64.170,16.080,4.972,373.300,102.500,24.390,7.480,baseline
1234.000,256.400,41.690,10.470,1445.000,294.200,54.600,12.640,220.800,64.800,16.040,5.012,377.100,103.200,24.360,7.408,baseline
1217.000,252.300,38.830,10.010,1422.000,289.100,53.810,12.380,217.900,63.890,15.890,4.922,363.600,99.820,23.460,7.197,baseline
1197.000,248.100,39.280,9.873,1427.000,288.600,53.240,12.330,216.600,62.840,15.700,4.896,362.700,99.730,23.590,7.269,baseline
1199.000,249.000,40.760,9.989,1428.000,290.000,53.700,12.380,217.200,63.150,15.780,4.924,365.000,100.300,23.790,7.277,baseline
1208.000,250.100,39.420,10.020,1427.000,289.800,53.920,12.380,220.000,63.280,15.800,4.952,366.600,100.900,23.700,7.285,baseline
1208.000,249.800,39.440,10.000,1431.000,290.200,53.700,12.420,218.200,63.310,15.900,4.935,367.200,101.100,23.840,7.358,baseline
1214.000,252.500,40.240,10.120,1437.000,293.000,53.770,12.530,222.300,63.320,15.870,4.967,372.000,102.100,24.010,7.440,baseline
1226.000,253.700,40.160,10.340,1445.000,294.100,54.600,12.680,220.400,63.680,15.930,4.995,374.900,102.900,24.510,7.511,baseline
1239.000,259.100,41.080,10.440,1450.000,296.000,55.560,12.750,223.900,64.250,16.090,5.028,378.900,104.000,24.610,7.578,baseline
1244.000,256.900,40.270,10.270,1439.000,290.900,54.090,12.480,223.400,64.430,16.080,5.000,371.500,101.200,23.810,7.371,baseline
1209.000,250.700,39.320,9.975,1424.000,290.200,54.350,12.420,222.400,63.340,15.830,4.915,365.400,100.300,23.720,7.278,baseline
1209.000,250.200,39.930,10.050,1428.000,291.600,54.250,12.500,216.300,62.990,15.820,4.917,368.400,100.900,23.850,7.353,baseline
1218.000,254.300,40.100,10.160,1436.000,291.900,54.310,12.520,221.800,63.670,15.840,4.961,371.300,101.600,23.910,7.355,baseline
1218.000,252.400,39.540,10.180,1442.000,292.300,54.810,12.570,220.400,63.550,15.880,4.962,368.800,101.100,23.810,7.335,baseline
1222.000,253.200,40.420,10.260,1440.000,293.800,54.410,12.690,221.300,63.760,15.880,4.974,371.100,101.900,24.090,7.417,baseline
1230.000,257.400,40.370,10.410,1450.000,296.000,55.220,12.760,221.300,64.310,16.010,4.995,374.900,103.100,24.280,7.467,baseline
1244.000,260.600,41.390,10.630,1455.000,296.800,55.690,12.880,223.000,64.080,16.110,5.032,379.300,103.800,24.480,7.537,baseline
1237.000,256.400,40.280,10.310,1434.000,292.300,54.390,12.570,227.300,64.190,15.880,4.961,368.000,100.800,23.760,7.259,baseline
1210.000,251.000,39.190,10.140,1439.000,291.900,53.790,12.550,220.800,63.350,15.690,4.917,364.400,99.700,23.620,7.224,baseline
1212.000,252.700,38.700,10.170,1438.000,292.500,54.830,12.620,220.000,63.520,15.780,4.951,366.200,100.600,23.740,7.339,baseline
1222.000,253.800,40.180,10.280,1437.000,293.400,54.130,12.580,223.300,63.540,15.870,4.922,367.800,101.100,23.720,7.313,baseline
1220.000,252.600,39.740,10.270,1442.000,293.600,55.050,12.700,222.700,63.720,15.830,4.949,367.900,101.400,23.920,7.298,baseline
1226.000,254.100,41.130,10.390,1447.000,295.000,55.630,12.750,220.700,63.540,15.940,5.003,371.100,102.400,24.130,7.386,baseline
1236.000,259.100,41.640,10.500,1454.000,296.500,55.520,12.890,224.000,64.100,15.930,5.015,376.100,103.100,24.410,7.520,baseline
1248.000,259.900,41.470,10.530,1445.000,294.300,53.900,12.660,225.100,64.670,16.100,5.001,372.000,101.100,23.740,7.262,baseline
1213.000,253.400,40.050,10.080,1434.000,292.300,53.880,12.550,220.500,63.150,15.730,4.907,362.700,99.580,23.380,7.200,baseline
1209.000,250.500,40.950,10.060,1439.000,292.300,53.910,12.590,223.200,63.320,15.770,4.908,362.300,100.000,23.560,7.255,baseline
1216.000,252.100,39.860,10.210,1440.000,294.400,54.330,12.560,223.300,63.580,15.910,4.948,366.100,100.800,23.700,7.274,baseline
1218.000,253.900,40.210,10.220,1440.000,293.500,54.930,12.640,220.800,63.850,15.890,4.939,366.700,101.000,23.740,7.274,baseline
1220.000,254.600,40.210,10.290,1442.000,293.700,54.970,12.700,220.900,63.750,15.840,4.958,369.400,101.600,23.880,7.349,baseline
1229.000,255.500,40.680,10.450,1448.000,296.800,55.800,12.820,222.300,64.060,16.050,5.006,371.700,102.700,24.160,7.455,baseline
1244.000,259.500,40.280,10.470,1457.000,296.300,54.510,12.510,224.600,64.120,16.040,5.031,375.600,102.600,24.090,7.369,baseline
1222.000,253.900,39.510,9.984,1433.000,291.000,53.430,12.330,223.700,63.660,15.830,4.949,362.000,99.510,23.350,7.222,baseline
1206.000,248.900,39.180,9.886,1433.000,291.100,53.730,12.360,217.300,63.440,15.790,4.911,361.900,99.800,23.550,7.206,baseline
1211.000,250.000,39.460,10.080,1437.000,294.100,54.180,12.600,219.500,63.470,15.880,4.974,365.400,101.200,23.750,7.357,baseline
1220.000,253.700,39.380,10.090,1442.000,293.300,54.050,12.560,220.600,63.650,15.920,4.966,365.400,100.600,23.730,7.309,baseline
1220.000,254.100,40.440,10.150,1444.000,293.800,54.180,12.670,221.800,63.930,15.890,4.980,368.400,101.200,23.870,7.339,baseline
1227.000,256.200,41.520,10.300,1449.000,295.700,55.070,12.790,221.900,64.140,16.040,4.990,371.100,102.500,24.230,7.454,baseline
1240.000,259.300,41.570,10.580,1454.000,298.500,56.140,12.950,221.300,64.820,16.050,5.049,376.500,103.400,24.560,7.478,baseline
1239.000,258.300,40.670,10.330,1436.000,293.500,55.140,12.630,222.500,64.570,16.050,4.987,366.500,100.300,23.590,7.248,baseline
1210.000,250.300,39.580,10.100,1435.000,291.800,54.430,12.540,217.600,63.420,15.810,4.912,362.500,100.200,23.630,7.254,baseline
1211.000,250.200,39.220,10.090,1440.000,292.700,54.550,12.560,219.300,63.490,15.870,4.973,365.800,101.100,23.970,7.335,baseline
1218.000,254.800,39.540,10.220,1441.000,293.300,54.530,12.580,221.600,63.750,16.010,4.965,367.300,101.600,23.810,7.351,baseline
1218.000,253.800,38.770,10.200,1435.000,293.500,54.960,12.630,223.800,63.790,15.890,4.983,367.600,101.400,23.890,7.399,baseline
1222.000,255.200,40.090,10.230,1445.000,294.500,55.190,12.660,223.400,64.010,16.010,5.008,370.900,102.400,24.200,7.508,baseline
1232.000,257.400,40.010,10.450,1454.000,296.700,55.590,12.850,221.900,64.660,16.120,5.034,375.500,103.300,24.430,7.574,baseline
1243.000,259.800,41.210,10.420,1438.000,293.800,54.510,12.570,226.400,64.840,16.150,5.026,372.400,101.700,23.900,7.306,baseline
1211.000,250.900,40.280,10.040,1435.000,291.600,53.740,12.500,223.000,63.360,15.830,4.950,362.800,100.600,23.620,7.281,baseline
1206.000,251.500,39.650,10.050,1434.000,291.900,54.490,12.510,222.500,63.640,15.970,4.964,365.500,101.200,23.800,7.353,baseline
1213.000,252.100,40.630,10.150,1438.000,293.000,53.940,12.510,220.600,63.790,16.010,4.978,368.000,101.900,23.980,7.359,baseline
1214.000,252.500,40.120,10.150,1442.000,293.200,53.910,12.520,221.800,63.830,15.950,5.002,368.600,101.900,23.940,7.410,baseline
1217.000,252.700,40.690,10.220,1439.000,294.200,54.530,12.630,219.900,64.340,16.080,4.992,372.100,102.500,24.160,7.491,baseline
1226.000,257.200,41.180,10.420,1448.000,295.600,55.130,12.820,223.800,64.500,16.140,5.043,375.300,103.700,24.680,7.574,baseline
1239.000,259.400,41.230,10.470,1453.000,294.800,55.100,12.630,224.900,64.710,16.190,5.047,377.600,103.700,24.390,7.448,baseline
1217.000,254.600,40.070,10.130,1429.000,291.800,54.260,12.450,227.800,64.080,16.010,4.952,365.600,100.600,23.760,7.339,baseline
1204.000,251.200,39.880,10.090,1426.000,290.700,53.490,12.450,223.900,63.830,15.880,4.978,366.300,101.200,23.960,7.367,baseline
1209.000,251.700,39.140,10.150,1435.000,292.300,53.740,12.530,225.500,63.850,15.980,4.976,369.300,102.100,24.080,7.419,baseline
1214.000,252.400,40.610,10.090,1432.000,292.100,53.740,12.570,226.900,63.970,15.980,5.000,370.400,102.000,24.050,7.418,baseline
1214.000,252.900,40.630,10.180,1435.000,293.600,54.130,12.600,227.100,64.410,16.040,5.003,370.700,102.500,24.330,7.480,baseline
1223.000,256.000,41.360,10.330,1444.000,295.000,54.610,12.720,224.600,64.260,16.130,5.059,375.400,103.300,24.470,7.576,baseline
1235.000,257.600,42.470,10.550,1455.000,296.600,55.770,12.770,231.100,64.740,16.240,5.069,379.600,104.700,24.740,7.670,baseline
1235.000,257.500,42.140,10.340,1431.000,294.200,54.300,12.510,223.100,64.420,16.090,5.023,369.900,101.600,24.070,7.364,baseline
1206.000,251.400,38.490,10.140,1431.000,291.900,53.980,12.490,228.200,64.140,15.870,5.012,366.000,100.800,24.030,7.399,baseline
1206.000,251.200,39.830,10.180,1430.000,292.600,54.450,12.580,221.400,64.210,15.970,4.989,369.900,101.800,24.180,7.479,baseline
1214.000,254.700,39.700,10.220,1434.000,292.800,54.760,12.540,222.800,64.120,16.020,4.986,371.600,102.200,24.270,7.456,baseline
1213.000,254.600,39.550,10.150,1439.000,292.800,54.150,12.600,224.800,64.270,16.030,5.013,371.100,102.400,24.250,7.460,baseline
1219.000,256.500,39.990,10.330,1440.000,294.200,54.950,12.730,227.300,64.350,16.110,5.027,373.800,103.000,24.470,7.542,baseline
1228.000,257.000,40.660,10.480,1454.000,296.300,55.030,12.840,222.300,64.590,16.210,5.071,379.300,104.400,24.830,7.644,baseline
1242.000,259.700,41.780,10.510,1446.000,295.200,54.150,12.620,222.000,65.100,16.350,5.079,377.400,103.400,24.380,7.433,baseline
1212.000,254.700,40.690,10.140,1430.000,292.700,54.590,12.530,222.500,63.940,16.040,4.992,367.800,101.300,23.870,7.361,baseline
1205.000,251.600,39.750,10.140,1435.000,292.500,53.690,12.560,220.700,64.140,15.950,5.018,368.300,101.600,24.110,7.404,baseline
1213.000,253.000,41.080,10.290,1433.000,293.000,54.510,12.640,220.700,64.420,15.980,5.029,371.900,102.500,24.230,7.473,baseline
1216.000,253.100,39.930,10.200,1437.000,292.400,54.130,12.580,223.300,64.250,15.980,5.007,371.300,102.400,24.190,7.457,baseline
1218.000,253.500,40.870,10.280,1444.000,293.700,54.720,12.650,221.800,64.490,16.170,5.029,372.900,102.900,24.430,7.524,baseline
1226.000,256.600,40.160,10.480,1445.000,295.700,55.380,12.760,224.400,64.480,16.260,5.048,377.500,104.300,24.640,7.661,baseline
1239.000,260.500,40.450,10.570,1454.000,297.000,55.190,12.790,225.400,65.180,16.300,5.100,381.400,104.800,24.790,7.579,baseline
1229.000,257.000,39.960,10.230,1435.000,291.600,54.800,12.460,224.400,64.740,16.100,5.007,369.200,101.600,24.030,7.371,baseline
1206.000,251.400,37.380,10.140,1435.000,292.400,53.800,12.520,216.200,63.970,15.980,5.004,367.000,101.400,24.080,7.399,baseline
1210.000,251.500,40.010,10.220,1442.000,293.100,53.750,12.610,225.300,64.090,16.070,5.026,370.700,102.700,24.190,7.443,baseline
1218.000,253.700,40.440,10.220,1433.000,292.200,54.070,12.540,221.300,64.390,16.110,5.020,371.600,102.400,24.320,7.472,baseline
1217.000,252.800,40.460,10.240,1441.000,293.800,54.390,12.650,220.200,64.430,16.090,5.029,373.300,102.800,24.350,7.493,baseline
1225.000,254.900,40.590,10.380,1444.000,295.800,54.550,12.770,221.800,64.600,16.140,5.059,376.300,104.000,24.630,7.565,baseline
1237.000,260.300,41.670,10.540,1452.000,297.200,55.460,12.890,224.900,65.110,16.230,5.086,380.900,105.300,24.920,7.675,baseline
1248.000,260.200,41.640,10.580,1450.000,294.000,54.710,12.610,223.600,65.370,16.250,5.056,373.700,102.800,24.200,7.416,baseline
1211.000,252.200,38.890,10.170,1434.000,292.000,54.340,12.520,221.400,63.960,15.970,5.004,367.200,101.400,23.910,7.331,baseline
1209.000,252.000,38.690,10.170,1441.000,293.200,53.970,12.640,217.900,63.940,16.000,5.013,368.300,101.700,24.110,7.406,baseline
1216.000,252.800,39.840,10.320,1440.000,293.600,54.040,12.630,223.700,64.730,16.090,5.024,370.400,102.100,24.280,7.454,baseline
1218.000,255.100,40.080,10.250,1440.000,293.600,55.140,12.700,218.500,64.340,16.020,5.014,370.800,102.200,24.220,7.456,baseline
1221.000,255.800,40.760,10.340,1447.000,295.000,55.030,12.730,220.000,64.740,16.060,5.043,372.900,103.000,24.420,7.535,baseline
1234.000,259.700,41.120,10.520,1453.000,297.000,55.390,12.880,222.200,64.950,16.300,5.077,378.200,104.200,24.790,7.652,baseline
1246.000,262.000,41.870,10.630,1458.000,298.400,54.950,12.830,223.700,65.250,16.320,5.128,381.600,105.000,24.650,7.589,baseline
1232.000,256.000,40.440,10.340,1444.000,293.900,54.380,12.580,222.500,64.540,16.080,5.026,368.700,101.100,23.890,7.262,baseline
1210.000,252.400,41.560,10.330,1436.000,293.000,53.430,12.670,217.500,64.040,16.000,4.992,364.900,101.100,23.820,7.345,baseline
1213.000,252.400,40.300,10.400,1439.000,295.000,54.550,12.800,222.200,64.250,16.080,5.058,371.400,102.500,24.280,7.442,baseline
1221.000,253.800,40.370,10.360,1444.000,294.800,54.650,12.760,222.800,64.720,16.140,5.051,372.200,102.500,24.180,7.476,baseline
1221.000,253.900,40.430,10.360,1445.000,294.900,55.070,12.730,223.200,64.270,16.100,5.069,371.800,102.700,24.260,7.469,baseline
1228.000,256.000,40.810,10.450,1452.000,296.600,54.950,12.850,220.200,64.760,16.230,5.092,374.900,103.700,24.420,7.585,baseline
1241.000,260.200,41.090,10.670,1461.000,299.200,56.600,12.970,225.000,65.320,16.290,5.098,379.300,105.000,24.830,7.650,baseline
1254.000,261.800,41.090,10.660,1450.000,295.500,55.720,12.740,223.700,65.670,16.400,5.097,376.700,103.400,24.190,7.449,baseline
1220.000,252.200,39.330,10.230,1436.000,294.100,54.570,12.620,222.400,64.650,16.090,5.009,366.400,100.900,23.780,7.304,baseline
1213.000,251.500,39.810,10.220,1445.000,294.200,54.690,12.690,222.300,64.260,16.020,5.014,367.400,101.700,23.870,7.401,baseline
1222.000,253.900,39.580,10.280,1444.000,294.600,54.700,12.700,225.000,64.670,16.220,5.062,369.900,102.300,24.130,7.475,baseline
1223.000,254.700,39.720,10.280,1447.000,293.800,54.190,12.720,219.900,64.690,16.150,5.033,369.000,102.100,24.160,7.430,baseline
1225.000,255.700,41.180,10.330,1455.000,295.700,54.450,12.820,223.600,64.470,16.100,5.047,372.100,102.900,24.270,7.471,baseline
1234.000,256.300,41.100,10.420,1460.000,297.500,55.350,12.890,224.600,64.740,16.330,5.082,376.000,103.600,24.560,7.584,baseline
1247.000,258.900,40.990,10.640,1461.000,297.900,55.410,12.900,223.500,65.220,16.330,5.117,380.200,104.600,24.770,7.560,baseline
1236.000,256.900,40.590,10.250,1436.000,293.500,54.290,12.590,225.100,64.870,16.160,5.031,366.500,101.100,23.760,7.295,baseline
1213.000,251.300,39.240,10.110,1442.000,292.700,53.500,12.620,220.100,63.520,15.980,5.017,365.000,100.800,23.800,7.283,baseline
1215.000,250.800,38.730,10.200,1442.000,294.800,53.860,12.680,224.900,64.480,16.090,5.040,367.500,101.800,24.110,7.396,baseline
1225.000,252.400,38.180,10.170,1444.000,294.300,54.990,12.650,225.600,64.590,16.120,5.028,369.200,102.000,24.030,7.433,baseline
1225.000,254.500,39.820,10.220,1450.000,294.800,55.050,12.690,222.600,64.490,16.130,5.053,370.000,102.100,24.160,7.427,baseline
1231.000,256.400,40.450,10.330,1454.000,295.900,56.250,12.830,222.600,65.000,16.190,5.083,374.100,103.400,24.420,7.542,baseline
1242.000,257.400,40.340,10.490,1461.000,298.200,55.820,12.870,227.300,65.290,16.340,5.120,379.000,104.600,24.750,7.592,baseline
1244.000,257.300,40.470,10.220,1450.000,293.500,55.070,12.580,223.700,64.960,16.210,5.064,369.100,101.400,23.870,7.272,baseline
1213.000,250.300,39.440,10.040,1444.000,293.100,54.200,12.590,221.900,64.090,16.030,5.007,364.400,100.500,23.640,7.318,baseline
1215.000,250.600,39.950,10.120,1443.000,293.000,54.020,12.650,222.100,64.440,16.140,5.020,367.400,101.900,23.970,7.387,baseline
1224.000,254.400,40.080,10.240,1442.000,293.900,54.570,12.650,223.200,64.300,16.120,5.029,369.300,102.100,24.080,7.396,baseline
1224.000,253.300,40.460,10.220,1448.000,294.900,54.730,12.690,220.000,64.350,16.110,5.036,370.300,102.200,24.050,7.405,baseline
1228.000,255.400,40.740,10.350,1450.000,296.600,54.780,12.820,226.100,64.890,16.240,5.074,372.900,103.100,24.300,7.489,baseline
1240.000,259.200,40.790,10.500,1456.000,297.900,56.040,12.960,225.700,65.050,16.390,5.089,378.600,104.700,24.670,7.586,baseline
1253.000,260.700,40.610,10.460,1453.000,294.700,55.190,12.670,227.300,65.420,16.360,5.094,373.900,102.300,24.100,7.365,baseline
1220.000,252.000,38.660,10.110,1440.000,292.200,55.390,12.570,220.400,64.420,16.060,5.014,365.300,100.600,23.650,7.271,baseline
1214.000,250.000,39.200,10.090,1445.000,293.200,54.500,12.620,220.200,64.050,16.040,5.018,366.700,101.400,23.820,7.359,baseline
1224.000,253.800,39.790,10.180,1440.000,294.800,55.010,12.640,221.600,64.490,16.170,5.059,369.400,102.100,24.040,7.364,baseline
1225.000,253.500,39.650,10.200,1446.000,293.800,54.630,12.670,224.900,64.490,16.090,5.042,369.100,102.200,24.060,7.388,baseline
1226.000,254.300,40.920,10.200,1452.000,295.400,54.910,12.760,220.500,64.630,16.220,5.076,371.900,102.900,24.320,7.486,baseline
1236.000,255.700,40.460,10.410,1456.000,297.000,55.100,12.900,224.600,64.950,16.290,5.120,377.600,103.800,24.560,7.601,baseline
1250.000,260.600,42.010,10.610,1456.000,297.400,55.370,12.770,222.700,65.920,16.450,5.117,379.600,104.400,24.480,7.487,baseline
1231.000,255.000,40.670,10.130,1440.000,292.800,53.690,12.550,223.200,64.650,16.130,5.042,366.600,100.900,23.750,7.306,baseline
1213.000,250.700,39.080,10.080,1439.000,292.600,54.050,12.580,220.300,64.050,16.020,5.034,365.400,101.100,23.870,7.336,baseline
1218.000,252.700,39.940,10.130,1446.000,294.200,54.340,12.550,223.300,64.550,16.150,5.043,370.100,102.400,24.160,7.416,baseline
1224.000,253.600,39.190,10.120,1443.000,293.600,54.360,12.540,219.500,65.010,16.170,5.049,370.100,102.000,24.130,7.406,baseline
1223.000,252.200,39.510,10.160,1444.000,294.100,54.290,12.630,219.800,64.980,16.190,5.065,371.400,102.800,24.270,7.473,baseline
1230.000,254.800,39.700,10.270,1455.000,296.000,54.780,12.720,223.200,65.090,16.290,5.076,375.400,103.700,24.580,7.528,baseline
1243.000,258.100,40.170,10.510,1465.000,297.300,55.020,12.890,226.500,65.320,16.360,5.128,380.200,104.700,24.840,7.689,baseline
1254.000,259.800,40.510,10.360,1453.000,294.000,54.400,12.540,222.200,65.500,16.380,5.096,374.900,102.300,24.130,7.372,baseline
1218.000,251.900,39.420,10.000,1438.000,291.900,54.450,12.490,222.000,64.480,16.100,5.022,366.700,101.000,23.960,7.345,baseline
1214.000,252.200,39.320,10.040,1440.000,293.000,53.780,12.550,220.700,64.530,16.100,5.049,368.800,102.000,24.090,7.446,baseline
1223.000,254.000,39.960,10.100,1438.000,292.300,53.900,12.560,222.600,64.460,16.170,5.056,372.300,102.300,24.330,7.420,baseline
1223.000,252.200,39.510,10.110,1448.000,292.900,54.110,12.570,222.600,64.470,16.230,5.057,372.100,102.500,24.220,7.446,baseline
1226.000,254.300,39.740,10.250,1450.000,294.500,54.500,12.680,221.900,64.830,16.210,5.064,376.000,103.700,24.470,7.560,baseline
1237.000,256.100,39.930,10.370,1452.000,296.000,54.830,12.790,223.400,65.390,16.410,5.142,380.400,105.000,24.760,7.650,baseline
1248.000,261.600,41.530,10.540,1454.000,296.100,55.680,12.730,223.700,65.550,16.500,5.125,383.200,105.200,24.830,7.562,baseline
1232.000,253.300,38.450,10.130,1438.000,290.400,54.070,12.530,219.100,64.920,16.230,5.064,370.400,101.800,23.910,7.384,baseline
1212.000,252.600,39.100,9.981,1434.000,292.100,54.010,12.500,222.600,64.370,16.140,5.063,369.700,101.900,24.110,7.415,baseline
1217.000,253.000,38.140,10.100,1444.000,293.200,54.460,12.590,222.400,64.920,16.140,5.064,374.700,102.900,24.280,7.455,baseline
1223.000,254.600,39.050,10.130,1439.000,292.500,54.060,12.570,219.400,65.010,16.270,5.074,372.800,102.700,24.260,7.485,baseline
1222.000,253.800,39.820,10.150,1444.000,293.600,54.290,12.600,223.300,64.930,16.240,5.078,375.000,103.100,24.400,7.521,baseline
1229.000,255.100,41.110,10.260,1449.000,294.600,54.490,12.700,223.000,65.040,16.300,5.094,379.400,104.100,24.690,7.577,baseline
1242.000,260.000,41.400,10.440,1458.000,296.600,55.750,12.840,224.600,65.510,16.380,5.153,382.800,105.700,24.960,7.689,baseline
1253.000,258.400,40.850,10.420,1448.000,292.900,54.270,12.500,227.200,65.640,16.370,5.133,377.400,103.000,24.190,7.433,baseline
1215.000,252.100,39.070,9.967,1438.000,291.900,53.290,12.460,221.800,64.630,16.170,5.037,369.900,101.600,23.930,7.371,baseline
1210.000,250.200,38.200,10.020,1431.000,291.600,54.450,12.560,220.000,64.230,16.180,5.032,371.200,102.700,24.160,7.428,baseline
1218.000,253.400,38.090,10.110,1445.000,291.600,54.860,12.570,221.500,64.860,16.260,5.084,372.900,102.700,24.280,7.455,baseline
1218.000,252.600,39.740,10.070,1440.000,292.900,54.470,12.560,216.300,64.610,16.180,5.058,371.800,102.800,24.280,7.515,baseline
1221.000,253.800,39.300,10.190,1442.000,292.900,54.460,12.610,220.000,64.510,16.270,5.076,374.900,103.100,24.490,7.546,baseline
1228.000,254.400,39.620,10.280,1451.000,295.400,54.860,12.720,223.900,65.320,16.350,5.104,379.800,104.200,24.800,7.623,baseline
1241.000,260.300,41.200,10.520,1455.000,295.700,55.180,12.730,221.300,65.670,16.470,5.137,381.500,104.900,24.700,7.509,baseline
1224.000,253.900,38.680,9.996,1440.000,291.800,54.020,12.380,218.200,64.820,16.240,5.051,369.500,101.200,23.790,7.299,baseline
1202.000,249.400,40.020,9.914,1430.000,289.800,53.130,12.400,216.900,64.590,16.100,5.045,366.200,100.900,23.830,7.340,baseline
1204.000,248.400,39.290,9.969,1439.000,291.700,53.850,12.510,218.700,64.620,16.130,5.053,370.600,102.000,24.080,7.415,baseline
1211.000,249.700,38.980,9.965,1435.000,290.800,53.370,12.490,220.500,64.670,16.090,5.049,369.300,101.400,24.000,7.401,baseline
1210.000,251.100,38.720,10.030,1436.000,292.100,54.300,12.540,219.000,64.440,16.210,5.042,369.300,102.100,24.090,7.421,baseline
1215.000,252.100,39.400,10.200,1444.000,293.200,54.430,12.690,220.400,64.910,16.220,5.078,374.000,103.000,24.390,7.504,baseline
