A-DC1,A-DC2,A-DC3,A-DC4,A-DC5,A-DC6,A-DC7,A-DC8,B-DC1,B-DC2,B-DC3,B-DC4,B-DC5,B-DC6,B-DC7,B-DC8,condition
1054.000,239.000,55.550,19.050,1070.000,211.100,52.460,14.000,199.400,65.070,21.150,8.360,372.500,122.100,43.270,18.180,baseline
1052.000,238.600,56.150,18.940,1072.000,211.000,52.990,14.030,195.500,64.870,21.120,8.374,371.800,121.600,43.230,18.100,baseline
1052.000,239.100,56.740,18.960,1067.000,211.100,52.750,13.990,198.100,65.160,21.180,8.373,371.800,121.800,43.110,18.030,baseline
1051.000,238.600,56.330,19.080,1067.000,211.300,52.710,14.060,195.700,64.890,21.250,8.429,371.500,121.900,43.220,18.110,baseline
1053.000,239.800,56.130,19.180,1067.000,210.400,52.840,14.110,195.600,64.970,21.260,8.483,373.600,122.400,43.340,18.230,baseline
1059.000,240.100,55.600,19.240,1067.000,211.400,53.080,14.180,199.500,65.300,21.440,8.509,373.200,122.900,43.600,18.330,baseline
1064.000,241.600,55.970,19.390,1074.000,211.800,53.860,14.140,197.900,65.750,21.440,8.545,375.300,123.200,43.650,18.260,baseline
1054.000,240.100,55.630,18.920,1068.000,210.800,52.680,14.060,197.300,65.390,21.420,8.509,372.700,122.000,43.240,18.030,baseline
1042.000,237.100,54.090,18.840,1062.000,210.100,52.820,14.020,198.400,65.190,21.410,8.488,371.000,121.500,42.930,17.950,baseline
1040.000,235.900,54.330,18.810,1064.000,209.900,52.620,14.070,196.500,65.560,21.440,8.512,370.800,121.600,43.100,17.970,baseline
1043.000,234.800,54.490,18.710,1068.000,210.200,52.590,14.070,198.700,65.410,21.530,8.529,370.800,121.100,42.960,17.910,baseline
1044.000,237.100,54.900,18.760,1069.000,210.200,52.960,14.150,200.500,65.170,21.440,8.542,370.400,121.500,42.980,17.950,baseline
1047.000,238.000,56.380,18.940,1068.000,210.500,53.110,14.150,198.800,65.670,21.510,8.598,370.700,121.800,43.160,18.020,baseline
1053.000,238.800,56.720,19.030,1067.000,210.700,53.000,14.230,203.200,65.580,21.660,8.629,372.700,122.400,43.320,18.120,baseline
1056.000,239.800,54.910,18.780,1070.000,210.300,53.010,14.110,203.500,65.970,21.650,8.622,371.800,121.600,42.910,17.850,baseline
1038.000,235.100,54.810,18.620,1067.000,210.300,53.230,14.090,200.000,65.560,21.570,8.577,369.100,120.600,42.500,17.710,baseline
1037.000,234.400,54.910,18.590,1064.000,210.100,52.980,14.110,202.500,65.440,21.490,8.573,367.600,120.200,42.340,17.620,baseline
1039.000,236.200,54.420,18.560,1065.000,210.800,53.240,14.090,201.200,65.500,21.510,8.591,366.800,120.000,42.230,17.600,baseline
1039.000,235.400,53.720,18.570,1064.000,210.700,52.480,14.140,199.100,65.550,21.480,8.583,367.300,120.000,42.270,17.610,baseline
1040.000,236.100,53.950,18.680,1062.000,209.700,53.540,14.200,203.300,65.540,21.570,8.621,367.600,120.100,42.430,17.650,baseline
1044.000,236.500,54.320,18.780,1069.000,210.700,53.460,14.220,199.300,65.530,21.600,8.664,368.400,120.400,42.580,17.770,baseline
1049.000,237.200,53.680,18.600,1073.000,209.800,53.030,14.130,199.500,65.590,21.640,8.671,367.000,119.900,42.400,17.590,baseline
1035.000,234.400,53.720,18.350,1062.000,208.700,52.430,14.030,203.100,65.470,21.540,8.636,366.000,119.100,41.880,17.440,baseline
1032.000,232.800,53.690,18.240,1065.000,209.600,52.490,14.000,198.800,65.550,21.640,8.647,364.300,118.700,41.820,17.330,baseline
1032.000,232.700,53.760,18.210,1068.000,209.400,52.590,14.080,199.400,65.290,21.640,8.665,364.500,118.700,41.920,17.310,baseline
1034.000,232.900,53.700,18.200,1065.000,209.700,52.330,14.090,200.800,65.560,21.680,8.716,364.500,119.000,41.760,17.430,baseline
1037.000,233.000,53.050,18.300,1066.000,209.900,52.570,14.150,199.000,65.710,21.750,8.760,365.200,119.200,42.020,17.480,baseline
1044.000,234.400,54.740,18.350,1075.000,211.400,53.020,14.250,202.100,65.970,21.830,8.772,366.400,119.800,42.200,17.460,baseline
1048.000,236.200,54.660,18.590,1074.000,211.600,52.990,14.280,203.900,66.180,21.920,8.768,367.600,119.900,42.310,17.580,baseline
1051.000,236.100,53.390,18.230,1077.000,210.800,52.660,14.160,201.800,66.360,21.920,8.823,366.700,119.200,42.060,17.430,baseline
1040.000,233.500,52.950,18.150,1075.000,210.900,52.960,14.130,207.600,65.920,21.990,8.832,364.800,118.700,41.850,17.290,baseline
1037.000,232.300,52.810,18.160,1071.000,211.000,53.360,14.220,202.900,66.070,21.840,8.867,363.200,118.500,41.690,17.350,baseline
1039.000,233.600,53.400,18.150,1073.000,210.700,53.440,14.200,202.800,65.810,21.880,8.868,363.400,118.100,41.660,17.330,baseline
1040.000,233.800,52.640,18.220,1072.000,210.700,53.320,14.240,202.500,65.820,21.870,8.880,362.600,118.300,41.740,17.420,baseline
1043.000,234.200,54.180,18.370,1074.000,210.700,52.610,14.290,201.500,65.920,21.910,8.912,363.300,118.800,42.000,17.480,baseline
1046.000,234.400,53.920,18.420,1074.000,211.500,53.120,14.320,200.600,66.130,22.070,8.943,364.300,118.700,41.840,17.470,baseline
1051.000,236.500,54.570,18.500,1076.000,211.200,53.060,14.340,202.300,65.620,21.960,8.867,364.000,118.600,41.690,17.450,baseline
1056.000,237.200,55.890,18.620,1077.000,212.000,53.030,14.360,201.600,65.730,21.800,8.896,365.500,119.200,41.890,17.510,baseline
1055.000,235.300,54.980,18.290,1080.000,211.400,52.820,14.230,201.300,65.670,21.910,8.862,363.800,117.900,41.490,17.260,baseline
1043.000,233.100,54.160,18.220,1071.000,211.700,53.070,14.270,201.700,65.650,21.860,8.863,361.900,117.600,41.280,17.100,baseline
1041.000,233.300,54.470,18.210,1073.000,211.000,53.200,14.270,200.800,65.480,21.830,8.854,362.000,117.700,41.380,17.160,baseline
1043.000,234.300,55.020,18.330,1075.000,211.700,53.770,14.310,202.700,66.020,21.940,8.876,362.000,117.800,41.410,17.160,baseline
1044.000,234.400,53.090,18.320,1074.000,211.600,53.920,14.300,201.100,66.160,21.930,8.900,362.400,117.900,41.520,17.250,baseline
1048.000,235.600,54.210,18.430,1079.000,212.600,53.600,14.320,199.900,66.140,22.040,8.934,363.800,118.300,41.630,17.300,baseline
1053.000,235.900,55.400,18.490,1079.000,212.600,53.890,14.440,202.600,66.160,22.050,8.943,364.600,118.700,41.810,17.400,baseline
1056.000,237.600,54.670,18.560,1080.000,212.600,53.690,14.430,200.700,66.350,22.120,8.965,364.600,119.100,42.060,17.560,baseline
1061.000,239.100,55.070,18.710,1079.000,212.800,54.450,14.440,201.500,66.320,22.130,8.993,365.900,119.400,42.130,17.590,baseline
1065.000,239.200,55.460,18.820,1081.000,213.900,53.810,14.490,203.600,66.340,22.140,9.012,366.500,119.800,42.200,17.650,baseline
1066.000,238.600,54.680,18.460,1084.000,212.400,52.720,14.340,202.600,66.230,22.040,8.955,365.400,119.200,41.810,17.350,baseline
1052.000,236.200,54.920,18.370,1076.000,213.000,53.150,14.340,201.200,66.110,22.020,8.923,363.200,118.000,41.590,17.280,baseline
1049.000,234.700,54.680,18.300,1075.000,212.700,52.980,14.310,204.600,65.720,22.050,8.924,363.100,117.900,41.640,17.290,baseline
1051.000,234.800,53.700,18.380,1080.000,212.800,53.430,14.310,201.000,66.020,22.000,8.968,363.900,118.000,41.710,17.300,baseline
1051.000,236.800,54.420,18.390,1077.000,212.600,53.300,14.310,201.300,65.850,21.990,8.957,363.400,118.500,41.680,17.340,baseline
1054.000,237.900,53.840,18.520,1079.000,213.100,53.520,14.360,202.200,66.130,22.070,8.992,363.600,118.800,41.860,17.440,baseline
1058.000,237.800,54.690,18.620,1082.000,213.200,54.210,14.390,198.300,66.220,22.010,8.990,364.500,119.100,41.960,17.520,baseline
1062.000,239.300,54.760,18.600,1082.000,213.900,54.340,14.420,201.600,66.330,22.100,9.023,366.600,119.700,42.240,17.610,baseline
1065.000,239.600,54.920,18.760,1083.000,213.100,53.570,14.480,201.900,66.270,22.170,9.060,366.900,119.800,42.390,17.730,baseline
1070.000,239.900,54.120,18.680,1086.000,214.000,53.450,14.370,198.700,66.630,22.130,9.027,366.400,119.700,42.190,17.500,baseline
1055.000,236.200,54.160,18.410,1078.000,212.500,53.340,14.350,201.500,66.300,22.040,8.938,365.700,118.900,41.920,17.350,baseline
1052.000,235.200,55.120,18.270,1076.000,213.500,52.870,14.330,201.200,66.300,21.990,8.931,363.000,118.600,41.760,17.360,baseline
1053.000,236.900,54.230,18.360,1082.000,213.300,53.430,14.340,199.300,66.410,22.070,8.936,363.800,118.600,41.850,17.360,baseline
1053.000,236.400,54.680,18.400,1083.000,213.100,53.990,14.370,200.400,65.970,22.090,8.973,364.300,118.700,41.830,17.430,baseline
1056.000,237.100,54.720,18.540,1080.000,213.100,53.650,14.400,200.300,66.150,22.120,8.974,364.800,119.400,41.880,17.510,baseline
1060.000,238.300,55.470,18.590,1083.000,214.000,53.800,14.390,201.000,66.410,22.090,8.986,366.100,119.600,42.260,17.620,baseline
1064.000,239.800,55.150,18.740,1083.000,214.100,53.920,14.440,203.100,66.620,22.160,8.997,367.400,120.200,42.340,17.720,baseline
1068.000,241.500,55.070,18.810,1086.000,214.100,53.590,14.430,200.900,66.510,22.090,9.017,368.400,120.600,42.500,17.750,baseline
1074.000,242.700,55.300,18.960,1084.000,214.500,54.270,14.430,199.700,66.320,22.160,9.039,369.100,121.100,42.810,17.860,baseline
1079.000,242.100,56.110,18.660,1091.000,214.000,53.680,14.350,204.000,66.540,22.110,8.982,368.600,120.300,42.360,17.600,baseline
1059.000,237.000,53.780,18.470,1081.000,213.000,53.730,14.310,198.900,66.290,21.990,8.951,366.500,119.600,42.080,17.490,baseline
1056.000,237.600,55.380,18.400,1084.000,213.300,53.290,14.300,200.500,66.010,21.920,8.932,365.600,119.400,41.990,17.480,baseline
1057.000,237.900,54.510,18.470,1082.000,213.100,52.940,14.260,201.400,65.830,22.040,8.947,366.100,119.300,42.100,17.510,baseline
1058.000,238.700,54.840,18.450,1084.000,213.800,53.310,14.350,196.600,66.100,21.940,8.949,366.000,119.600,42.120,17.590,baseline
1061.000,238.200,56.160,18.570,1085.000,213.800,53.040,14.340,201.500,65.860,22.100,8.977,367.000,119.900,42.260,17.640,baseline
1066.000,239.200,55.680,18.720,1087.000,213.800,53.550,14.350,200.700,66.320,22.100,8.976,366.900,120.300,42.400,17.750,baseline
1070.000,240.000,55.940,18.770,1083.000,213.900,53.760,14.390,198.700,66.250,22.050,9.007,368.100,120.400,42.710,17.840,baseline
1075.000,241.400,55.600,19.020,1090.000,214.600,54.210,14.380,203.500,65.880,22.060,8.996,369.800,121.100,42.850,17.970,baseline
1082.000,244.500,55.400,19.090,1094.000,215.000,54.020,14.350,201.500,66.380,22.080,9.036,369.900,121.500,42.900,17.980,baseline
1079.000,241.500,55.010,18.690,1087.000,214.000,53.610,14.260,199.000,66.550,22.050,8.967,369.000,120.900,42.550,17.740,baseline
1062.000,238.900,54.380,18.600,1086.000,213.000,53.670,14.240,202.200,65.990,21.960,8.898,367.400,120.200,42.240,17.580,baseline
1061.000,237.900,54.180,18.510,1083.000,212.900,53.820,14.250,199.300,66.090,21.890,8.893,366.500,120.000,42.130,17.660,baseline
1062.000,239.300,55.230,18.630,1087.000,214.000,53.200,14.270,200.500,65.880,21.920,8.899,366.900,119.800,42.270,17.690,baseline
1063.000,238.500,55.240,18.610,1083.000,213.700,53.200,14.270,200.800,65.880,21.830,8.894,366.900,120.300,42.380,17.760,baseline
1066.000,239.500,55.670,18.750,1089.000,214.300,53.310,14.320,198.000,65.950,21.920,8.939,368.400,120.400,42.490,17.780,baseline
1073.000,241.200,57.100,18.890,1087.000,214.300,53.560,14.330,198.900,66.070,22.010,8.945,370.000,121.000,42.820,17.920,baseline
1078.000,242.100,55.930,19.070,1093.000,214.500,53.700,14.410,198.200,65.770,22.060,8.966,371.100,121.700,42.770,18.050,baseline
1084.000,244.800,56.370,19.150,1090.000,214.200,53.600,14.400,198.600,66.380,21.940,8.967,371.200,121.900,42.910,18.080,baseline
1084.000,241.800,56.390,18.760,1087.000,214.100,53.480,14.260,200.800,66.190,21.950,8.908,371.300,121.300,42.670,17.800,baseline
1065.000,239.500,54.530,18.690,1083.000,213.500,53.260,14.240,198.900,65.610,21.860,8.887,369.000,120.400,42.470,17.750,baseline
1066.000,239.100,54.290,18.680,1082.000,213.700,53.690,14.250,199.100,66.050,21.850,8.860,367.900,120.500,42.500,17.750,baseline
1068.000,240.600,55.880,18.720,1087.000,213.800,53.710,14.260,201.300,65.980,21.900,8.854,369.200,120.700,42.480,17.780,baseline
1068.000,240.500,54.430,18.750,1086.000,213.700,53.940,14.270,197.600,65.860,21.790,8.868,368.400,120.600,42.620,17.840,baseline
1073.000,242.100,54.410,18.890,1085.000,213.200,53.380,14.320,197.100,65.810,21.830,8.887,369.500,121.100,42.700,17.960,baseline
1079.000,243.500,55.990,19.010,1089.000,214.500,53.680,14.370,200.600,65.920,21.860,8.898,370.200,121.700,42.970,18.090,baseline
1087.000,244.400,57.500,19.140,1092.000,214.300,53.560,14.370,197.700,65.900,21.900,8.910,370.600,122.000,43.100,18.160,baseline
1092.000,246.500,56.940,19.270,1094.000,215.100,53.650,14.280,199.700,65.680,21.870,8.903,372.400,121.800,43.040,17.970,baseline
1074.000,241.000,56.160,18.740,1087.000,213.700,52.930,14.200,198.500,65.770,21.760,8.831,370.100,121.100,42.710,17.790,baseline
1071.000,241.500,56.030,18.730,1084.000,213.900,53.400,14.240,198.000,65.700,21.760,8.801,369.400,120.900,42.710,17.800,baseline
1072.000,241.200,55.960,18.820,1089.000,213.900,53.590,14.270,198.400,65.710,21.740,8.811,369.700,120.900,42.640,17.790,baseline
1073.000,240.900,55.520,18.930,1088.000,214.200,53.520,14.250,198.900,65.500,21.740,8.801,369.300,121.000,42.700,17.870,baseline
1076.000,242.300,56.040,18.960,1090.000,214.300,53.680,14.260,197.700,65.660,21.740,8.801,370.100,121.400,42.810,17.980,baseline
1082.000,242.900,55.750,19.090,1085.000,214.100,53.810,14.300,197.900,65.680,21.750,8.839,371.000,121.800,42.930,18.080,baseline
1088.000,244.800,56.460,19.240,1090.000,214.500,53.930,14.340,200.600,65.770,21.780,8.852,371.700,122.100,43.070,18.150,baseline
1094.000,246.000,56.070,19.290,1097.000,215.200,53.760,14.260,198.800,65.950,21.820,8.848,371.800,122.300,43.150,18.040,baseline
1078.000,240.200,55.600,18.810,1090.000,213.800,53.590,14.210,198.600,65.450,21.700,8.770,371.200,121.300,42.700,17.860,baseline
1071.000,240.700,54.980,18.790,1088.000,213.900,53.300,14.210,199.200,65.570,21.690,8.759,369.900,121.000,42.620,17.760,baseline
1072.000,241.700,55.940,18.770,1088.000,214.100,53.630,14.220,196.900,65.790,21.660,8.747,369.500,121.000,42.690,17.810,baseline
1074.000,240.300,56.580,18.790,1092.000,213.900,53.780,14.210,200.600,65.320,21.710,8.750,368.900,121.000,42.820,17.890,baseline
1076.000,242.200,55.970,18.930,1088.000,214.300,53.080,14.280,197.500,65.760,21.670,8.774,370.300,121.400,42.820,17.980,baseline
1082.000,243.400,56.540,19.010,1088.000,214.200,53.430,14.370,199.500,65.680,21.670,8.780,371.200,121.900,43.170,18.060,baseline
1088.000,243.200,56.470,19.200,1091.000,215.100,54.060,14.380,203.300,65.620,21.840,8.817,373.100,122.500,43.280,18.130,baseline
1095.000,245.700,57.000,19.360,1098.000,215.600,53.990,14.300,196.700,65.940,21.750,8.815,372.900,122.500,43.220,18.050,baseline
1079.000,241.600,54.910,18.810,1087.000,213.900,53.070,14.180,198.000,65.680,21.740,8.770,371.400,121.500,42.850,17.830,baseline
1071.000,240.600,55.110,18.700,1087.000,213.800,53.780,14.170,199.500,65.510,21.640,8.740,370.100,121.100,42.610,17.800,baseline
1070.000,239.900,55.180,18.820,1086.000,213.600,53.490,14.230,197.500,65.290,21.630,8.747,369.100,121.000,42.710,17.780,baseline
1074.000,240.600,55.790,18.770,1087.000,213.700,53.130,14.240,199.400,65.370,21.670,8.745,368.900,120.900,42.760,17.850,baseline
1074.000,240.500,55.520,18.850,1085.000,213.800,53.700,14.340,199.900,65.610,21.660,8.772,369.200,121.300,42.690,17.920,baseline
1080.000,242.100,56.250,19.020,1090.000,213.900,53.810,14.340,196.300,65.860,21.730,8.803,371.000,121.800,43.020,18.040,baseline
1086.000,243.700,56.470,19.100,1090.000,215.200,53.850,14.350,198.600,65.620,21.710,8.800,371.600,122.000,43.200,18.100,baseline
1093.000,245.600,57.860,19.230,1094.000,215.400,54.310,14.330,199.100,65.580,21.710,8.814,372.500,122.300,43.060,18.040,baseline
1079.000,241.100,55.600,18.710,1090.000,213.900,53.520,14.250,196.000,65.680,21.740,8.777,370.400,121.500,42.810,17.820,baseline
1069.000,239.200,56.040,18.680,1083.000,213.600,53.400,14.230,202.100,65.090,21.610,8.741,368.500,120.900,42.670,17.770,baseline
1070.000,240.200,56.060,18.700,1084.000,213.100,54.100,14.250,200.600,65.530,21.610,8.749,369.000,121.000,42.680,17.780,baseline
1071.000,239.800,55.580,18.690,1085.000,213.600,53.350,14.280,198.200,65.450,21.660,8.776,369.200,120.800,42.690,17.780,baseline
1074.000,240.500,55.010,18.780,1083.000,214.500,53.840,14.320,200.300,65.630,21.730,8.785,370.100,121.300,42.830,17.900,baseline
1078.000,242.000,56.470,18.940,1086.000,214.000,53.580,14.330,198.500,66.010,21.720,8.826,370.000,121.500,42.940,17.970,baseline
1085.000,244.400,56.190,19.070,1090.000,214.100,54.140,14.350,197.800,65.580,21.730,8.843,372.000,122.000,43.070,18.070,baseline
1092.000,244.900,56.510,19.190,1094.000,215.100,54.230,14.390,200.500,66.010,21.810,8.824,371.800,122.400,43.110,18.050,baseline
1081.000,241.500,55.570,18.680,1086.000,213.300,53.710,14.240,197.400,65.600,21.730,8.787,369.700,121.400,42.680,17.740,baseline
1068.000,239.500,54.680,18.540,1083.000,212.800,53.460,14.250,198.400,65.510,21.670,8.753,369.300,120.400,42.460,17.710,baseline
1066.000,238.900,54.780,18.590,1083.000,212.900,53.090,14.230,198.600,65.350,21.680,8.763,367.500,120.700,42.480,17.740,baseline
1068.000,239.900,55.680,18.610,1082.000,212.800,53.640,14.240,195.500,65.520,21.630,8.800,367.700,120.700,42.540,17.710,baseline
1069.000,239.500,55.940,18.660,1084.000,213.200,53.880,14.290,199.700,65.530,21.740,8.778,369.000,120.800,42.690,17.840,baseline
1074.000,240.600,56.080,18.860,1084.000,213.500,54.050,14.330,197.500,65.540,21.770,8.814,369.100,121.100,42.740,17.930,baseline
1079.000,242.300,56.790,18.950,1087.000,213.300,53.960,14.360,197.300,65.730,21.700,8.835,369.700,121.700,42.920,18.050,baseline
1086.000,243.700,57.110,19.050,1088.000,214.300,54.460,14.320,200.800,65.670,21.830,8.861,371.300,121.800,43.130,17.950,baseline
1075.000,240.600,54.450,18.580,1083.000,212.300,53.640,14.270,197.900,65.850,21.730,8.805,369.800,121.000,42.590,17.750,baseline
1063.000,238.100,54.560,18.450,1080.000,212.000,53.310,14.230,197.800,65.430,21.680,8.761,368.200,120.500,42.520,17.610,baseline
1064.000,238.800,54.090,18.540,1080.000,212.300,53.700,14.240,199.600,65.450,21.720,8.751,368.700,120.900,42.480,17.690,baseline
1066.000,237.600,54.950,18.560,1083.000,212.300,53.550,14.260,198.000,65.570,21.780,8.811,367.900,120.900,42.540,17.750,baseline
1068.000,239.900,55.480,18.650,1083.000,212.400,53.440,14.290,198.400,65.860,21.720,8.804,369.700,121.000,42.740,17.820,baseline
1073.000,241.400,55.230,18.740,1080.000,212.600,53.440,14.360,202.400,65.700,21.770,8.831,369.400,121.500,42.890,17.930,baseline
1080.000,241.800,56.020,18.870,1086.000,213.800,53.560,14.400,196.400,66.130,21.840,8.853,370.900,121.700,42.930,18.010,baseline
1086.000,243.800,56.170,18.940,1088.000,213.500,53.200,14.280,200.500,65.940,21.850,8.847,371.900,121.900,42.840,17.840,baseline
1068.000,239.100,55.650,18.520,1086.000,212.000,53.150,14.210,199.400,65.760,21.850,8.810,369.400,120.800,42.390,17.670,baseline
1063.000,238.100,55.620,18.490,1082.000,212.700,53.310,14.250,196.800,65.460,21.720,8.772,367.700,120.500,42.440,17.660,baseline
1064.000,238.300,55.250,18.590,1078.000,212.000,53.860,14.240,198.500,65.520,21.740,8.786,368.800,120.600,42.570,17.650,baseline
1067.000,239.700,54.110,18.540,1080.000,212.200,53.250,14.300,198.600,65.580,21.770,8.798,369.900,121.000,42.550,17.700,baseline
1068.000,239.200,55.290,18.640,1083.000,212.900,54.040,14.360,196.500,65.800,21.780,8.833,369.300,121.400,42.690,17.770,baseline
1075.000,241.600,53.910,18.800,1084.000,213.200,53.850,14.400,200.700,65.830,21.900,8.857,370.200,121.900,42.940,17.910,baseline
1082.000,242.600,54.880,18.930,1087.000,213.400,54.040,14.420,201.600,66.140,21.930,8.871,371.800,122.300,43.080,17.920,baseline
1079.000,239.900,55.560,18.560,1083.000,213.200,53.110,14.230,199.600,66.190,21.930,8.835,370.400,121.300,42.560,17.650,baseline
1059.000,237.000,54.420,18.410,1076.000,212.000,53.370,14.230,201.000,65.840,21.860,8.794,368.800,120.600,42.350,17.600,baseline
1058.000,236.300,54.450,18.260,1077.000,211.900,52.870,14.220,196.400,65.870,21.790,8.801,368.100,120.500,42.320,17.550,baseline
1059.000,238.000,54.700,18.280,1078.000,212.000,53.200,14.230,199.200,66.000,21.840,8.796,369.300,120.400,42.370,17.550,baseline
1059.000,237.500,55.240,18.370,1079.000,212.100,53.320,14.280,199.400,65.720,21.790,8.812,367.800,120.600,42.520,17.660,baseline
1063.000,237.400,55.520,18.510,1083.000,212.300,53.730,14.290,196.000,65.910,21.850,8.848,368.400,121.000,42.540,17.690,baseline
1070.000,239.800,54.840,18.600,1082.000,213.200,53.690,14.360,199.300,66.000,21.930,8.859,369.500,121.200,42.650,17.760,baseline
1076.000,240.800,56.230,18.520,1084.000,212.900,53.630,14.220,201.500,66.010,21.900,8.856,370.100,121.000,42.450,17.610,baseline
1054.000,235.200,53.440,18.140,1075.000,211.000,53.070,14.130,196.600,65.820,21.800,8.823,367.200,120.100,42.170,17.430,baseline
1048.000,233.500,53.250,18.080,1076.000,211.100,53.410,14.170,198.800,65.750,21.730,8.774,366.300,119.600,41.880,17.380,baseline
1048.000,234.900,52.260,18.120,1074.000,211.400,53.390,14.230,197.000,65.650,21.740,8.793,365.600,119.700,41.940,17.350,baseline
1048.000,235.500,52.510,18.150,1076.000,211.300,53.230,14.230,197.500,65.830,21.790,8.814,366.100,119.800,42.030,17.410,baseline
1052.000,234.900,54.650,18.150,1076.000,211.700,53.300,14.250,199.500,65.950,21.910,8.816,367.300,120.000,42.150,17.470,baseline
1056.000,236.900,54.110,18.230,1077.000,211.800,53.690,14.290,197.700,66.010,21.910,8.881,367.800,120.600,42.310,17.610,baseline
1061.000,237.500,55.400,18.370,1081.000,212.600,53.480,14.320,198.400,66.090,21.980,8.887,368.300,120.600,42.470,17.510,baseline
1051.000,234.600,53.770,17.920,1076.000,211.100,52.880,14.200,201.900,65.700,21.940,8.842,366.800,119.800,42.020,17.300,baseline
1040.000,231.700,53.430,17.800,1070.000,210.200,52.820,14.180,196.900,65.920,21.840,8.833,364.800,119.300,41.660,17.150,baseline
1037.000,231.900,52.980,17.810,1069.000,210.500,53.070,14.190,199.400,65.830,21.890,8.848,365.000,119.100,41.630,17.240,baseline
1038.000,230.900,53.440,17.830,1067.000,210.400,52.930,14.180,201.400,65.990,21.870,8.863,363.700,119.100,41.610,17.190,baseline
1039.000,231.600,52.970,17.860,1069.000,210.200,53.640,14.210,197.400,65.960,21.920,8.883,364.600,118.900,41.800,17.220,baseline
1042.000,232.100,53.370,17.910,1073.000,211.000,53.280,14.250,199.400,66.250,21.970,8.896,365.600,119.200,41.780,17.320,baseline
1048.000,234.200,53.670,18.160,1076.000,210.800,54.180,14.320,201.200,65.960,22.000,8.925,366.200,119.700,41.960,17.440,baseline
1052.000,234.400,53.100,18.040,1077.000,210.700,52.930,14.160,199.100,66.240,21.970,8.938,365.900,119.400,41.810,17.220,baseline
1034.000,229.000,52.750,17.610,1072.000,209.400,52.460,14.120,200.000,66.190,21.890,8.876,363.600,118.100,41.370,17.040,baseline
1030.000,228.700,51.670,17.560,1069.000,209.000,53.110,14.130,199.300,65.620,21.910,8.857,362.300,118.300,41.290,17.020,baseline
1029.000,228.800,52.530,17.600,1073.000,209.300,53.160,14.140,195.600,65.880,21.850,8.894,361.400,118.000,41.150,16.980,baseline
1029.000,228.500,52.610,17.570,1069.000,209.000,52.990,14.210,198.500,65.510,21.970,8.886,361.700,117.600,41.290,17.010,baseline
1033.000,229.900,52.560,17.680,1072.000,210.200,52.690,14.210,199.700,65.820,21.900,8.911,361.500,118.000,41.280,17.130,baseline
1038.000,231.400,52.370,17.830,1070.000,209.900,52.700,14.270,195.400,65.530,21.920,8.947,361.000,118.200,41.440,17.210,baseline
1042.000,231.400,53.900,17.900,1073.000,210.200,53.290,14.310,198.900,65.990,21.970,8.953,362.600,118.900,41.690,17.300,baseline
1046.000,232.500,53.090,17.830,1072.000,209.700,53.540,14.170,195.500,65.720,21.910,8.949,362.100,118.100,41.280,17.000,baseline
1028.000,227.800,52.100,17.540,1067.000,209.400,53.190,14.190,196.500,65.640,21.890,8.885,359.300,117.400,40.920,16.820,baseline
1023.000,228.000,52.170,17.430,1069.000,208.600,52.670,14.200,195.800,65.620,21.850,8.869,359.200,117.000,40.910,16.890,baseline
1024.000,228.600,52.220,17.550,1067.000,209.300,52.950,14.230,194.000,65.580,21.890,8.901,359.300,117.200,40.910,16.880,baseline
1025.000,228.200,51.220,17.570,1067.000,209.000,52.540,14.240,195.300,65.840,21.900,8.928,359.200,117.100,41.050,16.940,baseline
1027.000,228.100,51.280,17.690,1067.000,209.500,53.560,14.240,197.000,65.820,21.970,8.946,360.600,117.700,41.200,17.010,baseline
1031.000,229.700,53.320,17.790,1069.000,209.800,53.080,14.350,195.700,66.120,22.030,8.965,360.800,117.900,41.260,17.070,baseline
1036.000,231.800,53.630,17.890,1072.000,210.000,53.330,14.370,196.400,65.950,22.120,8.967,361.900,118.400,41.360,17.170,baseline
1041.000,230.800,53.290,17.720,1069.000,210.000,52.930,14.280,195.500,66.260,22.080,8.949,361.600,118.100,41.040,17.000,baseline
1024.000,227.400,52.610,17.490,1068.000,209.000,52.890,14.240,194.600,66.040,21.960,8.914,358.500,117.100,40.800,16.790,baseline
1020.000,226.700,51.640,17.450,1063.000,209.500,52.670,14.240,196.500,65.640,21.960,8.874,358.700,116.200,40.720,16.730,baseline
1021.000,227.100,51.930,17.470,1065.000,208.700,52.700,14.230,194.800,65.800,21.940,8.892,357.700,116.500,40.780,16.790,baseline
1021.000,227.100,51.700,17.510,1069.000,209.100,52.950,14.320,194.100,65.790,21.900,8.916,357.100,116.800,40.790,16.820,baseline
1025.000,227.800,52.480,17.690,1063.000,210.200,52.810,14.320,198.100,65.650,22.020,8.913,359.100,117.200,41.020,16.920,baseline
1031.000,230.400,52.580,17.800,1066.000,209.900,53.730,14.340,194.500,65.990,22.010,8.964,360.100,117.800,41.130,17.030,baseline
1037.000,230.500,52.100,17.840,1074.000,209.500,53.190,14.340,196.600,66.340,22.070,8.962,361.600,118.100,41.300,16.990,baseline
1036.000,229.500,51.970,17.560,1076.000,209.800,52.580,14.270,197.300,66.100,22.130,8.920,359.600,117.500,41.010,16.780,baseline
1023.000,228.200,51.480,17.500,1065.000,209.300,53.230,14.270,195.700,65.760,21.960,8.886,358.600,117.000,40.840,16.710,baseline
1023.000,228.100,52.430,17.580,1068.000,209.000,53.340,14.330,197.400,65.730,21.930,8.882,357.600,116.700,40.850,16.730,baseline
1026.000,228.800,54.000,17.600,1067.000,210.100,52.710,14.350,198.900,65.930,22.060,8.882,357.800,116.600,40.800,16.820,baseline
1028.000,229.000,53.230,17.620,1073.000,210.100,53.510,14.360,192.700,66.080,22.000,8.914,359.300,117.200,40.910,16.810,baseline
1033.000,230.500,52.980,17.760,1069.000,210.000,53.290,14.400,196.200,66.070,21.980,8.903,359.500,117.200,41.020,16.870,baseline
1038.000,231.200,53.110,17.920,1070.000,210.400,52.980,14.420,198.100,66.020,21.990,8.943,359.500,117.800,41.170,17.000,baseline
1043.000,232.800,53.740,17.940,1077.000,210.800,53.530,14.390,195.100,65.990,21.970,8.906,359.700,117.300,40.970,16.790,baseline
1028.000,228.600,52.130,17.690,1068.000,210.000,53.610,14.310,194.300,66.140,21.930,8.841,358.500,116.800,40.690,16.700,baseline
1027.000,228.700,51.980,17.680,1070.000,209.900,53.460,14.330,195.000,65.830,21.940,8.847,356.500,116.400,40.650,16.780,baseline
1031.000,230.100,51.900,17.750,1073.000,210.500,53.440,14.380,193.700,65.850,21.860,8.868,358.000,116.400,40.820,16.780,baseline
1032.000,231.500,52.400,17.760,1069.000,210.500,53.220,14.350,197.900,65.810,21.980,8.891,357.800,116.800,40.820,16.800,baseline
1036.000,230.600,52.600,17.870,1071.000,210.700,53.560,14.430,194.800,65.740,21.870,8.896,358.200,116.800,40.960,16.890,baseline
1041.000,231.700,53.120,18.030,1076.000,211.600,53.250,14.420,193.400,66.080,21.910,8.930,359.300,117.300,41.120,17.030,baseline
1048.000,233.600,54.180,18.080,1080.000,211.800,53.470,14.420,195.200,66.020,22.060,8.929,360.500,117.300,41.200,16.900,baseline
1037.000,230.400,52.640,17.720,1072.000,211.200,53.250,14.340,196.500,65.970,21.920,8.877,358.200,116.800,40.880,16.800,baseline
1032.000,229.700,53.190,17.820,1074.000,211.100,52.990,14.380,194.500,65.890,21.970,8.871,357.900,117.000,40.980,16.800,baseline
1035.000,230.700,54.110,17.940,1074.000,211.300,53.380,14.440,195.900,65.720,22.000,8.881,358.600,117.000,41.090,16.860,baseline
1038.000,231.200,54.070,17.990,1072.000,211.200,53.930,14.430,195.200,65.840,21.940,8.891,359.500,117.100,41.060,16.920,baseline
1040.000,232.200,54.370,18.120,1076.000,210.900,53.810,14.500,195.800,66.190,22.000,8.883,359.800,117.600,41.260,16.970,baseline
1045.000,233.200,53.680,18.270,1074.000,211.700,54.350,14.530,197.400,66.390,22.050,8.923,361.200,118.300,41.550,17.100,baseline
1050.000,236.300,54.170,18.340,1077.000,213.000,53.690,14.500,193.900,66.150,22.100,8.897,362.000,118.200,41.370,16.960,baseline
1037.000,231.400,53.110,17.940,1069.000,211.600,53.970,14.390,196.200,65.890,21.990,8.830,359.300,117.000,41.080,16.800,baseline
1032.000,230.900,53.130,17.950,1069.000,211.000,54.050,14.440,197.300,65.790,21.890,8.820,358.500,116.600,40.920,16.750,baseline
1031.000,232.000,52.750,17.940,1070.000,211.400,53.680,14.480,194.300,66.150,21.920,8.840,358.500,116.800,41.050,16.760,baseline
1035.000,232.100,53.690,17.970,1073.000,211.500,53.820,14.450,196.100,66.240,21.980,8.828,358.800,116.800,40.990,16.840,baseline
1037.000,233.200,54.200,18.130,1067.000,211.900,53.900,14.510,198.100,66.160,22.050,8.866,360.100,117.400,41.140,16.920,baseline
1042.000,233.300,54.570,18.230,1074.000,212.800,53.620,14.520,198.300,66.320,22.030,8.859,361.600,117.800,41.400,17.040,baseline
1047.000,236.300,55.370,18.330,1079.000,212.400,53.560,14.450,198.100,66.240,22.060,8.881,362.300,118.000,41.310,16.920,baseline
1035.000,232.000,53.500,17.960,1071.000,211.600,53.440,14.410,197.800,66.160,21.970,8.805,358.300,116.700,40.960,16.730,baseline
1030.000,230.700,52.360,17.940,1066.000,211.700,53.810,14.400,195.800,65.970,21.890,8.792,357.100,116.200,40.730,16.710,baseline
1029.000,230.700,53.590,17.960,1067.000,211.000,54.170,14.430,198.900,65.950,21.880,8.794,357.400,116.200,40.890,16.790,baseline
1032.000,231.700,53.270,17.960,1071.000,211.400,53.500,14.450,193.700,66.030,21.930,8.829,357.400,116.400,40.990,16.800,baseline
1034.000,232.800,52.540,18.070,1070.000,212.100,54.020,14.480,197.300,66.150,21.930,8.821,357.800,117.000,41.220,16.910,baseline
1040.000,233.200,54.540,18.280,1070.000,212.100,53.990,14.550,196.000,66.060,22.040,8.852,359.300,117.500,41.290,17.070,baseline
1046.000,234.900,54.450,18.310,1075.000,212.400,54.230,14.540,196.100,66.250,22.020,8.883,360.600,117.900,41.570,17.060,baseline
1045.000,233.900,53.840,18.020,1072.000,211.200,53.490,14.440,197.800,66.150,22.060,8.860,358.600,116.900,40.990,16.790,baseline
1031.000,231.000,55.220,17.910,1074.000,211.000,53.370,14.370,196.200,65.840,21.930,8.804,357.600,116.000,40.760,16.730,baseline
1029.000,230.900,53.080,17.910,1072.000,210.800,53.260,14.390,194.800,65.810,21.820,8.800,356.800,116.100,40.840,16.790,baseline
1032.000,231.200,53.130,17.900,1067.000,210.900,53.630,14.440,198.500,65.710,21.870,8.815,357.300,116.300,41.020,16.820,baseline
1034.000,230.500,53.960,18.090,1068.000,211.300,53.690,14.490,195.800,65.880,21.920,8.820,357.500,116.800,41.050,16.970,baseline
1038.000,232.300,53.290,18.190,1070.000,211.400,53.560,14.480,196.500,65.930,21.980,8.868,359.300,117.500,41.400,17.050,baseline
1044.000,234.800,54.840,18.350,1073.000,212.000,53.810,14.500,200.700,65.680,22.070,8.912,360.400,118.100,41.570,17.190,baseline
1050.000,236.300,55.150,18.530,1073.000,212.300,54.520,14.560,196.500,66.190,22.110,8.903,362.800,118.500,41.700,17.310,baseline
1057.000,238.400,55.430,18.720,1080.000,213.200,54.830,14.670,198.700,66.470,22.180,8.925,363.900,119.200,42.170,17.390,baseline
1065.000,239.400,55.370,18.460,1082.000,212.600,54.010,14.460,200.100,66.850,22.150,8.896,363.500,118.800,41.730,17.090,baseline
1039.000,234.000,53.100,18.210,1073.000,211.600,53.640,14.430,197.200,66.300,22.030,8.824,361.600,117.900,41.420,16.960,baseline
1039.000,233.300,54.030,18.080,1074.000,211.500,53.730,14.430,199.300,66.140,22.070,8.834,359.900,117.600,41.440,16.990,baseline
1040.000,234.300,54.330,18.190,1075.000,212.700,53.770,14.440,199.700,66.420,22.080,8.873,360.800,117.900,41.400,17.020,baseline
1042.000,234.700,53.820,18.270,1077.000,212.300,53.940,14.480,196.300,66.610,22.100,8.899,361.800,118.100,41.470,17.140,baseline
1046.000,235.100,55.280,18.380,1077.000,212.600,53.400,14.490,199.100,66.560,22.150,8.890,363.400,118.600,41.800,17.210,baseline
1051.000,236.600,54.590,18.490,1077.000,213.200,53.800,14.510,199.800,66.540,22.190,8.914,363.200,119.100,42.050,17.400,baseline
1058.000,238.500,55.390,18.650,1077.000,213.700,53.970,14.590,197.400,66.600,22.220,8.919,364.800,119.400,42.100,17.460,baseline
1065.000,239.400,55.620,18.780,1081.000,213.900,54.680,14.600,200.700,66.680,22.170,8.958,365.800,119.900,42.460,17.620,baseline
1075.000,242.400,56.750,18.930,1082.000,214.100,54.450,14.480,199.900,66.820,22.210,8.964,366.700,120.400,42.260,17.510,baseline
1056.000,234.800,54.150,18.410,1074.000,212.600,54.100,14.420,197.600,66.510,22.070,8.890,364.200,119.100,41.930,17.250,baseline
1048.000,235.300,53.430,18.380,1079.000,212.300,54.050,14.410,199.800,66.180,21.970,8.857,363.000,118.400,41.810,17.220,baseline
1049.000,236.100,53.820,18.390,1075.000,212.900,54.220,14.440,197.300,66.400,21.990,8.858,362.800,118.600,41.740,17.290,baseline
1051.000,235.900,53.990,18.370,1076.000,212.600,54.260,14.480,200.300,66.320,22.070,8.864,362.800,118.600,41.820,17.320,baseline
1053.000,237.400,55.120,18.550,1078.000,213.600,53.590,14.520,200.200,66.360,22.020,8.855,363.300,118.900,42.050,17.460,baseline
1058.000,237.400,54.960,18.720,1078.000,213.500,53.870,14.560,196.600,66.570,22.040,8.910,364.800,119.600,42.240,17.540,baseline
1065.000,239.400,55.920,18.740,1082.000,214.000,53.950,14.550,198.400,66.500,22.170,8.927,366.800,119.900,42.410,17.650,baseline
1072.000,240.800,56.830,18.880,1085.000,214.400,54.120,14.620,201.300,66.570,22.200,8.945,368.700,120.700,42.600,17.780,baseline
1080.000,243.300,57.210,19.120,1091.000,214.900,54.160,14.570,196.300,66.830,22.220,8.947,368.500,121.200,42.710,17.760,baseline
1068.000,239.200,55.460,18.580,1082.000,213.000,54.120,14.420,200.700,66.410,22.130,8.893,366.800,119.900,42.300,17.530,baseline
1056.000,236.800,55.560,18.510,1079.000,212.200,53.770,14.420,200.500,66.450,22.050,8.841,364.600,119.600,42.100,17.480,baseline
1056.000,237.400,55.080,18.500,1083.000,212.900,54.000,14.440,197.800,66.380,22.050,8.837,366.200,119.800,42.260,17.550,baseline
1059.000,237.700,54.230,18.650,1087.000,213.200,54.140,14.430,201.300,66.190,22.000,8.843,366.000,119.800,42.290,17.520,baseline
1061.000,238.300,54.840,18.680,1079.000,213.900,54.110,14.480,200.700,66.450,22.020,8.880,366.800,120.300,42.410,17.700,baseline
1066.000,239.500,54.590,18.740,1085.000,213.700,53.740,14.510,198.300,66.530,22.120,8.890,368.500,120.800,42.510,17.780,baseline
1073.000,242.200,56.070,18.970,1086.000,214.000,54.430,14.600,200.500,66.410,22.130,8.918,369.200,120.900,42.770,17.880,baseline
1080.000,244.200,56.780,19.000,1088.000,214.500,54.330,14.600,201.500,66.660,22.140,8.926,370.300,121.700,42.930,17.960,baseline
1088.000,244.800,57.020,19.170,1097.000,214.900,54.340,14.480,200.600,66.850,22.130,8.884,370.800,121.600,42.830,17.750,baseline
1066.000,238.300,55.380,18.520,1085.000,213.100,54.060,14.400,200.000,66.520,22.070,8.817,369.100,120.800,42.440,17.670,baseline
1060.000,238.200,54.820,18.560,1085.000,213.300,54.130,14.410,197.600,66.410,21.990,8.834,368.000,120.300,42.400,17.680,baseline
1062.000,238.400,55.700,18.650,1088.000,213.800,54.280,14.440,199.300,66.480,22.050,8.837,368.900,121.000,42.550,17.690,baseline
1065.000,238.600,56.070,18.680,1084.000,214.600,54.140,14.440,201.400,66.270,21.960,8.824,368.800,120.700,42.570,17.760,baseline
1067.000,240.100,56.440,18.750,1084.000,213.900,53.910,14.460,199.700,66.440,21.970,8.849,369.900,121.300,42.670,17.850,baseline
1073.000,240.900,56.090,18.930,1086.000,214.800,54.630,14.510,198.300,66.350,22.070,8.859,371.400,121.700,43.040,17.930,baseline
1081.000,242.500,56.790,19.070,1092.000,215.300,54.850,14.560,200.800,66.560,22.030,8.870,371.400,122.200,43.180,18.060,baseline
1088.000,244.600,56.860,19.280,1092.000,215.700,55.150,14.560,200.200,66.760,22.020,8.892,373.000,122.400,43.340,18.070,baseline
1088.000,243.200,55.620,18.790,1094.000,214.800,53.950,14.360,200.500,66.790,22.050,8.799,371.500,121.500,42.910,17.800,baseline
1063.000,239.100,55.150,18.660,1085.000,214.300,53.360,14.350,200.900,66.110,21.930,8.776,369.400,121.100,42.760,17.780,baseline
1063.000,238.900,55.270,18.710,1085.000,213.300,53.820,14.460,199.000,66.460,21.930,8.808,370.300,121.000,42.700,17.790,baseline
1066.000,239.300,56.230,18.700,1087.000,213.800,53.580,14.410,199.600,66.190,21.940,8.765,370.000,121.400,42.850,17.840,baseline
1067.000,239.600,56.040,18.760,1087.000,214.400,53.970,14.420,198.800,66.130,21.890,8.807,370.300,121.900,42.990,17.900,baseline
1073.000,241.200,56.100,18.960,1087.000,214.800,54.210,14.510,199.200,66.400,21.980,8.817,372.100,122.100,43.020,18.020,baseline
1080.000,242.800,57.130,19.050,1091.000,215.300,54.420,14.510,201.300,66.520,21.950,8.825,373.500,122.800,43.340,18.120,baseline
1087.000,243.700,56.440,19.220,1093.000,216.000,54.090,14.530,199.200,66.790,22.020,8.856,373.800,123.100,43.410,18.210,baseline
1095.000,245.500,57.130,19.000,1092.000,215.500,54.260,14.350,200.100,66.730,22.020,8.792,373.600,122.800,43.330,17.940,baseline
1065.000,238.800,55.900,18.620,1085.000,213.400,53.620,14.350,201.500,66.450,21.880,8.749,372.000,121.600,42.930,17.870,baseline
1063.000,238.700,54.680,18.650,1086.000,213.800,53.720,14.350,198.700,66.250,21.890,8.748,370.500,121.900,42.920,17.890,baseline
1067.000,238.600,54.820,18.780,1089.000,214.500,54.230,14.350,199.900,66.330,21.880,8.748,371.400,121.900,42.920,17.910,baseline
1068.000,239.300,55.750,18.780,1085.000,214.300,53.900,14.410,201.200,66.150,21.800,8.743,371.300,122.100,43.060,17.970,baseline
1072.000,241.200,56.020,18.900,1087.000,214.500,54.010,14.460,196.300,66.360,21.890,8.774,373.300,122.500,43.290,18.070,baseline
1079.000,243.200,56.200,19.100,1088.000,215.300,54.150,14.470,199.600,66.440,21.920,8.780,374.500,122.700,43.470,18.190,baseline
1087.000,245.600,57.810,19.200,1091.000,215.600,54.220,14.490,198.800,66.710,21.960,8.808,375.100,123.300,43.620,18.250,baseline
1096.000,247.200,57.530,19.250,1099.000,216.100,54.420,14.320,198.400,66.640,21.900,8.809,375.600,123.400,43.400,18.060,baseline
1067.000,240.400,55.660,18.730,1087.000,214.000,53.600,14.320,200.600,66.130,21.850,8.709,374.000,122.400,43.130,17.910,baseline
1064.000,239.800,56.550,18.740,1087.000,213.600,53.770,14.300,198.900,66.460,21.830,8.730,372.100,122.200,43.200,17.950,baseline
1067.000,240.000,55.390,18.770,1088.000,214.700,53.930,14.350,200.300,66.120,21.790,8.713,372.900,122.200,43.150,17.950,baseline
1068.000,241.300,56.400,18.810,1086.000,214.500,54.250,14.340,203.100,66.000,21.810,8.716,373.200,122.300,43.130,17.990,baseline
1071.000,241.800,55.680,18.980,1089.000,214.000,53.810,14.360,198.400,66.150,21.800,8.752,372.800,122.600,43.400,18.120,baseline
1078.000,243.400,55.860,19.160,1087.000,214.600,54.460,14.420,200.200,66.250,21.800,8.765,375.300,123.200,43.650,18.270,baseline
1086.000,245.900,57.100,19.230,1091.000,215.200,54.820,14.460,201.100,66.340,21.850,8.785,375.200,123.700,43.800,18.350,baseline
1095.000,245.700,57.550,19.270,1098.000,215.800,54.350,14.340,199.800,66.370,21.840,8.761,376.300,123.600,43.570,18.150,baseline
1068.000,240.400,55.700,18.730,1089.000,213.700,54.350,14.280,199.000,66.060,21.760,8.706,374.400,122.600,43.270,17.990,baseline
1064.000,239.300,55.670,18.740,1088.000,214.000,53.600,14.260,200.800,66.070,21.740,8.694,373.500,122.200,43.130,18.010,baseline
1066.000,240.500,56.280,18.790,1085.000,213.500,53.920,14.300,196.600,66.100,21.700,8.694,372.800,122.300,43.170,17.990,baseline
1067.000,240.800,57.100,18.770,1086.000,213.800,53.200,14.250,198.700,66.070,21.800,8.687,373.600,122.300,43.360,18.060,baseline
1071.000,240.900,56.660,18.950,1085.000,214.700,54.190,14.320,200.100,66.260,21.760,8.704,374.400,122.800,43.370,18.130,baseline
1077.000,242.400,56.790,19.130,1087.000,214.900,54.240,14.340,197.400,66.090,21.760,8.726,374.700,123.400,43.570,18.250,baseline
1085.000,244.400,56.750,19.260,1093.000,214.900,54.440,14.370,200.200,66.410,21.860,8.727,376.400,123.700,43.670,18.360,baseline
1093.000,245.500,57.610,19.300,1097.000,215.000,54.250,14.260,198.300,66.190,21.810,8.740,376.700,123.500,43.500,18.130,baseline
1068.000,239.700,55.170,18.770,1083.000,213.100,54.080,14.200,198.600,66.080,21.730,8.657,374.200,122.600,43.290,18.030,baseline
1062.000,238.700,55.490,18.740,1083.000,213.500,53.640,14.210,200.000,65.800,21.650,8.644,373.300,122.600,43.240,17.950,baseline
1064.000,240.000,55.550,18.780,1080.000,213.400,53.650,14.230,198.100,66.130,21.700,8.645,372.800,122.500,43.320,18.050,baseline
1065.000,239.400,55.400,18.780,1083.000,212.900,53.490,14.290,197.500,66.260,21.620,8.638,373.800,123.000,43.230,18.060,baseline
1067.000,240.500,55.320,18.850,1085.000,213.000,53.930,14.320,199.500,66.040,21.700,8.678,373.400,123.100,43.450,18.120,baseline
1073.000,242.400,56.900,19.000,1089.000,213.500,53.860,14.320,198.100,66.200,21.690,8.720,374.600,123.600,43.520,18.230,baseline
1080.000,243.100,57.660,19.140,1090.000,214.400,53.330,14.330,199.000,66.200,21.760,8.695,375.900,123.600,43.770,18.290,baseline
1088.000,245.000,57.190,19.230,1095.000,215.000,53.570,14.220,201.800,66.130,21.790,8.682,375.900,123.500,43.530,18.120,baseline
1064.000,239.400,55.400,18.630,1082.000,213.000,53.360,14.130,197.600,66.280,21.670,8.643,373.600,122.700,43.240,17.950,baseline
1059.000,237.800,54.520,18.630,1083.000,212.600,53.410,14.150,196.900,65.800,21.590,8.635,372.600,122.200,43.110,17.970,baseline
1059.000,238.100,55.440,18.640,1083.000,212.400,53.090,14.160,198.500,65.610,21.680,8.630,372.200,122.500,43.090,17.970,baseline
1060.000,237.900,55.820,18.700,1080.000,212.000,53.440,14.160,196.200,65.910,21.660,8.640,372.600,122.100,43.110,17.980,baseline
1061.000,239.200,54.350,18.700,1083.000,212.600,53.220,14.220,198.700,65.840,21.690,8.643,373.600,122.500,43.330,18.060,baseline
1067.000,240.300,55.260,18.810,1083.000,212.900,53.850,14.250,199.700,65.990,21.700,8.685,375.000,123.200,43.440,18.150,baseline
1073.000,242.000,56.180,18.960,1086.000,213.600,54.300,14.280,197.600,65.890,21.700,8.672,374.700,123.300,43.650,18.280,baseline
1080.000,241.800,56.210,18.870,1087.000,213.100,53.170,14.160,199.900,66.250,21.720,8.661,375.000,123.100,43.290,17.990,baseline
1055.000,236.100,55.040,18.440,1080.000,211.200,52.560,14.120,199.900,65.930,21.570,8.643,372.200,122.000,42.950,17.890,baseline
1051.000,235.600,54.760,18.430,1073.000,211.200,52.950,14.130,197.300,65.750,21.610,8.604,371.300,121.700,42.970,17.840,baseline
1051.000,236.100,55.040,18.440,1078.000,211.400,53.210,14.090,198.800,65.730,21.560,8.630,371.100,122.000,42.880,17.880,baseline
1052.000,236.300,54.660,18.430,1075.000,211.900,52.720,14.130,197.100,65.630,21.580,8.633,371.800,122.000,42.960,17.880,baseline
1054.000,236.300,54.110,18.500,1077.000,212.100,53.590,14.190,197.600,65.790,21.630,8.671,371.700,122.400,43.100,17.950,baseline
1061.000,238.800,55.270,18.680,1081.000,212.900,53.590,14.240,200.200,66.130,21.710,8.672,373.300,122.600,43.140,18.040,baseline
1067.000,238.200,55.160,18.800,1083.000,212.900,54.290,14.320,196.500,65.900,21.740,8.703,373.000,122.900,43.390,18.150,baseline
1071.000,238.400,54.710,18.480,1085.000,211.500,53.650,14.130,197.700,65.750,21.760,8.667,371.600,122.200,42.980,17.800,baseline
1045.000,235.100,53.640,18.300,1076.000,211.000,53.330,14.060,199.300,65.900,21.580,8.635,370.600,121.200,42.730,17.730,baseline
1042.000,233.700,52.970,18.180,1071.000,210.900,53.030,14.070,195.400,65.680,21.540,8.617,368.900,121.100,42.520,17.710,baseline
1044.000,234.300,54.340,18.190,1076.000,210.800,53.090,14.120,197.700,65.240,21.510,8.663,370.000,121.200,42.650,17.730,baseline
1043.000,233.600,53.160,18.200,1076.000,210.900,53.170,14.120,197.300,65.760,21.610,8.672,369.800,121.400,42.690,17.780,baseline
1048.000,233.600,54.150,18.280,1079.000,211.400,52.850,14.190,197.000,65.680,21.620,8.664,369.200,121.500,42.850,17.870,baseline
1054.000,236.400,54.570,18.450,1081.000,211.900,53.190,14.260,199.100,65.810,21.690,8.683,370.900,121.900,42.930,17.930,baseline
1060.000,237.100,55.660,18.590,1083.000,212.800,53.510,14.280,198.200,65.980,21.650,8.709,371.200,122.500,42.930,17.970,baseline
1056.000,234.400,53.270,18.150,1077.000,211.000,52.540,14.100,198.100,65.680,21.590,8.650,371.000,121.300,42.580,17.670,baseline
1038.000,232.300,54.290,18.040,1071.000,210.900,52.830,14.100,199.300,65.650,21.580,8.599,368.300,120.500,42.360,17.590,baseline
1036.000,230.900,53.650,18.030,1068.000,210.800,53.350,14.150,195.700,65.690,21.470,8.636,367.400,120.400,42.270,17.590,baseline
1038.000,231.900,53.230,18.020,1073.000,210.500,53.030,14.130,197.800,65.640,21.610,8.626,368.000,120.700,42.360,17.610,baseline
1037.000,231.000,53.150,18.120,1075.000,210.700,53.420,14.180,197.900,65.780,21.610,8.648,368.200,120.500,42.430,17.620,baseline
1043.000,233.800,53.410,18.190,1074.000,211.100,53.520,14.200,195.100,65.770,21.610,8.688,368.600,121.100,42.620,17.750,baseline
1049.000,235.000,54.590,18.360,1077.000,211.500,53.380,14.250,196.100,65.510,21.680,8.712,369.000,121.300,42.760,17.820,baseline
1056.000,236.700,54.690,18.460,1081.000,212.200,53.510,14.170,198.100,65.780,21.710,8.715,370.500,121.700,42.700,17.680,baseline
1040.000,232.000,53.810,17.930,1074.000,209.700,52.890,14.100,196.400,65.770,21.610,8.667,367.400,120.400,42.280,17.470,baseline
1031.000,231.000,53.340,17.870,1068.000,209.600,52.620,14.050,198.600,65.720,21.610,8.646,366.100,120.100,42.200,17.430,baseline
1031.000,231.300,53.540,17.930,1071.000,210.200,52.510,14.160,196.200,65.630,21.580,8.644,367.900,120.300,42.050,17.450,baseline
1034.000,231.100,53.560,17.940,1070.000,210.700,53.160,14.180,198.100,65.930,21.710,8.672,367.600,120.400,42.120,17.440,baseline
1036.000,232.000,53.220,18.020,1074.000,211.500,53.600,14.220,198.200,65.820,21.740,8.682,367.400,120.600,42.370,17.490,baseline
1041.000,232.400,54.550,18.230,1076.000,211.600,53.500,14.320,197.600,66.100,21.770,8.718,369.300,120.800,42.460,17.580,baseline
1050.000,236.800,54.720,18.480,1081.000,213.600,54.120,14.440,198.300,66.440,21.910,8.732,370.900,121.800,42.810,17.710,baseline
1062.000,238.800,55.260,18.410,1086.000,213.600,53.970,14.290,203.700,66.680,21.910,8.723,370.600,121.600,42.530,17.480,baseline
1039.000,233.100,52.860,18.070,1075.000,212.300,53.460,14.270,199.200,66.580,21.900,8.736,367.900,120.900,42.280,17.400,baseline
1034.000,232.300,52.940,18.000,1076.000,211.800,53.720,14.260,199.800,66.660,21.860,8.696,369.000,120.600,42.380,17.380,baseline
1034.000,231.700,53.290,17.970,1075.000,211.500,53.700,14.270,202.800,66.350,21.900,8.760,368.400,120.600,42.310,17.420,baseline
1033.000,231.700,53.000,17.990,1071.000,211.400,53.100,14.280,197.500,66.950,21.930,8.749,369.300,120.800,42.370,17.470,baseline
1036.000,231.700,53.670,18.060,1071.000,210.600,52.890,14.290,199.800,66.790,22.040,8.795,370.000,121.100,42.500,17.580,baseline
1040.000,234.100,54.030,18.130,1074.000,211.500,53.210,14.270,200.500,66.830,22.170,8.842,372.200,121.900,42.760,17.690,baseline
1047.000,233.500,54.590,18.230,1074.000,212.500,53.000,14.240,201.900,67.240,22.110,8.886,372.400,122.300,42.770,17.660,baseline
1043.000,230.500,53.680,17.800,1078.000,210.600,53.000,14.140,201.800,67.130,22.110,8.823,370.100,121.300,42.410,17.400,baseline
1031.000,230.200,52.900,17.860,1071.000,211.300,52.400,14.220,201.200,66.760,22.060,8.762,368.000,120.400,42.070,17.350,baseline
1029.000,230.400,52.700,17.830,1072.000,210.700,53.640,14.160,198.400,66.520,21.960,8.796,368.600,120.200,42.230,17.400,baseline
1033.000,231.100,52.370,17.830,1073.000,210.600,53.250,14.180,203.400,66.840,22.080,8.826,367.700,120.400,42.150,17.440,baseline
1034.000,231.000,52.230,17.980,1069.000,210.500,53.390,14.220,199.700,66.740,22.080,8.842,367.600,120.400,42.230,17.510,baseline
1040.000,233.800,52.780,17.970,1072.000,211.900,53.370,14.250,202.500,66.640,22.060,8.841,367.400,120.400,42.410,17.610,baseline
1047.000,234.100,52.620,18.160,1077.000,211.800,53.300,14.230,202.900,66.450,22.070,8.874,368.500,120.900,42.390,17.660,baseline
1055.000,234.800,53.250,18.020,1080.000,210.800,52.810,14.150,199.500,66.670,22.040,8.842,367.200,120.100,42.150,17.410,baseline
1034.000,230.600,52.020,17.770,1076.000,210.100,52.170,14.070,198.700,66.170,21.870,8.811,365.100,118.900,41.810,17.300,baseline
1033.000,229.800,51.920,17.750,1075.000,210.400,52.910,14.100,201.000,65.840,21.900,8.797,363.000,118.600,41.660,17.340,baseline
1034.000,229.000,53.180,17.800,1078.000,210.800,53.150,14.130,196.600,66.170,21.850,8.830,362.500,118.500,41.760,17.340,baseline
1036.000,230.900,52.870,17.810,1071.000,211.100,52.530,14.160,200.000,66.080,21.840,8.821,363.800,118.600,41.800,17.360,baseline
1040.000,231.400,52.060,17.920,1074.000,211.700,53.070,14.160,198.800,65.970,21.830,8.837,363.100,119.100,41.920,17.450,baseline
1044.000,233.700,53.620,18.080,1075.000,211.200,53.010,14.240,196.400,66.020,21.880,8.857,364.400,119.600,42.100,17.570,baseline
1052.000,233.800,52.880,17.990,1079.000,212.100,53.000,14.080,198.700,65.880,21.870,8.832,362.900,119.100,41.770,17.350,baseline
1033.000,229.500,51.450,17.710,1071.000,210.600,53.110,14.040,196.600,65.530,21.820,8.783,360.700,117.900,41.430,17.180,baseline
1030.000,229.600,52.190,17.700,1074.000,210.500,53.120,14.070,194.800,65.820,21.780,8.780,359.700,117.500,41.420,17.200,baseline
1031.000,230.100,52.260,17.850,1072.000,210.200,53.040,14.080,196.000,65.560,21.830,8.802,359.200,117.500,41.450,17.190,baseline
1033.000,231.500,51.760,17.800,1074.000,211.300,52.880,14.100,196.500,65.790,21.770,8.806,359.400,117.700,41.580,17.240,baseline
1036.000,230.600,52.870,18.020,1071.000,210.400,53.190,14.140,194.400,65.790,21.860,8.843,360.100,117.700,41.640,17.340,baseline
1039.000,232.300,53.140,18.120,1072.000,210.700,53.430,14.180,198.600,65.810,21.860,8.828,361.700,118.200,41.810,17.460,baseline
1046.000,233.300,53.660,18.140,1079.000,211.200,52.630,14.110,196.800,66.000,21.890,8.833,361.200,118.500,41.710,17.280,baseline
1032.000,229.300,53.260,17.840,1070.000,210.000,52.040,14.030,193.400,65.650,21.780,8.789,359.500,117.400,41.320,17.110,baseline
1028.000,228.600,51.880,17.710,1066.000,209.500,52.460,14.030,197.700,65.420,21.730,8.740,357.200,116.900,41.100,17.100,baseline
1027.000,229.400,52.640,17.730,1070.000,210.300,52.420,14.080,193.100,65.550,21.720,8.787,356.900,117.000,41.240,17.160,baseline
1030.000,230.200,52.700,17.820,1066.000,209.500,52.190,14.120,194.600,65.560,21.810,8.787,358.300,117.100,41.350,17.120,baseline
1032.000,230.100,53.700,17.970,1070.000,210.100,52.790,14.070,197.700,65.430,21.820,8.823,358.900,117.400,41.450,17.270,baseline
1037.000,231.100,52.480,18.070,1069.000,210.500,53.230,14.100,194.400,65.730,21.770,8.850,359.300,117.800,41.600,17.350,baseline
1043.000,233.300,52.510,18.280,1070.000,210.700,53.430,14.150,196.300,65.570,21.830,8.838,360.000,117.900,41.720,17.400,baseline
1042.000,231.700,52.620,17.870,1074.000,209.700,52.490,14.000,196.300,65.550,21.710,8.807,358.200,117.000,41.220,17.190,baseline
1026.000,228.900,52.520,17.820,1069.000,209.600,52.550,14.060,192.200,65.710,21.720,8.779,357.000,116.400,41.030,17.010,baseline
1025.000,229.100,53.110,17.770,1068.000,208.400,52.130,14.060,194.700,65.200,21.580,8.703,355.200,116.100,41.030,17.020,baseline
1026.000,229.200,52.800,17.880,1065.000,209.700,52.240,14.050,192.000,65.340,21.580,8.741,355.800,116.500,41.040,17.080,baseline
1028.000,230.200,53.530,17.980,1067.000,209.100,52.220,14.120,192.300,65.330,21.710,8.750,357.300,116.800,41.250,17.170,baseline
1033.000,230.600,53.640,18.080,1066.000,210.200,52.770,14.100,195.000,65.550,21.750,8.785,357.900,117.300,41.410,17.260,baseline
1038.000,233.200,53.980,18.240,1070.000,210.300,52.700,14.160,193.700,65.670,21.690,8.831,358.600,117.600,41.670,17.400,baseline
1044.000,233.600,54.440,18.400,1068.000,210.000,52.890,14.180,193.300,65.780,21.820,8.832,359.600,118.200,41.880,17.400,baseline
1044.000,232.100,52.950,18.010,1064.000,209.300,52.670,13.990,194.700,65.390,21.730,8.766,358.900,117.200,41.340,17.140,baseline
1026.000,229.100,52.360,17.880,1063.000,208.000,52.160,14.010,192.300,65.160,21.630,8.755,355.900,116.700,41.130,17.060,baseline
1025.000,228.700,52.100,17.810,1065.000,208.200,52.970,14.010,194.400,65.160,21.630,8.721,355.500,116.400,41.160,17.080,baseline
1028.000,230.200,52.310,18.000,1064.000,208.500,52.330,14.030,192.800,65.270,21.650,8.760,356.400,116.800,41.220,17.110,baseline
1030.000,230.100,53.360,17.980,1062.000,208.000,52.990,14.090,194.200,65.470,21.720,8.744,355.700,117.100,41.410,17.200,baseline
1035.000,232.200,53.580,18.190,1063.000,208.700,52.580,14.110,194.000,65.550,21.780,8.786,358.000,117.400,41.640,17.330,baseline
1040.000,232.600,54.230,18.270,1063.000,209.800,52.740,14.150,195.600,65.560,21.840,8.821,359.600,118.000,41.760,17.430,baseline
1047.000,235.000,54.340,18.470,1069.000,210.000,52.980,14.180,193.500,65.820,21.780,8.827,360.600,118.600,41.870,17.520,baseline
1054.000,233.600,54.620,18.190,1071.000,209.200,51.730,14.000,196.200,65.680,21.780,8.805,359.700,117.700,41.630,17.230,baseline
1029.000,230.100,53.450,18.000,1063.000,208.900,52.240,14.000,196.700,65.470,21.710,8.754,357.600,116.700,41.220,17.150,baseline
1029.000,229.400,53.870,17.950,1061.000,209.100,52.250,13.990,193.400,65.110,21.610,8.731,357.600,116.800,41.200,17.160,baseline
1031.000,231.900,51.940,18.020,1067.000,208.700,52.430,14.030,195.800,65.070,21.670,8.730,356.900,116.900,41.340,17.190,baseline
1034.000,230.900,53.640,18.100,1066.000,209.100,52.760,14.080,195.500,65.320,21.700,8.781,358.100,117.400,41.370,17.280,baseline
1039.000,232.400,53.260,18.270,1068.000,209.600,53.080,14.110,194.300,65.310,21.730,8.785,359.500,117.600,41.660,17.380,baseline
1045.000,233.300,54.290,18.410,1070.000,210.200,52.740,14.110,197.100,65.360,21.720,8.777,360.300,118.300,41.780,17.520,baseline
1052.000,236.700,53.820,18.570,1074.000,210.300,53.200,14.170,194.500,65.860,21.710,8.834,361.400,119.000,42.080,17.600,baseline
1058.000,234.300,53.650,18.270,1070.000,209.200,52.470,14.020,194.800,65.710,21.760,8.784,360.400,117.800,41.710,17.340,baseline
1034.000,230.900,53.600,18.070,1069.000,208.700,52.110,14.000,195.000,65.330,21.600,8.717,357.800,117.500,41.290,17.260,baseline
1034.000,230.700,52.930,18.080,1064.000,209.100,52.520,14.030,192.000,65.310,21.630,8.737,358.100,117.100,41.430,17.330,baseline
1038.000,233.600,54.240,18.150,1067.000,209.600,51.850,14.060,194.600,65.370,21.700,8.754,358.600,117.400,41.530,17.340,baseline
1040.000,233.500,54.060,18.280,1069.000,209.400,52.600,14.110,195.200,65.220,21.730,8.753,359.500,118.000,41.650,17.430,baseline
1045.000,233.900,54.440,18.400,1066.000,209.300,52.450,14.130,194.200,65.590,21.650,8.782,359.600,118.400,41.940,17.540,baseline
1053.000,235.100,54.830,18.500,1072.000,210.300,52.910,14.170,196.900,65.570,21.680,8.804,361.700,118.700,42.040,17.660,baseline
1063.000,237.900,55.430,18.710,1079.000,212.100,53.190,14.100,196.600,65.540,21.750,8.812,362.000,119.300,42.090,17.530,baseline
1044.000,232.500,52.800,18.210,1067.000,209.400,52.500,13.960,194.300,65.620,21.660,8.727,359.700,117.800,41.700,17.300,baseline
1035.000,230.800,52.200,18.110,1066.000,209.400,52.260,13.940,199.500,65.310,21.630,8.704,358.200,117.700,41.560,17.300,baseline
1036.000,232.600,52.050,18.200,1068.000,208.700,52.920,14.060,194.800,65.390,21.520,8.737,358.900,117.800,41.610,17.330,baseline
1041.000,232.900,52.700,18.180,1071.000,210.000,52.690,14.080,194.100,65.520,21.640,8.748,360.300,118.000,41.760,17.430,baseline
1043.000,233.700,53.790,18.360,1071.000,209.700,52.780,14.110,196.100,65.560,21.680,8.760,361.100,118.600,41.960,17.530,baseline
1051.000,235.600,54.390,18.500,1072.000,210.400,52.790,14.160,196.200,65.410,21.730,8.766,362.100,118.800,42.090,17.650,baseline
1060.000,237.000,55.140,18.690,1081.000,211.100,53.100,14.230,196.300,65.690,21.760,8.793,364.600,119.500,42.320,17.730,baseline
1068.000,239.100,54.960,18.480,1077.000,210.600,52.450,14.050,197.700,65.620,21.750,8.759,362.900,119.100,41.950,17.460,baseline
1039.000,231.700,54.070,18.150,1069.000,209.100,52.320,13.980,194.300,65.240,21.660,8.718,360.500,118.000,41.590,17.320,baseline
1037.000,232.800,52.550,18.080,1066.000,209.400,52.600,14.020,195.300,65.390,21.630,8.702,359.400,117.800,41.640,17.320,baseline
1039.000,231.600,52.560,18.210,1069.000,209.800,52.460,14.050,196.100,65.340,21.610,8.717,360.400,117.900,41.620,17.350,baseline
1041.000,233.000,53.920,18.250,1069.000,209.700,52.300,14.100,192.500,65.460,21.670,8.731,360.100,118.400,41.760,17.410,baseline
1045.000,233.500,54.350,18.370,1070.000,210.600,53.120,14.150,196.300,65.330,21.710,8.784,361.300,118.900,42.040,17.560,baseline
1053.000,236.000,53.600,18.570,1070.000,211.100,53.160,14.220,195.800,65.580,21.760,8.796,362.600,119.200,42.190,17.670,baseline
1065.000,238.100,54.620,18.810,1079.000,211.600,53.350,14.160,196.500,65.750,21.780,8.805,363.900,119.600,42.280,17.620,baseline
1052.000,233.200,52.670,18.110,1067.000,209.800,52.090,14.020,196.900,65.880,21.740,8.750,362.000,118.600,41.810,17.340,baseline
1036.000,231.000,51.980,18.080,1068.000,209.100,52.120,14.010,195.800,65.540,21.590,8.712,360.100,118.100,41.540,17.320,baseline
1036.000,231.500,52.510,18.120,1068.000,209.800,51.930,14.030,194.800,65.550,21.640,8.727,360.600,118.000,41.690,17.330,baseline
1039.000,231.800,53.060,18.170,1065.000,209.100,52.520,14.050,196.000,65.270,21.640,8.723,359.900,118.000,41.670,17.360,baseline
1040.000,233.000,53.390,18.250,1068.000,210.300,52.440,14.150,194.800,65.420,21.660,8.750,360.700,118.900,41.980,17.500,baseline
1048.000,233.300,53.650,18.400,1073.000,209.800,53.130,14.170,194.900,65.710,21.720,8.772,362.700,119.000,42.230,17.630,baseline
1057.000,237.400,54.780,18.570,1072.000,211.200,53.340,14.230,197.200,65.550,21.810,8.804,363.800,119.600,42.250,17.730,baseline
1071.000,238.800,55.230,18.690,1080.000,211.300,52.610,14.120,193.800,66.070,21.840,8.794,364.000,119.700,42.020,17.530,baseline
1041.000,232.100,53.020,18.080,1070.000,209.200,51.860,14.000,194.600,65.770,21.670,8.720,361.600,118.400,41.740,17.320,baseline
1035.000,231.900,52.480,17.990,1064.000,208.800,51.920,14.010,194.200,65.360,21.680,8.716,360.500,118.000,41.650,17.310,baseline
1036.000,232.200,53.230,18.170,1067.000,209.300,52.260,14.080,194.300,65.450,21.630,8.734,360.400,118.100,41.710,17.370,baseline
1041.000,232.200,53.680,18.200,1070.000,209.300,52.710,14.140,194.200,65.520,21.710,8.755,360.600,118.400,41.750,17.410,baseline
1044.000,233.800,53.010,18.340,1072.000,209.700,52.810,14.160,194.000,65.890,21.710,8.764,361.800,118.700,41.890,17.530,baseline
1051.000,235.200,54.220,18.480,1074.000,210.500,52.750,14.190,195.800,65.620,21.750,8.817,362.800,119.200,42.200,17.650,baseline
1062.000,237.900,53.860,18.640,1082.000,211.800,53.130,14.260,198.200,65.850,21.820,8.807,364.800,119.700,42.440,17.750,baseline
1071.000,239.000,54.350,18.440,1079.000,210.500,51.890,14.030,194.800,65.860,21.830,8.822,364.200,119.500,41.990,17.460,baseline
1038.000,231.500,54.010,18.050,1066.000,209.300,52.060,14.050,193.500,65.590,21.630,8.740,361.600,118.200,41.760,17.270,baseline
1036.000,230.500,53.300,18.000,1066.000,209.700,51.830,14.040,196.600,65.510,21.650,8.735,361.000,118.200,41.670,17.370,baseline
1038.000,232.300,52.810,18.150,1068.000,209.700,52.070,14.090,193.900,65.680,21.690,8.754,361.100,118.400,41.710,17.410,baseline
1042.000,232.800,52.830,18.250,1069.000,210.000,52.750,14.100,195.900,65.590,21.730,8.765,362.000,118.600,41.890,17.430,baseline
1048.000,233.600,52.630,18.370,1070.000,210.000,52.670,14.140,197.900,65.720,21.770,8.807,363.300,119.000,42.050,17.600,baseline
1057.000,236.300,54.150,18.570,1076.000,210.900,53.070,14.210,195.500,65.820,21.780,8.828,364.200,119.600,42.340,17.690,baseline
1068.000,239.100,54.380,18.760,1080.000,211.700,52.850,14.240,196.500,66.070,21.860,8.837,365.500,120.200,42.560,17.750,baseline
1071.000,238.500,52.850,18.290,1074.000,210.500,52.390,14.030,194.200,66.050,21.730,8.783,363.800,119.300,41.940,17.440,baseline
1038.000,232.600,52.330,18.040,1066.000,209.000,52.690,14.020,193.700,65.730,21.750,8.719,361.700,118.700,41.810,17.350,baseline
1039.000,231.800,52.480,18.120,1064.000,208.700,52.230,14.100,195.500,65.650,21.680,8.742,361.800,118.600,41.900,17.370,baseline
1043.000,233.000,53.930,18.200,1072.000,210.300,52.090,14.080,194.000,65.590,21.760,8.769,361.800,118.600,41.900,17.430,baseline
1045.000,233.700,53.250,18.240,1073.000,210.100,52.500,14.130,194.400,65.670,21.710,8.790,362.700,119.100,41.990,17.500,baseline
1051.000,234.200,54.010,18.380,1070.000,210.300,52.670,14.180,196.000,65.850,21.790,8.802,364.100,119.200,42.160,17.600,baseline
1059.000,236.800,54.450,18.640,1079.000,211.500,53.020,14.240,196.800,65.870,21.880,8.854,363.700,119.800,42.350,17.750,baseline
1075.000,240.300,54.600,18.710,1082.000,212.000,53.280,14.090,195.600,66.220,21.860,8.846,365.800,120.000,42.130,17.530,baseline
1046.000,232.300,52.960,18.090,1066.000,209.200,52.510,14.010,198.000,65.780,21.860,8.766,362.300,119.100,41.910,17.360,baseline
1039.000,231.700,52.470,18.060,1068.000,209.500,52.670,14.050,194.300,65.780,21.670,8.752,361.600,118.800,41.780,17.340,baseline
1042.000,232.300,52.940,18.170,1070.000,209.700,52.450,14.040,195.900,65.620,21.690,8.770,362.400,118.800,41.860,17.390,baseline
1045.000,234.000,52.440,18.130,1068.000,209.900,53.060,14.070,197.100,65.590,21.780,8.779,362.700,119.000,41.940,17.450,baseline
1047.000,234.500,52.360,18.260,1069.000,210.300,52.470,14.090,194.200,65.720,21.750,8.806,362.000,119.300,42.050,17.560,baseline
1055.000,235.400,53.750,18.440,1075.000,210.900,52.390,14.160,196.000,65.560,21.850,8.837,363.500,119.300,42.280,17.620,baseline
1064.000,237.500,54.530,18.670,1081.000,212.200,52.590,14.250,198.000,65.810,21.860,8.840,364.700,120.000,42.290,17.640,baseline
1063.000,235.000,53.920,18.090,1070.000,210.000,52.450,14.020,195.800,65.690,21.760,8.800,363.100,119.000,41.740,17.380,baseline
1036.000,231.200,52.700,17.920,1068.000,209.300,51.880,14.010,194.800,65.720,21.680,8.761,361.500,118.200,41.630,17.280,baseline
1035.000,230.300,53.060,17.940,1066.000,209.100,52.170,14.010,192.800,65.400,21.620,8.743,360.400,118.100,41.560,17.310,baseline
1038.000,230.700,52.900,17.990,1064.000,210.200,52.460,14.020,195.100,65.700,21.700,8.772,361.500,118.300,41.710,17.340,baseline
1039.000,232.300,53.190,18.090,1068.000,209.500,52.840,14.100,196.300,65.460,21.760,8.778,362.700,118.700,41.830,17.380,baseline
1044.000,233.200,53.250,18.190,1071.000,210.000,53.100,14.150,194.800,65.670,21.790,8.803,362.200,118.900,41.950,17.500,baseline
1051.000,235.100,53.010,18.320,1074.000,210.300,53.040,14.200,195.100,65.730,21.820,8.843,363.300,119.200,42.170,17.590,baseline
1061.000,237.300,52.040,18.360,1079.000,210.900,52.400,14.070,195.900,65.870,21.870,8.843,363.600,119.200,41.910,17.410,baseline
1035.000,229.900,51.900,17.750,1064.000,208.700,52.280,13.940,194.500,65.790,21.740,8.774,360.900,118.200,41.480,17.200,baseline
1028.000,230.000,51.420,17.750,1068.000,208.200,52.250,13.990,193.900,65.400,21.670,8.754,359.700,117.900,41.460,17.090,baseline
1028.000,229.800,52.730,17.840,1065.000,208.700,52.150,14.000,195.000,65.640,21.720,8.758,360.900,117.700,41.330,17.180,baseline
1030.000,229.700,53.050,17.810,1062.000,209.200,52.180,14.090,195.300,65.620,21.740,8.786,360.600,117.600,41.500,17.220,baseline
1032.000,230.000,51.890,17.930,1066.000,209.200,52.520,14.110,195.300,65.820,21.870,8.849,360.700,118.100,41.620,17.280,baseline
1039.000,231.400,53.560,17.990,1067.000,209.600,52.500,14.150,195.800,65.700,21.910,8.849,361.800,118.600,41.740,17.400,baseline
1046.000,233.200,53.670,18.190,1068.000,209.700,53.550,14.170,193.000,66.350,21.870,8.902,362.700,119.300,41.950,17.420,baseline
1046.000,230.700,53.030,17.800,1068.000,209.000,52.310,14.010,197.200,65.910,21.860,8.845,360.900,118.400,41.510,17.110,baseline
1023.000,227.400,50.840,17.560,1060.000,208.100,52.000,13.970,196.300,65.560,21.710,8.792,358.700,117.400,41.200,17.030,baseline
1020.000,226.500,51.020,17.580,1056.000,207.200,52.160,14.020,193.800,65.710,21.730,8.784,358.200,117.200,41.110,17.020,baseline
1023.000,227.300,50.680,17.590,1063.000,208.300,52.420,14.000,195.700,65.610,21.790,8.854,358.200,117.300,41.310,17.100,baseline
1024.000,228.600,51.350,17.630,1061.000,207.800,52.900,14.050,195.400,65.610,21.850,8.860,359.500,117.500,41.390,17.150,baseline
1028.000,230.100,51.800,17.800,1062.000,207.800,52.230,14.100,193.900,65.740,21.920,8.903,360.000,118.100,41.560,17.250,baseline
1035.000,230.300,52.030,17.850,1068.000,208.900,52.740,14.120,197.000,66.180,21.990,8.947,361.100,118.200,41.760,17.350,baseline
1042.000,232.300,53.200,18.040,1067.000,209.500,52.120,14.150,196.600,66.270,21.950,8.942,361.400,118.700,41.560,17.200,baseline
1031.000,228.800,52.090,17.530,1062.000,207.000,51.700,13.970,195.500,65.980,21.890,8.877,358.800,117.400,41.210,17.010,baseline
1018.000,226.000,51.030,17.410,1059.000,207.500,51.610,13.970,197.200,65.830,21.830,8.827,357.000,116.600,41.000,16.910,baseline
1016.000,226.300,51.450,17.500,1059.000,207.800,51.750,14.030,194.700,65.780,21.890,8.881,356.800,116.800,41.000,17.020,baseline
1020.000,227.100,51.300,17.520,1056.000,207.400,52.280,14.010,193.800,65.820,21.900,8.895,357.900,116.800,41.210,17.020,baseline
1021.000,226.900,51.770,17.540,1056.000,207.500,52.060,14.060,194.400,65.990,21.990,8.943,358.100,117.400,41.250,17.120,baseline
1026.000,227.900,51.950,17.680,1059.000,208.000,52.730,14.110,194.700,66.180,21.960,8.984,359.000,117.800,41.410,17.200,baseline
1033.000,229.500,52.390,17.910,1061.000,208.000,52.520,14.170,195.000,66.150,22.040,8.993,360.600,118.100,41.560,17.270,baseline
1040.000,231.600,51.960,17.900,1065.000,209.400,53.140,14.180,198.400,66.320,22.070,9.034,362.200,118.600,41.660,17.300,baseline
1035.000,228.900,50.550,17.500,1061.000,207.500,52.080,14.000,196.200,66.170,22.030,8.969,359.500,117.500,41.170,16.980,baseline
1016.000,226.700,50.760,17.310,1057.000,207.600,51.890,13.960,195.700,65.840,22.000,8.918,357.100,117.000,40.910,16.890,baseline
1015.000,225.500,52.210,17.410,1055.000,206.800,51.430,14.000,193.000,65.680,21.910,8.914,356.800,116.700,40.980,17.000,baseline
1017.000,226.400,51.330,17.450,1059.000,207.100,51.670,14.010,193.500,66.150,22.030,8.961,357.200,117.000,41.000,16.970,baseline
1019.000,226.200,52.380,17.430,1062.000,207.300,51.960,14.060,195.000,66.030,22.080,8.985,357.300,117.100,41.190,17.120,baseline
1024.000,228.100,51.440,17.600,1061.000,208.100,52.400,14.160,195.600,66.420,22.060,9.035,358.900,117.600,41.300,17.210,baseline
1031.000,229.200,52.080,17.790,1061.000,208.600,52.560,14.150,193.000,66.230,22.120,9.022,359.800,117.600,41.580,17.280,baseline
1038.000,231.400,52.670,17.940,1069.000,209.400,53.190,14.120,197.200,66.080,22.180,9.043,361.300,118.200,41.370,17.160,baseline
1026.000,226.100,51.080,17.410,1060.000,207.700,52.350,14.030,196.100,66.080,22.100,8.959,358.100,117.300,40.990,16.990,baseline
1016.000,225.200,51.170,17.320,1062.000,206.500,52.050,13.990,193.600,65.930,22.000,8.945,357.400,116.900,41.040,16.940,baseline
1016.000,226.700,51.250,17.430,1058.000,208.300,51.730,14.060,197.700,65.870,22.050,8.992,357.700,116.800,41.130,16.990,baseline
1019.000,226.100,51.150,17.410,1063.000,207.600,52.910,14.050,192.900,66.160,22.060,9.008,357.400,116.900,41.100,17.030,baseline
1020.000,226.900,51.640,17.480,1058.000,207.500,52.560,14.130,194.700,66.060,22.120,9.025,357.600,117.200,41.290,17.130,baseline
1025.000,227.900,51.380,17.640,1062.000,208.000,53.040,14.120,197.100,66.000,22.140,9.054,358.700,117.300,41.360,17.250,baseline
1031.000,229.800,52.560,17.750,1066.000,208.300,53.020,14.200,193.000,66.320,22.080,9.051,358.700,117.800,41.480,17.280,baseline
1038.000,231.200,52.870,17.570,1065.000,208.500,52.060,14.040,196.000,66.530,22.090,9.031,359.200,117.300,41.240,17.010,baseline
1014.000,223.000,51.960,17.250,1054.000,207.100,51.810,14.030,197.200,66.140,22.070,8.973,356.300,116.600,40.820,16.900,baseline
1011.000,223.900,51.850,17.220,1052.000,207.200,52.170,14.010,193.400,65.860,22.010,8.964,354.900,116.200,40.830,16.910,baseline
1012.000,225.200,51.610,17.300,1058.000,207.000,52.430,14.050,195.300,65.870,22.040,8.990,356.300,116.500,40.840,16.890,baseline
1013.000,224.900,51.660,17.300,1054.000,206.900,52.190,14.090,195.400,65.980,22.080,9.009,355.700,116.500,40.860,16.950,baseline
1016.000,226.500,51.810,17.430,1058.000,207.900,52.760,14.120,193.400,66.160,22.060,9.027,356.600,116.800,41.180,17.030,baseline
1023.000,227.700,51.350,17.510,1064.000,208.300,52.700,14.170,195.100,65.900,22.140,9.041,358.200,117.200,41.280,17.160,baseline
1028.000,228.600,51.630,17.720,1064.000,208.100,52.730,14.160,193.700,66.260,22.090,9.086,358.200,117.300,41.260,17.110,baseline
1021.000,226.100,50.830,17.150,1057.000,207.100,51.770,14.010,194.300,66.170,22.130,9.014,356.700,116.200,40.780,16.800,baseline
1006.000,223.600,50.820,17.090,1055.000,206.100,52.050,14.000,195.400,65.590,22.040,8.944,353.600,115.500,40.540,16.730,baseline
1003.000,221.900,50.030,17.080,1053.000,206.900,52.160,14.040,192.000,66.100,21.940,8.975,353.300,115.500,40.420,16.740,baseline
1005.000,223.400,51.280,17.130,1056.000,206.600,52.100,14.020,193.600,65.890,22.090,8.977,353.400,115.100,40.500,16.780,baseline
1006.000,223.300,51.410,17.220,1053.000,206.100,51.850,14.100,197.200,65.750,22.040,9.006,353.200,115.500,40.570,16.840,baseline
1010.000,224.400,50.380,17.280,1060.000,206.800,52.570,14.150,192.400,65.690,22.030,9.055,354.500,115.800,40.720,16.930,baseline
1016.000,224.600,51.750,17.430,1057.000,207.500,52.210,14.150,194.900,66.130,22.150,9.063,354.900,116.200,41.030,17.000,baseline
1021.000,225.900,50.690,17.460,1063.000,207.900,52.490,14.110,196.000,66.210,22.140,9.087,356.200,116.500,40.810,16.800,baseline
1006.000,221.400,49.820,17.090,1052.000,206.000,52.360,14.000,193.400,66.020,22.070,9.000,352.800,115.000,40.290,16.650,baseline
999.600,222.000,50.750,16.980,1054.000,206.600,52.310,13.990,194.400,65.890,22.060,8.963,352.100,114.400,40.170,16.550,baseline
998.300,221.800,48.980,16.970,1050.000,205.700,51.960,14.030,194.800,65.810,22.020,8.988,351.100,114.700,40.180,16.610,baseline
1001.000,221.100,48.930,17.060,1057.000,205.800,52.360,14.030,192.700,65.610,22.000,9.008,351.800,114.600,40.340,16.630,baseline
1003.000,222.300,50.220,17.060,1054.000,206.400,52.510,14.100,196.500,65.810,22.090,9.006,352.000,115.100,40.420,16.710,baseline
1007.000,223.900,50.700,17.270,1055.000,206.900,52.080,14.110,193.600,65.930,22.040,9.052,353.100,115.400,40.680,16.810,baseline
1012.000,224.800,51.270,17.310,1056.000,207.000,52.340,14.140,193.700,65.960,22.130,9.056,354.300,115.400,40.770,16.880,baseline
1017.000,225.000,52.060,17.470,1054.000,207.400,51.980,14.210,198.200,66.090,22.210,9.090,355.500,116.100,40.900,16.960,baseline
1020.000,224.700,51.080,17.120,1062.000,206.600,52.130,14.040,194.400,66.140,22.120,9.045,353.600,115.000,40.420,16.670,baseline
1000.000,221.200,50.060,17.040,1054.000,206.000,52.130,13.990,192.100,65.630,22.060,9.020,351.500,114.200,40.170,16.550,baseline
998.600,220.900,50.640,17.000,1053.000,206.700,51.560,14.010,197.000,65.780,21.990,9.003,350.300,114.300,40.040,16.580,baseline
1001.000,222.300,49.600,17.130,1053.000,207.000,52.220,14.070,192.900,65.570,21.990,9.027,350.600,114.200,40.180,16.550,baseline
1001.000,221.900,49.980,17.160,1053.000,206.700,52.410,14.080,193.700,65.660,22.070,9.042,351.200,114.300,40.330,16.650,baseline
1005.000,223.200,50.140,17.230,1052.000,206.700,52.390,14.100,194.000,65.690,22.110,9.100,352.000,114.800,40.470,16.770,baseline
1009.000,225.100,50.470,17.370,1053.000,206.900,52.590,14.160,193.600,65.930,22.120,9.091,353.000,115.600,40.590,16.860,baseline
1016.000,225.900,51.170,17.420,1054.000,207.200,52.580,14.230,194.400,66.100,22.180,9.101,354.000,115.800,40.880,16.930,baseline
1021.000,226.800,51.400,17.590,1056.000,208.200,52.940,14.250,194.600,66.130,22.210,9.119,355.500,116.200,40.930,17.070,baseline
1029.000,229.400,52.920,17.740,1066.000,208.900,52.950,14.180,193.200,66.440,22.220,9.169,355.500,116.500,40.940,16.920,baseline
1015.000,224.400,51.800,17.250,1052.000,206.800,52.160,14.060,196.000,66.050,22.140,9.056,353.800,115.100,40.450,16.700,baseline
1005.000,222.900,51.010,17.160,1055.000,206.800,51.910,14.100,192.000,66.010,22.040,9.036,351.400,114.700,40.310,16.630,baseline
1005.000,223.400,51.170,17.240,1053.000,207.000,52.220,14.090,194.400,65.900,22.080,9.049,350.700,114.700,40.400,16.700,baseline
1008.000,223.700,51.140,17.220,1052.000,207.400,51.990,14.130,197.500,65.710,22.100,9.068,352.400,115.100,40.490,16.750,baseline
1011.000,223.600,51.550,17.300,1049.000,207.600,53.060,14.130,193.300,65.910,22.140,9.091,352.600,115.600,40.660,16.860,baseline
1014.000,224.400,50.840,17.520,1055.000,208.000,52.500,14.190,195.100,66.040,22.180,9.096,354.100,115.500,40.700,16.950,baseline
1020.000,225.900,51.610,17.660,1058.000,208.200,52.920,14.250,196.700,66.040,22.230,9.119,355.400,116.100,40.930,17.030,baseline
1027.000,229.300,52.070,17.810,1066.000,208.700,52.440,14.290,193.600,66.240,22.270,9.138,356.200,116.400,41.210,17.120,baseline
1032.000,230.000,52.850,17.920,1065.000,209.500,53.320,14.270,196.300,66.150,22.230,9.136,357.200,116.900,41.340,17.050,baseline
1025.000,226.700,51.440,17.430,1065.000,207.800,51.860,14.100,197.700,66.270,22.170,9.039,354.600,115.600,40.700,16.830,baseline
1012.000,225.200,51.300,17.400,1061.000,207.800,52.660,14.140,192.900,65.950,22.050,9.021,353.500,115.300,40.600,16.800,baseline
1013.000,225.800,51.550,17.430,1055.000,207.200,52.710,14.140,196.400,65.660,22.090,9.027,354.100,115.300,40.730,16.850,baseline
1016.000,226.600,52.660,17.440,1061.000,208.400,53.010,14.180,195.800,65.890,22.140,9.030,354.400,115.600,40.830,16.870,baseline
1017.000,225.500,52.260,17.540,1061.000,208.600,52.870,14.210,192.800,65.970,22.140,9.063,354.900,115.800,40.920,16.940,baseline
1022.000,228.900,52.340,17.710,1060.000,209.200,52.760,14.220,193.700,66.070,22.200,9.083,356.100,116.300,41.160,17.020,baseline
1029.000,228.900,51.870,17.820,1058.000,209.700,52.580,14.320,195.800,66.190,22.190,9.070,357.500,116.800,41.300,17.170,baseline
1034.000,230.700,53.310,18.040,1068.000,209.200,53.140,14.280,195.300,66.140,22.180,9.101,357.900,117.400,41.420,17.170,baseline
1039.000,230.000,52.110,17.680,1066.000,208.800,53.240,14.120,196.000,65.960,22.130,9.015,356.900,116.300,40.940,16.960,baseline
1017.000,226.700,51.060,17.520,1061.000,208.300,52.590,14.130,192.800,65.960,21.960,9.013,355.400,115.500,40.740,16.880,baseline
1017.000,226.200,51.530,17.560,1059.000,208.000,53.050,14.140,194.200,65.440,22.010,9.011,355.500,115.800,40.840,16.930,baseline
1020.000,227.000,51.430,17.570,1063.000,208.200,52.630,14.130,195.000,65.930,22.060,9.002,356.100,115.900,40.860,16.930,baseline
1022.000,227.800,51.890,17.600,1059.000,209.000,52.470,14.200,191.000,65.940,22.060,9.026,356.000,116.100,41.130,17.040,baseline
1026.000,229.500,51.630,17.750,1065.000,209.200,52.780,14.200,194.100,66.020,22.100,9.021,356.700,116.800,41.350,17.140,baseline
1033.000,230.300,53.120,17.880,1065.000,209.800,52.700,14.260,195.400,66.020,22.100,9.038,357.800,117.300,41.480,17.250,baseline
1039.000,230.400,52.780,17.980,1067.000,210.400,53.240,14.260,194.800,65.900,22.050,9.069,359.200,117.400,41.590,17.280,baseline
1039.000,230.700,52.830,17.560,1067.000,209.300,52.690,14.120,194.400,65.890,22.110,8.993,357.600,116.600,41.090,16.980,baseline
1018.000,226.200,51.640,17.410,1061.000,207.900,52.420,14.040,195.500,65.600,21.970,8.941,355.500,116.000,40.760,16.910,baseline
1015.000,226.500,51.210,17.410,1058.000,208.500,53.050,14.130,191.500,65.510,22.010,8.947,355.800,115.900,40.870,16.940,baseline
1018.000,225.100,51.290,17.500,1057.000,208.400,52.940,14.110,195.800,65.670,21.950,8.960,356.200,116.100,41.050,16.970,baseline
1020.000,227.400,51.500,17.610,1061.000,208.300,52.500,14.150,193.400,65.420,21.970,8.991,356.200,116.500,40.990,17.050,baseline
1024.000,228.500,51.610,17.630,1060.000,209.500,52.840,14.110,195.100,65.980,22.040,8.982,357.700,116.900,41.270,17.150,baseline
1030.000,230.200,52.780,17.830,1062.000,209.400,53.590,14.230,196.900,65.740,22.090,9.021,358.800,117.200,41.440,17.280,baseline
1038.000,231.700,51.970,17.980,1069.000,210.200,53.330,14.260,194.800,66.120,21.950,9.040,360.000,117.700,41.530,17.320,baseline
1034.000,229.500,52.520,17.520,1062.000,208.800,52.760,14.060,195.600,65.930,21.960,8.961,358.300,116.700,41.150,16.980,baseline
1015.000,225.800,51.700,17.400,1059.000,207.900,52.140,14.040,195.500,65.570,21.810,8.903,354.900,115.900,40.920,16.930,baseline
1013.000,226.400,51.780,17.400,1056.000,208.000,52.260,14.070,193.700,65.410,21.880,8.925,356.400,115.800,40.950,16.950,baseline
1017.000,226.700,52.130,17.440,1062.000,208.300,52.740,14.090,195.700,65.490,21.930,8.922,355.400,116.200,40.850,17.000,baseline
1018.000,226.100,51.860,17.560,1057.000,208.200,52.400,14.140,196.300,65.380,21.900,8.950,356.900,116.400,41.260,17.110,baseline
1022.000,226.800,51.160,17.690,1064.000,208.400,52.630,14.160,191.600,65.510,21.930,9.002,358.400,116.900,41.310,17.180,baseline
1028.000,229.900,52.330,17.790,1062.000,209.000,52.940,14.200,195.000,65.800,22.000,8.990,359.600,117.600,41.470,17.280,baseline
1036.000,232.200,52.020,17.960,1065.000,209.900,53.060,14.220,196.500,65.960,22.050,9.010,360.600,118.000,41.510,17.370,baseline
1035.000,229.100,52.470,17.550,1066.000,208.100,51.970,14.040,193.200,65.760,22.000,8.942,359.500,116.900,41.170,17.050,baseline
1015.000,225.500,51.210,17.430,1058.000,208.300,52.230,14.010,194.800,65.550,21.860,8.905,356.700,116.100,41.050,16.970,baseline
1013.000,225.700,51.330,17.450,1056.000,207.700,52.010,14.060,194.900,65.570,21.850,8.898,356.600,116.000,40.930,17.000,baseline
1016.000,226.400,51.410,17.440,1059.000,208.000,52.000,14.070,194.400,65.520,21.830,8.915,356.700,116.200,41.130,17.030,baseline
1017.000,226.700,52.690,17.510,1064.000,208.100,51.950,14.120,194.400,65.590,21.970,8.945,357.900,116.600,41.260,17.130,baseline
1023.000,229.400,52.280,17.670,1061.000,209.000,52.990,14.140,194.600,65.760,21.910,8.966,358.200,117.300,41.350,17.240,baseline
1030.000,229.600,53.380,17.830,1064.000,209.800,53.060,14.200,193.100,65.680,21.950,8.977,360.000,117.600,41.660,17.330,baseline
1037.000,231.500,53.950,18.030,1066.000,210.500,52.830,14.260,197.800,65.760,22.020,9.001,360.800,118.200,41.730,17.410,baseline
1039.000,230.100,52.980,17.640,1064.000,207.900,52.440,14.060,195.500,65.880,21.950,8.956,359.600,117.400,41.310,17.120,baseline
1016.000,226.000,50.980,17.480,1058.000,208.000,52.500,14.020,192.800,65.490,21.830,8.888,358.200,116.400,41.050,17.030,baseline
1015.000,226.200,52.230,17.470,1057.000,207.300,52.860,14.050,195.100,65.670,21.820,8.893,356.700,116.400,40.980,17.080,baseline
1018.000,228.100,51.860,17.510,1059.000,208.300,52.820,14.130,192.200,65.790,21.820,8.905,357.400,116.600,41.160,17.070,baseline
1019.000,228.200,51.460,17.630,1058.000,207.600,52.450,14.140,194.700,65.510,21.910,8.925,358.400,116.900,41.420,17.190,baseline
1024.000,229.200,51.920,17.790,1067.000,208.500,52.700,14.190,193.800,65.780,21.940,8.942,359.300,117.500,41.620,17.330,baseline
1031.000,230.900,52.020,17.890,1066.000,209.000,52.620,14.220,193.900,65.830,21.910,8.961,359.900,118.100,41.670,17.420,baseline
1040.000,233.100,53.070,18.050,1070.000,209.800,52.810,14.280,195.500,66.200,22.000,8.955,361.500,118.500,41.900,17.420,baseline
1040.000,230.100,53.060,17.720,1061.000,208.500,52.600,14.070,195.300,66.020,21.950,8.958,360.600,117.800,41.430,17.180,baseline
1017.000,227.000,51.410,17.520,1059.000,207.700,52.060,14.100,194.800,65.870,21.790,8.849,358.400,117.200,41.180,17.090,baseline
1017.000,227.200,52.520,17.550,1056.000,207.800,51.900,14.090,195.200,65.600,21.850,8.843,358.200,116.600,41.310,17.130,baseline
1021.000,229.000,52.440,17.560,1064.000,209.000,52.380,14.030,194.000,65.670,21.770,8.864,358.800,117.100,41.050,17.040,baseline
1025.000,228.500,51.740,17.680,1058.000,208.900,52.910,14.160,194.500,65.840,21.800,8.797,360.100,117.100,41.210,17.060,baseline
1031.000,230.100,52.360,17.930,1064.000,209.600,53.490,14.240,197.800,65.760,21.890,8.823,362.000,118.400,41.720,17.300,baseline
1041.000,233.200,53.030,18.130,1068.000,209.900,53.790,14.360,196.200,66.040,21.940,8.900,365.500,119.900,42.170,17.490,baseline
1051.000,235.200,52.910,18.320,1075.000,210.700,54.070,14.290,198.800,66.680,22.160,8.890,366.900,119.800,42.220,17.380,baseline
1029.000,230.600,52.170,17.820,1062.000,208.800,53.610,14.250,200.500,66.690,22.090,8.852,365.000,118.900,41.800,17.170,baseline
1024.000,230.100,52.190,17.840,1059.000,209.700,53.500,14.300,198.200,66.550,22.000,8.854,363.700,118.700,41.760,17.180,baseline
1024.000,230.900,52.340,17.960,1061.000,209.700,53.350,14.340,199.800,66.380,22.090,8.862,363.300,118.700,41.840,17.240,baseline
1026.000,231.000,52.910,17.870,1062.000,209.600,52.980,14.360,200.600,66.480,22.040,8.872,363.800,118.600,41.760,17.260,baseline
1029.000,230.900,53.270,17.990,1062.000,209.900,53.060,14.380,198.800,66.540,22.010,8.893,364.800,118.600,42.020,17.430,baseline
1034.000,233.200,53.720,18.200,1066.000,210.000,53.600,14.440,202.800,66.110,22.030,8.906,365.500,118.900,42.030,17.490,baseline
1041.000,233.600,53.700,18.390,1065.000,210.300,54.180,14.430,201.800,66.650,22.000,8.917,365.900,119.500,42.180,17.480,baseline
1040.000,232.500,52.980,17.780,1067.000,209.200,53.220,14.210,199.100,66.400,21.980,8.833,364.000,118.500,41.590,17.120,baseline
1016.000,227.500,52.270,17.760,1055.000,208.600,53.080,14.200,200.900,66.200,21.840,8.765,361.800,117.500,41.180,16.990,baseline
1014.000,227.200,50.580,17.700,1054.000,208.300,53.480,14.240,198.100,65.750,21.730,8.722,360.000,117.200,41.160,16.990,baseline
1015.000,226.700,50.780,17.650,1059.000,207.900,53.010,14.230,197.000,65.890,21.660,8.758,359.600,117.200,41.260,17.020,baseline
1016.000,228.600,52.190,17.750,1057.000,208.400,53.200,14.270,199.500,65.590,21.800,8.771,361.200,117.100,41.350,17.110,baseline
1021.000,228.800,52.440,17.900,1058.000,208.300,53.540,14.290,198.100,65.720,21.740,8.785,360.600,117.700,41.380,17.140,baseline
1027.000,231.400,53.030,17.970,1060.000,209.700,53.410,14.390,197.000,65.610,21.780,8.802,362.700,118.000,41.600,17.240,baseline
1035.000,232.600,53.590,17.940,1067.000,209.300,52.610,14.110,201.600,65.870,21.830,8.790,361.600,118.000,41.350,17.050,baseline
1010.000,226.800,52.380,17.440,1054.000,207.200,51.920,14.070,197.600,65.430,21.620,8.717,359.400,116.700,40.840,16.830,baseline
1006.000,224.800,50.940,17.360,1055.000,207.500,52.420,14.090,197.100,65.390,21.600,8.661,358.200,116.100,40.850,16.790,baseline
1005.000,224.100,51.670,17.410,1053.000,208.200,52.080,14.070,197.300,65.470,21.640,8.692,358.100,116.400,40.940,16.860,baseline
1006.000,224.500,50.810,17.390,1052.000,206.300,52.310,14.030,194.400,65.430,21.640,8.707,358.600,116.300,41.050,16.920,baseline
1006.000,224.800,51.490,17.430,1047.000,206.600,52.560,14.020,199.900,65.480,21.710,8.714,361.100,117.100,41.250,17.000,baseline
1006.000,225.700,51.410,17.330,1048.000,206.200,52.040,13.940,199.700,65.770,21.780,8.783,361.000,117.700,41.470,17.120,baseline
1007.000,227.500,50.410,17.500,1048.000,206.100,53.030,13.900,196.900,66.240,21.780,8.786,362.900,117.900,41.480,17.050,baseline
998.900,223.000,50.700,17.030,1043.000,204.000,51.660,13.760,199.400,65.510,21.720,8.703,360.900,116.800,40.930,16.790,baseline
983.200,219.900,49.680,16.900,1031.000,203.700,51.420,13.710,195.200,65.410,21.620,8.670,359.000,116.700,40.780,16.740,baseline
982.200,220.000,49.630,16.890,1032.000,203.800,51.820,13.780,197.300,65.540,21.680,8.686,359.400,116.400,40.930,16.840,baseline
987.900,222.200,50.220,17.010,1039.000,205.100,51.820,13.930,200.300,65.710,21.810,8.765,359.900,117.000,41.120,16.950,baseline
996.100,222.600,51.220,17.310,1046.000,206.400,52.060,14.050,198.600,66.070,21.880,8.838,361.000,117.400,41.390,17.150,baseline
1008.000,225.100,52.890,17.520,1050.000,206.900,52.540,14.140,197.500,66.270,21.950,8.875,362.100,118.200,41.660,17.290,baseline
1018.000,228.300,52.480,17.730,1055.000,207.400,52.880,14.200,200.100,66.370,22.110,8.940,363.400,118.900,41.830,17.340,baseline
1017.000,225.100,51.500,17.340,1053.000,205.900,51.790,14.010,197.000,66.350,21.980,8.890,361.800,117.700,41.330,17.010,baseline
997.900,222.300,50.550,17.190,1048.000,205.800,51.980,14.000,197.100,65.920,21.860,8.845,359.200,116.400,40.990,16.880,baseline
998.000,222.800,50.550,17.200,1048.000,205.300,52.330,14.050,198.700,66.010,21.850,8.822,359.600,116.500,40.950,16.900,baseline
1001.000,223.800,50.390,17.290,1051.000,205.800,52.490,14.090,195.800,66.110,21.860,8.844,359.000,116.400,41.080,16.900,baseline
1002.000,223.700,50.570,17.270,1055.000,205.800,53.150,14.090,195.400,65.760,21.850,8.827,360.100,117.200,41.190,16.970,baseline
1005.000,225.800,51.220,17.380,1048.000,205.100,52.630,14.030,196.400,65.740,21.920,8.843,359.500,117.100,41.090,17.020,baseline
1003.000,224.200,50.490,17.280,1044.000,205.100,51.920,13.910,194.900,66.090,21.850,8.839,361.300,117.600,41.280,17.080,baseline
996.700,222.000,49.370,16.760,1032.000,202.100,50.890,13.510,200.000,65.690,21.820,8.775,360.500,116.600,40.780,16.770,baseline
963.500,215.300,48.750,16.280,1007.000,198.200,49.610,13.210,194.800,65.650,21.660,8.741,357.500,116.000,40.700,16.690,baseline
952.700,212.900,48.310,16.190,1004.000,197.800,49.770,13.230,194.300,65.410,21.640,8.728,357.400,115.900,40.660,16.670,baseline
954.300,214.500,48.050,16.220,1003.000,198.900,49.830,13.250,197.000,65.490,21.700,8.714,358.300,115.900,40.670,16.700,baseline
959.900,217.300,49.460,16.470,1013.000,200.200,50.170,13.500,196.400,65.330,21.670,8.746,358.600,115.900,40.750,16.830,baseline
976.200,218.900,49.500,16.840,1027.000,203.500,51.260,13.810,196.800,65.510,21.760,8.747,359.100,116.600,41.010,16.910,baseline
994.800,222.600,50.760,17.250,1041.000,205.300,51.680,13.910,199.600,65.820,21.830,8.800,360.100,117.200,41.100,16.930,baseline
995.700,221.900,49.900,16.920,1044.000,204.300,51.530,13.850,196.900,65.720,21.710,8.766,358.000,115.900,40.610,16.690,baseline
986.400,220.300,49.580,16.940,1040.000,204.500,52.180,13.860,198.600,65.450,21.610,8.707,356.900,115.100,40.530,16.600,baseline
987.300,220.300,50.020,17.030,1042.000,204.700,51.690,13.960,198.000,65.170,21.670,8.733,356.700,115.300,40.490,16.700,baseline
992.300,222.300,50.690,17.080,1047.000,205.300,51.720,13.960,195.900,65.500,21.680,8.751,357.900,115.600,40.660,16.720,baseline
993.700,222.600,51.110,17.190,1043.000,204.800,52.180,13.990,199.400,65.400,21.700,8.759,358.000,116.000,40.780,16.810,baseline
999.100,223.100,50.710,17.330,1047.000,206.200,51.900,14.060,199.800,65.580,21.820,8.783,358.600,116.600,40.940,16.990,baseline
1007.000,225.300,52.070,17.490,1055.000,207.400,52.420,14.020,198.700,65.640,21.790,8.815,360.100,116.800,40.950,16.860,baseline
995.500,221.600,50.380,17.010,1048.000,205.700,51.620,13.870,200.200,65.470,21.760,8.745,356.500,115.200,40.540,16.600,baseline
988.700,220.800,50.140,16.980,1049.000,205.600,51.830,13.930,197.800,65.470,21.610,8.716,355.800,114.700,40.280,16.570,baseline
988.000,220.500,50.180,16.930,1047.000,206.000,51.940,13.990,194.200,65.280,21.660,8.730,356.600,115.000,40.460,16.580,baseline
991.400,221.100,50.360,17.070,1049.000,205.800,51.880,13.990,200.600,65.290,21.670,8.734,355.600,115.200,40.420,16.670,baseline
994.400,221.800,50.300,17.130,1049.000,206.900,52.460,14.020,198.100,65.600,21.700,8.765,356.400,115.900,40.670,16.730,baseline
999.300,223.700,49.910,17.340,1051.000,206.500,52.400,14.080,196.700,65.650,21.770,8.774,358.000,116.100,40.950,16.860,baseline
1007.000,224.700,51.450,17.510,1054.000,207.800,52.610,14.050,199.200,65.650,21.830,8.832,358.200,116.200,40.870,16.790,baseline
995.700,222.400,50.070,17.000,1052.000,206.000,52.060,13.960,196.300,65.560,21.680,8.753,356.200,115.300,40.390,16.540,baseline
990.500,220.700,50.990,17.040,1047.000,206.500,51.840,14.030,199.400,65.200,21.710,8.730,355.000,114.600,40.270,16.500,baseline
989.700,221.900,49.810,17.040,1047.000,205.700,51.850,14.050,196.800,65.220,21.640,8.759,354.300,115.000,40.410,16.610,baseline
993.700,220.900,50.800,17.070,1050.000,207.100,52.270,14.080,195.500,65.690,21.670,8.778,355.400,115.200,40.520,16.640,baseline
995.300,222.600,50.990,17.200,1051.000,207.000,52.420,14.110,196.000,65.710,21.840,8.807,356.700,115.500,40.650,16.730,baseline
1002.000,224.400,52.660,17.340,1053.000,206.800,52.160,14.180,198.800,65.670,21.840,8.829,356.800,116.000,40.840,16.850,baseline
1010.000,226.400,52.340,17.500,1056.000,208.100,52.670,14.210,194.400,66.030,21.850,8.856,358.800,116.700,41.080,17.000,baseline
1017.000,227.200,51.640,17.450,1062.000,207.700,52.110,14.100,197.000,65.690,21.880,8.836,358.700,116.100,40.830,16.670,baseline
997.100,221.800,50.830,17.190,1049.000,207.200,52.680,14.090,196.400,65.520,21.750,8.772,356.000,115.200,40.380,16.610,baseline
995.200,222.800,50.320,17.140,1053.000,207.100,52.590,14.070,195.600,65.470,21.740,8.783,355.500,115.000,40.430,16.600,baseline
997.300,222.900,50.230,17.230,1054.000,207.700,52.550,14.120,199.900,65.550,21.790,8.802,355.400,115.000,40.470,16.620,baseline
999.700,223.900,50.810,17.280,1053.000,207.800,52.920,14.090,196.200,65.780,21.750,8.843,356.400,115.400,40.530,16.720,baseline
1002.000,223.900,51.690,17.440,1054.000,207.900,53.000,14.180,196.400,65.870,21.890,8.846,356.900,115.800,40.810,16.850,baseline
1008.000,225.900,51.660,17.570,1059.000,207.900,52.670,14.200,198.900,65.580,21.930,8.875,358.400,116.400,40.950,16.950,baseline
1016.000,227.400,53.590,17.650,1060.000,209.300,52.750,14.270,196.500,66.050,21.950,8.900,359.800,116.800,41.130,17.030,baseline
1023.000,229.400,52.390,17.550,1066.000,209.100,52.450,14.120,198.000,66.090,21.920,8.847,359.300,116.700,40.940,16.800,baseline
1003.000,224.900,51.030,17.290,1059.000,208.500,52.070,14.100,199.000,65.660,21.810,8.821,357.100,115.600,40.490,16.690,baseline
1001.000,224.200,51.420,17.250,1055.000,208.300,52.020,14.080,194.300,65.430,21.740,8.799,355.300,115.400,40.460,16.690,baseline
1003.000,225.100,51.570,17.370,1055.000,208.200,52.600,14.130,197.100,65.680,21.830,8.812,356.600,115.700,40.710,16.740,baseline
1005.000,225.300,51.040,17.320,1053.000,208.400,52.730,14.170,196.500,65.580,21.810,8.821,356.600,115.900,40.640,16.820,baseline
1009.000,226.400,51.790,17.540,1056.000,208.600,53.240,14.260,195.800,65.680,21.900,8.850,358.500,116.500,41.150,16.930,baseline
1016.000,228.800,51.720,17.720,1060.000,209.300,52.770,14.250,198.700,66.020,21.970,8.862,360.300,117.000,41.290,17.020,baseline
1024.000,231.200,51.660,17.890,1065.000,210.400,54.060,14.330,199.500,66.040,21.960,8.881,361.400,117.800,41.400,17.190,baseline
1033.000,233.000,53.140,17.830,1069.000,210.100,52.900,14.180,195.600,66.260,21.970,8.896,361.900,117.600,41.240,16.950,baseline
1010.000,227.200,52.130,17.440,1059.000,208.700,52.490,14.120,201.100,65.520,21.950,8.812,359.900,116.600,40.910,16.830,baseline
1008.000,226.700,51.390,17.450,1057.000,209.200,52.800,14.140,197.000,65.770,21.800,8.814,358.100,116.400,40.910,16.890,baseline
1011.000,226.800,52.320,17.570,1062.000,209.200,52.680,14.180,197.000,65.910,21.830,8.823,359.200,116.500,41.070,16.890,baseline
1015.000,227.500,53.540,17.620,1063.000,209.100,52.610,14.210,200.600,65.600,21.880,8.826,360.200,116.700,41.160,16.960,baseline
1018.000,229.100,52.510,17.710,1058.000,209.900,53.240,14.280,196.000,65.900,21.870,8.833,360.000,117.600,41.270,17.070,baseline
1025.000,231.000,52.670,17.940,1063.000,209.900,53.760,14.280,195.800,66.000,21.910,8.870,362.200,118.100,41.490,17.210,baseline
1033.000,232.400,53.200,18.050,1066.000,211.100,53.400,14.310,198.800,65.980,21.960,8.876,364.000,118.200,41.800,17.280,baseline
1037.000,230.600,52.370,17.610,1065.000,209.800,52.730,14.090,196.900,65.960,21.810,8.851,362.700,117.600,41.300,16.990,baseline
1012.000,227.100,52.700,17.580,1060.000,208.700,52.480,14.080,197.800,65.720,21.740,8.784,360.800,116.600,41.190,16.930,baseline
1012.000,227.800,51.070,17.550,1057.000,209.000,52.600,14.130,199.100,65.490,21.780,8.766,359.600,117.200,41.190,17.030,baseline
1016.000,228.800,51.810,17.580,1063.000,209.000,52.390,14.160,194.000,65.600,21.780,8.806,359.800,117.400,41.340,17.090,baseline
1017.000,228.500,52.860,17.690,1062.000,208.900,52.890,14.170,196.500,65.660,21.810,8.801,361.700,117.400,41.460,17.160,baseline
1023.000,229.700,52.920,17.870,1059.000,209.400,53.270,14.240,198.700,65.770,21.750,8.811,361.800,118.000,41.730,17.290,baseline
1032.000,231.600,53.330,17.980,1069.000,209.600,53.180,14.290,195.900,65.860,21.820,8.841,363.000,118.400,41.850,17.380,baseline
1044.000,234.400,53.920,18.090,1077.000,210.300,52.540,14.130,198.700,65.810,21.900,8.820,364.100,118.600,41.860,17.240,baseline
1018.000,227.800,51.750,17.500,1060.000,208.000,52.350,14.040,195.700,65.860,21.730,8.756,361.700,117.700,41.320,17.050,baseline
1011.000,226.200,51.680,17.450,1062.000,208.300,52.890,14.010,193.500,65.400,21.630,8.727,361.000,117.300,41.270,16.960,baseline
1010.000,226.500,51.360,17.440,1060.000,208.900,52.250,14.040,196.200,65.150,21.670,8.745,359.600,117.200,41.270,17.070,baseline
1014.000,226.300,51.180,17.560,1063.000,208.600,52.860,14.090,195.600,65.550,21.700,8.731,359.700,117.200,41.500,17.110,baseline
1018.000,228.100,52.140,17.670,1063.000,209.100,53.420,14.100,196.500,65.470,21.630,8.756,361.900,117.900,41.500,17.210,baseline
1024.000,230.400,51.310,17.900,1067.000,209.100,52.910,14.190,197.300,65.500,21.700,8.765,362.300,118.200,41.880,17.360,baseline
1034.000,231.100,52.730,18.140,1071.000,210.500,53.180,14.270,193.700,65.420,21.720,8.793,364.600,118.900,41.990,17.420,baseline
1039.000,231.700,52.750,17.720,1068.000,209.000,52.610,14.080,196.600,65.240,21.650,8.722,362.500,118.200,41.630,17.140,baseline
1010.000,226.900,51.210,17.480,1063.000,208.400,52.610,14.080,196.000,65.480,21.560,8.676,361.300,117.300,41.320,17.040,baseline
1009.000,226.100,51.750,17.480,1061.000,208.700,52.400,14.070,192.400,65.370,21.530,8.662,360.800,117.200,41.300,17.120,baseline
1011.000,226.900,52.340,17.540,1060.000,209.200,52.770,14.140,198.100,65.220,21.540,8.692,360.400,117.500,41.470,17.130,baseline
1014.000,227.400,52.280,17.630,1064.000,208.900,53.160,14.110,196.000,65.330,21.550,8.682,361.900,118.000,41.460,17.230,baseline
1020.000,230.200,52.420,17.800,1064.000,209.900,53.310,14.180,195.700,65.540,21.590,8.742,362.900,118.500,41.790,17.330,baseline
1029.000,230.700,52.460,18.000,1067.000,210.300,52.850,14.220,197.200,65.530,21.680,8.720,364.700,118.900,41.960,17.490,baseline
1041.000,234.000,53.980,18.190,1077.000,211.800,53.040,14.200,196.600,65.680,21.660,8.755,366.000,119.200,42.040,17.380,baseline
1021.000,227.200,51.610,17.600,1062.000,208.400,53.020,14.040,196.300,65.360,21.640,8.660,362.400,118.100,41.510,17.130,baseline
1011.000,226.100,51.820,17.500,1062.000,208.600,52.940,14.040,199.600,65.160,21.590,8.651,361.800,117.600,41.300,17.100,baseline
1009.000,226.900,50.770,17.590,1061.000,208.700,52.390,14.050,194.600,65.340,21.490,8.652,361.600,117.700,41.470,17.180,baseline
1014.000,228.200,53.090,17.600,1063.000,208.500,52.510,14.130,195.000,65.200,21.560,8.677,362.300,118.100,41.630,17.230,baseline
1017.000,228.800,51.880,17.760,1064.000,209.500,52.630,14.150,199.400,65.360,21.640,8.681,363.600,118.500,41.800,17.380,baseline
1025.000,230.800,53.770,17.900,1066.000,209.900,53.350,14.190,193.800,65.400,21.530,8.707,364.000,118.900,42.010,17.500,baseline
1035.000,232.300,53.560,18.200,1073.000,210.900,53.670,14.240,195.500,65.670,21.630,8.735,366.200,119.300,42.170,17.600,baseline
1048.000,235.100,54.110,18.170,1077.000,210.500,52.540,14.120,200.000,65.430,21.680,8.718,366.500,119.500,41.980,17.380,baseline
1015.000,227.300,52.520,17.700,1064.000,209.100,52.030,14.070,197.800,65.550,21.590,8.647,364.500,118.400,41.570,17.190,baseline
1011.000,226.400,51.300,17.670,1062.000,209.500,52.940,14.100,197.800,65.500,21.570,8.630,363.300,118.300,41.630,17.240,baseline
1014.000,228.100,51.750,17.720,1064.000,209.500,53.430,14.100,197.100,65.270,21.590,8.683,362.700,118.400,41.660,17.310,baseline
1018.000,228.500,51.860,17.830,1066.000,209.600,52.830,14.120,194.800,65.520,21.580,8.667,364.100,118.300,41.760,17.320,baseline
1021.000,230.100,52.550,17.950,1065.000,209.600,53.210,14.180,199.100,65.450,21.610,8.675,364.800,118.900,42.010,17.440,baseline
1029.000,231.800,53.150,18.070,1072.000,210.000,53.200,14.200,197.800,65.270,21.580,8.703,366.400,119.600,42.210,17.560,baseline
1043.000,235.000,53.590,18.330,1079.000,211.800,53.220,14.270,196.400,65.410,21.630,8.741,365.800,119.800,42.390,17.660,baseline
1056.000,237.000,54.520,18.220,1077.000,210.800,53.030,14.060,197.900,65.530,21.640,8.676,366.500,119.500,42.150,17.440,baseline
1018.000,227.700,52.500,17.680,1064.000,208.900,51.970,14.020,198.600,65.450,21.540,8.640,363.600,118.700,41.770,17.320,baseline
1015.000,227.200,52.450,17.710,1068.000,209.000,52.360,14.040,197.400,65.130,21.490,8.616,363.500,118.300,41.800,17.340,baseline
1020.000,228.800,52.530,17.830,1068.000,209.600,52.380,14.080,197.100,65.130,21.450,8.611,363.500,118.400,41.830,17.340,baseline
1022.000,228.500,52.110,17.900,1071.000,210.000,51.720,14.050,197.500,65.240,21.450,8.645,363.200,118.600,41.770,17.410,baseline
1027.000,230.200,53.140,17.980,1067.000,210.200,52.080,14.070,197.500,65.350,21.520,8.672,363.800,118.900,42.030,17.520,baseline
1036.000,232.700,53.950,18.180,1072.000,211.200,52.660,14.180,198.000,65.440,21.490,8.664,366.100,119.300,42.110,17.620,baseline
1048.000,236.600,54.840,18.440,1079.000,211.900,53.050,14.170,196.700,65.670,21.530,8.694,366.800,119.700,42.340,17.660,baseline
1038.000,231.200,52.030,17.860,1071.000,209.700,52.580,13.960,197.300,65.150,21.470,8.627,365.300,119.000,41.960,17.340,baseline
1015.000,228.700,52.340,17.690,1065.000,208.400,51.990,13.960,198.800,64.780,21.340,8.597,363.000,118.200,41.680,17.300,baseline
1017.000,227.800,51.880,17.800,1068.000,208.800,52.000,14.020,195.700,65.100,21.300,8.604,363.000,118.400,41.760,17.350,baseline
1022.000,229.400,52.270,17.840,1069.000,208.900,52.110,14.030,197.500,64.980,21.390,8.607,363.800,118.600,41.940,17.430,baseline
1024.000,229.800,52.990,17.900,1064.000,209.800,52.390,14.030,196.300,64.770,21.370,8.616,363.700,118.900,41.880,17.530,baseline
1030.000,231.600,53.280,18.130,1072.000,209.800,52.080,14.090,194.100,65.120,21.390,8.618,364.100,119.000,42.200,17.610,baseline
1041.000,234.500,55.040,18.410,1075.000,211.600,52.660,14.120,197.600,65.310,21.470,8.620,365.300,119.600,42.340,17.690,baseline
1055.000,235.700,53.980,18.300,1074.000,210.900,52.050,13.950,196.300,65.270,21.470,8.628,366.400,119.300,42.100,17.440,baseline
1017.000,227.700,51.770,17.660,1067.000,208.500,52.270,13.920,194.200,65.070,21.340,8.542,362.700,118.400,41.810,17.280,baseline
1012.000,226.100,52.120,17.670,1063.000,208.300,52.400,13.880,196.200,64.770,21.320,8.546,362.500,117.800,41.590,17.250,baseline
1013.000,227.100,51.860,17.720,1065.000,208.200,52.170,13.940,192.300,64.670,21.270,8.547,361.800,117.900,41.680,17.310,baseline
1016.000,228.200,52.270,17.820,1064.000,208.600,52.990,13.960,194.100,64.690,21.300,8.567,363.200,118.200,41.700,17.360,baseline
1018.000,228.600,53.100,17.920,1067.000,208.500,52.760,13.990,196.900,64.820,21.310,8.579,364.000,118.600,41.860,17.470,baseline
1026.000,230.200,52.980,18.050,1065.000,209.400,52.340,14.030,194.900,65.150,21.320,8.593,364.500,118.700,42.080,17.550,baseline
1036.000,233.000,53.260,18.280,1072.000,210.500,52.710,14.080,195.700,64.880,21.330,8.583,365.600,119.400,42.210,17.570,baseline
1040.000,231.900,53.170,17.860,1072.000,209.300,52.210,13.880,196.100,64.840,21.370,8.580,363.600,118.700,41.840,17.310,baseline
1009.000,226.200,52.160,17.610,1062.000,207.800,51.740,13.850,192.400,64.680,21.230,8.505,361.600,117.800,41.460,17.200,baseline
1006.000,225.700,50.880,17.550,1057.000,207.200,51.930,13.870,196.700,64.680,21.250,8.507,360.800,117.400,41.530,17.230,baseline
1007.000,226.500,52.000,17.620,1062.000,208.300,51.740,13.890,196.000,64.540,21.220,8.522,361.400,117.800,41.480,17.270,baseline
1010.000,226.800,52.900,17.680,1062.000,208.500,51.680,13.900,192.300,64.740,21.280,8.552,361.900,117.700,41.800,17.330,baseline
1014.000,228.100,52.200,17.790,1061.000,208.100,52.070,13.990,196.900,64.720,21.340,8.555,362.300,118.000,41.770,17.400,baseline
1021.000,229.600,53.030,18.010,1063.000,208.900,51.870,13.990,194.300,64.790,21.290,8.580,363.900,119.100,41.950,17.520,baseline
1030.000,231.200,52.370,18.190,1070.000,209.700,53.080,14.040,194.900,65.000,21.400,8.610,364.200,119.000,42.110,17.560,baseline
1035.000,231.800,52.970,17.740,1064.000,208.400,52.180,13.850,196.400,64.790,21.340,8.539,363.000,118.100,41.690,17.270,baseline
1005.000,224.700,50.960,17.530,1060.000,206.600,51.870,13.850,193.400,64.860,21.160,8.516,361.200,117.300,41.370,17.140,baseline
1002.000,225.900,52.080,17.520,1057.000,207.700,52.120,13.870,194.200,64.630,21.250,8.511,360.100,117.200,41.410,17.100,baseline
1004.000,225.000,51.330,17.560,1059.000,207.600,52.260,13.870,197.900,64.470,21.240,8.518,360.300,117.100,41.370,17.180,baseline
1005.000,225.000,51.910,17.590,1059.000,207.200,51.590,13.930,194.200,64.580,21.260,8.546,360.000,117.600,41.530,17.240,baseline
1010.000,226.300,52.270,17.730,1060.000,206.900,52.070,13.960,194.200,64.840,21.290,8.543,361.000,117.500,41.750,17.360,baseline
1017.000,227.800,52.920,17.850,1061.000,208.400,51.950,13.970,195.400,64.640,21.240,8.605,361.700,118.400,41.790,17.470,baseline
1025.000,229.600,54.420,18.030,1065.000,208.400,52.860,14.020,194.200,65.100,21.350,8.614,363.100,118.600,41.990,17.550,baseline
1033.000,230.500,53.760,17.800,1070.000,208.600,51.960,13.830,195.300,65.000,21.350,8.585,363.200,118.000,41.630,17.250,baseline
1004.000,224.700,51.810,17.450,1054.000,206.300,51.740,13.810,195.000,64.620,21.240,8.518,361.200,117.100,41.220,17.110,baseline
1001.000,224.100,51.180,17.430,1054.000,206.600,52.210,13.850,193.400,64.590,21.250,8.495,359.300,116.900,41.220,17.060,baseline
1003.000,225.200,50.830,17.520,1056.000,206.800,51.730,13.860,196.000,64.360,21.210,8.515,358.900,117.100,41.260,17.090,baseline
1004.000,224.600,51.450,17.490,1058.000,207.300,52.380,13.890,194.300,64.610,21.230,8.548,359.800,117.100,41.220,17.190,baseline
1008.000,226.600,50.950,17.610,1062.000,207.500,52.320,13.920,193.700,64.660,21.240,8.585,359.700,117.400,41.550,17.250,baseline
1016.000,227.500,51.890,17.850,1063.000,207.900,52.110,14.000,195.200,64.740,21.340,8.596,361.100,117.800,41.740,17.380,baseline
1024.000,230.300,53.710,17.930,1064.000,208.600,52.430,14.020,193.500,64.990,21.370,8.626,361.800,118.600,41.710,17.490,baseline
1033.000,232.400,53.750,18.090,1069.000,209.400,52.630,13.970,192.700,64.890,21.380,8.620,362.800,118.500,41.820,17.320,baseline
1012.000,225.400,52.200,17.440,1059.000,207.100,51.700,13.810,194.500,64.690,21.310,8.544,360.700,117.200,41.420,17.090,baseline
1001.000,224.600,51.820,17.460,1054.000,206.800,51.690,13.830,193.400,64.790,21.240,8.539,358.500,116.700,41.140,17.020,baseline
1002.000,223.800,51.140,17.540,1054.000,206.800,51.730,13.870,194.000,64.620,21.190,8.532,358.500,116.800,41.200,17.080,baseline
1005.000,225.900,51.760,17.500,1059.000,207.500,52.150,13.910,194.900,64.510,21.240,8.548,358.400,116.800,41.200,17.090,baseline
1007.000,224.800,51.210,17.640,1058.000,207.300,52.240,13.960,191.100,64.590,21.310,8.577,359.600,117.000,41.530,17.210,baseline
1013.000,226.800,51.880,17.770,1064.000,207.300,52.240,13.960,194.800,64.560,21.320,8.610,360.500,117.600,41.590,17.300,baseline
1021.000,228.500,52.450,17.960,1065.000,208.900,52.790,14.040,194.500,65.000,21.400,8.616,360.800,118.100,41.750,17.410,baseline
1029.000,232.000,53.840,18.070,1066.000,209.000,52.540,14.040,194.200,65.050,21.360,8.617,361.900,118.200,41.850,17.430,baseline
1034.000,230.300,52.250,17.660,1064.000,207.600,52.430,13.890,195.100,64.950,21.360,8.580,361.300,117.700,41.450,17.130,baseline
1003.000,225.300,52.140,17.470,1059.000,206.900,52.460,13.860,193.700,64.850,21.210,8.538,359.000,117.000,41.230,17.050,baseline
1004.000,225.500,51.530,17.460,1059.000,207.200,51.970,13.870,192.400,64.720,21.170,8.553,358.200,116.700,41.240,17.040,baseline
1007.000,225.000,51.520,17.530,1062.000,207.200,52.000,13.930,193.600,64.460,21.270,8.547,359.000,116.900,41.080,17.100,baseline
1007.000,225.400,52.400,17.530,1059.000,207.400,52.250,13.940,191.900,64.530,21.270,8.579,359.000,117.100,41.270,17.140,baseline
1012.000,226.200,52.520,17.770,1063.000,208.200,51.930,14.010,192.300,64.510,21.340,8.569,359.200,117.400,41.500,17.250,baseline
1019.000,228.700,52.580,17.920,1062.000,208.400,52.640,14.040,194.700,64.490,21.330,8.619,361.400,118.000,41.660,17.370,baseline
1028.000,230.700,52.200,18.050,1069.000,208.900,52.880,14.120,193.900,64.630,21.390,8.617,361.600,118.300,41.920,17.460,baseline
1039.000,232.400,52.560,18.060,1074.000,209.800,52.350,13.940,194.100,64.830,21.330,8.616,361.900,118.100,41.690,17.250,baseline
1008.000,224.700,52.110,17.420,1060.000,206.700,52.420,13.870,196.400,64.410,21.220,8.547,358.700,116.900,41.180,17.030,baseline
1001.000,224.100,51.490,17.400,1060.000,206.800,52.340,13.900,189.600,64.570,21.160,8.523,357.800,116.600,41.080,17.010,baseline
1002.000,224.800,51.800,17.500,1055.000,206.400,52.640,13.910,193.600,64.330,21.230,8.522,358.300,116.500,41.100,17.010,baseline
1004.000,225.100,51.830,17.530,1061.000,207.100,51.870,13.930,194.400,64.630,21.240,8.541,357.600,116.400,41.000,17.070,baseline
1007.000,225.600,51.860,17.610,1058.000,207.800,51.910,13.970,193.300,64.400,21.260,8.545,359.200,116.900,41.210,17.140,baseline
1015.000,227.100,52.340,17.800,1060.000,208.500,52.460,14.060,196.300,64.540,21.360,8.583,359.600,117.100,41.310,17.250,baseline
1025.000,229.700,53.670,17.970,1065.000,208.500,52.950,14.110,194.800,65.030,21.330,8.608,361.000,117.600,41.560,17.370,baseline
1033.000,230.500,53.960,18.050,1072.000,209.500,52.600,14.110,191.700,64.790,21.270,8.613,362.300,118.200,41.800,17.440,baseline
1041.000,230.600,54.040,17.860,1069.000,208.500,52.790,13.940,195.800,64.960,21.380,8.602,361.300,117.500,41.440,17.110,baseline
1004.000,223.300,50.820,17.390,1056.000,206.400,52.060,13.860,193.200,64.440,21.280,8.526,357.900,116.600,40.940,16.960,baseline
1001.000,223.100,50.240,17.320,1058.000,207.100,52.180,13.900,191.100,64.660,21.170,8.503,357.600,116.200,41.020,16.940,baseline
1003.000,223.400,50.720,17.490,1056.000,206.900,52.580,13.900,192.600,64.110,21.200,8.528,356.600,116.200,40.950,16.980,baseline
1005.000,225.900,50.790,17.440,1061.000,207.700,51.550,13.930,193.300,64.320,21.190,8.556,356.800,116.100,41.040,17.040,baseline
1006.000,225.300,51.430,17.590,1063.000,207.100,52.560,14.000,191.400,64.360,21.250,8.581,358.200,116.600,41.180,17.100,baseline
1015.000,228.200,52.260,17.780,1063.000,208.200,52.680,14.040,196.100,64.530,21.240,8.589,358.600,116.900,41.490,17.250,baseline
1026.000,230.500,53.320,17.870,1066.000,209.200,52.750,14.110,192.500,64.440,21.310,8.607,360.500,117.600,41.450,17.310,baseline
1035.000,231.600,54.000,18.060,1074.000,209.700,52.360,14.160,194.200,64.870,21.310,8.640,361.300,118.000,41.690,17.340,baseline
1037.000,230.800,53.260,17.610,1062.000,208.100,51.980,13.920,194.100,64.850,21.330,8.559,359.600,117.000,41.090,17.040,baseline
1003.000,223.400,51.210,17.350,1059.000,206.600,51.930,13.880,190.200,64.430,21.160,8.519,357.500,116.200,40.930,16.900,baseline
1001.000,222.600,51.000,17.340,1059.000,207.400,51.280,13.920,193.700,64.250,21.160,8.524,356.200,115.700,40.880,16.910,baseline
1004.000,223.900,51.300,17.430,1060.000,207.000,52.350,13.900,192.800,64.300,21.210,8.517,356.000,115.800,40.790,16.940,baseline
1005.000,224.600,51.970,17.540,1059.000,207.700,52.590,13.950,192.800,64.320,21.170,8.549,356.300,116.000,40.900,16.970,baseline
1010.000,225.700,51.550,17.660,1060.000,207.800,52.450,14.010,194.500,64.460,21.210,8.551,357.400,116.300,41.130,17.090,baseline
1019.000,228.500,51.990,17.830,1067.000,208.700,52.980,14.080,192.300,64.670,21.310,8.604,357.900,117.100,41.200,17.240,baseline
1030.000,230.700,52.690,18.010,1070.000,209.200,52.670,14.150,192.700,64.750,21.270,8.616,359.800,117.500,41.470,17.260,baseline
1041.000,232.300,53.060,18.220,1079.000,210.500,52.340,14.170,197.100,64.770,21.430,8.625,360.200,117.500,41.500,17.270,baseline
1034.000,228.400,51.590,17.510,1065.000,207.300,51.590,13.900,192.600,64.680,21.250,8.562,358.700,116.900,41.040,16.960,baseline
1003.000,224.600,52.260,17.400,1058.000,206.900,51.990,13.930,192.400,64.200,21.160,8.528,356.000,115.800,40.830,16.840,baseline
1003.000,222.900,52.010,17.450,1058.000,206.500,51.830,13.910,195.600,64.260,21.190,8.523,356.100,115.800,40.750,16.910,baseline
1007.000,224.000,51.630,17.440,1061.000,207.500,52.040,13.930,192.000,64.570,21.130,8.538,355.900,116.000,40.790,16.890,baseline
1008.000,224.400,51.730,17.510,1061.000,207.100,52.450,14.000,191.600,64.380,21.200,8.542,356.300,116.000,40.950,16.980,baseline
1014.000,226.200,52.820,17.710,1057.000,208.200,52.650,14.030,194.500,64.570,21.270,8.570,356.000,116.400,40.990,17.100,baseline
1023.000,229.700,52.400,17.900,1067.000,209.400,52.580,14.120,190.800,64.780,21.200,8.585,357.900,116.600,41.190,17.180,baseline
1036.000,231.300,53.220,18.050,1071.000,210.000,53.130,14.210,192.900,64.710,21.360,8.627,359.200,117.500,41.400,17.290,baseline
1049.000,234.300,53.420,18.230,1082.000,210.500,53.290,14.040,193.400,64.930,21.340,8.610,359.600,117.500,41.250,17.170,baseline
1017.000,225.900,51.410,17.520,1060.000,207.400,52.240,13.880,193.500,64.390,21.200,8.534,357.300,116.000,40.820,16.920,baseline
1006.000,225.500,51.760,17.420,1060.000,207.100,52.300,13.890,195.100,64.350,21.230,8.528,355.000,115.500,40.680,16.840,baseline
1008.000,225.000,52.660,17.460,1061.000,207.400,51.780,13.940,191.100,64.070,21.160,8.547,355.200,115.800,40.820,16.880,baseline
1012.000,226.600,52.980,17.510,1063.000,207.200,52.100,13.970,190.200,64.420,21.180,8.528,354.900,115.700,40.790,16.900,baseline
1013.000,226.500,52.020,17.560,1062.000,208.100,52.200,14.030,194.100,64.210,21.250,8.554,356.300,115.800,40.960,17.010,baseline
1021.000,229.100,52.570,17.760,1064.000,208.900,52.020,14.060,190.400,64.610,21.290,8.585,357.500,116.500,41.010,17.140,baseline
1033.000,230.600,53.110,17.970,1072.000,210.600,52.610,14.120,192.500,64.480,21.320,8.597,358.100,117.000,41.220,17.280,baseline
1045.000,232.800,54.180,18.210,1075.000,210.600,52.800,14.130,193.200,64.450,21.300,8.612,358.800,117.500,41.410,17.210,baseline
1037.000,230.400,52.470,17.630,1067.000,207.900,52.240,13.910,192.200,64.620,21.250,8.541,357.100,116.300,40.900,16.910,baseline
1009.000,225.800,51.700,17.470,1063.000,207.500,52.340,13.920,189.900,64.150,21.140,8.524,355.800,115.800,40.680,16.830,baseline
1011.000,225.900,51.940,17.530,1061.000,208.200,52.400,13.950,192.200,64.410,21.150,8.520,356.200,115.700,40.610,16.920,baseline
1015.000,227.500,51.510,17.620,1067.000,208.700,52.580,14.000,190.700,64.500,21.090,8.535,355.700,115.600,40.630,16.910,baseline
1016.000,227.200,51.350,17.580,1065.000,208.100,52.300,13.990,193.100,64.180,21.260,8.544,355.900,116.000,40.720,16.940,baseline
1022.000,230.000,52.830,17.740,1064.000,208.700,52.710,14.070,192.700,64.350,21.210,8.577,356.200,116.000,41.060,17.070,baseline
1033.000,230.900,52.770,18.020,1074.000,209.900,52.640,14.120,189.400,64.370,21.240,8.586,357.900,116.900,41.330,17.200,baseline
1045.000,233.700,54.390,18.210,1076.000,209.900,52.260,14.170,193.400,64.490,21.300,8.601,358.600,117.200,41.290,17.200,baseline
1037.000,229.200,53.160,17.650,1064.000,208.400,51.820,13.900,192.000,64.530,21.190,8.539,356.400,116.200,40.670,16.830,baseline
1008.000,225.000,52.140,17.400,1053.000,207.700,51.980,13.900,191.100,64.410,21.160,8.479,354.900,115.300,40.570,16.790,baseline
1007.000,225.800,52.270,17.470,1057.000,207.300,52.560,13.950,193.600,63.980,21.100,8.522,354.100,115.200,40.460,16.780,baseline
1011.000,225.800,51.790,17.520,1059.000,207.400,52.440,13.930,191.700,64.180,21.140,8.518,353.100,115.100,40.640,16.820,baseline
1011.000,225.700,50.740,17.580,1062.000,208.100,52.430,14.000,191.500,64.150,21.130,8.518,354.600,115.200,40.520,16.840,baseline
1016.000,228.500,52.620,17.670,1064.000,208.000,53.170,14.080,191.800,64.180,21.260,8.536,354.400,115.800,40.750,16.980,baseline
1025.000,229.500,52.590,17.900,1066.000,208.800,53.160,14.070,189.800,64.600,21.300,8.591,356.500,116.300,40.980,17.080,baseline
1035.000,231.300,52.560,17.990,1067.000,209.600,52.820,14.110,191.300,64.450,21.280,8.588,357.500,116.500,41.140,17.060,baseline
1034.000,228.500,51.980,17.480,1063.000,207.800,51.950,13.900,192.600,64.660,21.230,8.529,355.900,115.600,40.540,16.790,baseline
1003.000,222.900,50.670,17.290,1058.000,206.900,51.780,13.900,188.800,64.070,21.080,8.484,353.400,114.400,40.180,16.620,baseline
1002.000,223.400,52.470,17.280,1059.000,206.800,51.910,13.920,190.800,64.240,21.100,8.493,351.900,114.400,40.260,16.610,baseline
1003.000,224.300,51.550,17.300,1060.000,207.500,52.420,13.930,192.400,64.090,21.090,8.524,352.200,114.400,40.260,16.650,baseline
1004.000,224.800,51.810,17.360,1057.000,207.100,51.520,13.970,192.000,64.350,21.120,8.528,352.100,114.500,40.280,16.690,baseline
1008.000,224.600,52.440,17.460,1059.000,207.200,52.920,14.050,192.200,64.280,21.220,8.580,353.200,114.800,40.360,16.750,baseline
1016.000,225.900,52.070,17.610,1064.000,208.200,52.200,14.030,192.600,64.460,21.350,8.589,354.100,115.400,40.610,16.900,baseline
1023.000,229.300,52.140,17.810,1068.000,208.900,53.060,14.110,189.400,64.380,21.290,8.641,355.600,115.700,40.670,16.920,baseline
1029.000,228.500,51.280,17.400,1067.000,207.100,52.770,13.910,194.300,64.360,21.320,8.573,354.100,114.900,40.260,16.630,baseline
998.500,222.500,50.300,17.090,1057.000,206.300,51.980,13.850,191.100,64.450,21.100,8.549,350.900,113.900,39.810,16.450,baseline
994.900,221.700,50.380,17.140,1054.000,206.100,52.250,13.890,191.900,64.130,21.180,8.549,349.900,113.400,39.820,16.450,baseline
997.500,222.900,51.760,17.150,1061.000,206.400,51.860,13.950,192.800,64.270,21.220,8.559,349.900,113.500,39.790,16.460,baseline
998.500,222.100,51.740,17.160,1054.000,206.600,51.750,13.980,190.500,64.270,21.180,8.582,349.600,113.500,39.820,16.540,baseline
1002.000,223.900,52.300,17.280,1062.000,207.400,51.880,14.020,190.700,64.660,21.210,8.615,351.000,114.000,40.130,16.610,baseline
1009.000,225.400,52.040,17.470,1060.000,208.100,52.350,14.050,192.700,64.570,21.280,8.642,352.000,114.400,40.230,16.720,baseline
1016.000,227.100,53.110,17.630,1064.000,208.500,52.560,14.120,189.700,64.690,21.350,8.662,352.800,114.900,40.440,16.780,baseline
1023.000,228.300,52.670,17.500,1065.000,207.800,52.250,13.890,191.900,64.880,21.420,8.652,352.300,114.400,40.190,16.520,baseline
996.400,221.800,50.990,17.120,1053.000,206.100,51.530,13.870,191.800,64.540,21.260,8.583,350.100,113.300,39.620,16.330,baseline
992.600,221.700,50.830,17.040,1052.000,206.000,51.900,13.900,190.400,64.520,21.200,8.583,347.800,112.600,39.600,16.320,baseline
992.400,221.900,51.000,17.050,1053.000,206.000,51.700,13.920,191.900,64.060,21.230,8.582,347.400,112.900,39.530,16.330,baseline
994.500,221.200,50.990,17.130,1056.000,205.900,52.240,13.960,190.500,64.360,21.250,8.619,347.800,112.900,39.560,16.380,baseline
997.300,222.400,49.960,17.240,1054.000,206.900,52.630,14.000,188.900,64.670,21.330,8.672,348.400,113.000,39.760,16.460,baseline
1003.000,223.700,51.310,17.270,1060.000,206.400,51.570,14.030,192.100,64.630,21.450,8.676,349.900,113.800,39.950,16.540,baseline
1010.000,225.500,51.690,17.470,1060.000,207.000,52.630,14.060,192.100,64.800,21.430,8.715,350.700,114.200,40.050,16.650,baseline
1017.000,227.800,52.500,17.600,1062.000,207.900,52.050,14.030,192.100,64.830,21.470,8.743,351.900,114.600,40.160,16.590,baseline
1008.000,223.200,51.360,17.170,1058.000,206.300,51.480,13.890,193.400,64.880,21.400,8.658,349.900,113.100,39.640,16.350,baseline
991.100,221.100,50.660,17.050,1053.000,205.700,51.690,13.890,190.800,64.510,21.340,8.637,347.000,112.600,39.460,16.240,baseline
991.700,220.300,51.310,17.000,1052.000,206.000,51.340,13.920,191.800,64.360,21.360,8.640,346.900,112.400,39.420,16.270,baseline
993.200,221.000,50.960,16.990,1053.000,206.400,52.110,13.970,191.500,64.530,21.420,8.686,347.400,112.600,39.360,16.280,baseline
994.300,221.800,51.250,17.070,1053.000,206.300,52.170,14.000,191.100,64.550,21.460,8.698,348.000,113.000,39.520,16.350,baseline
997.900,223.700,51.430,17.230,1056.000,207.100,52.700,14.070,191.500,64.630,21.430,8.715,348.900,113.100,39.620,16.410,baseline
1005.000,225.000,50.860,17.420,1060.000,207.800,52.590,14.100,192.900,64.900,21.510,8.746,349.200,113.700,39.840,16.510,baseline
1013.000,226.100,51.860,17.490,1063.000,208.600,52.970,14.130,192.000,65.180,21.530,8.768,350.800,114.100,39.990,16.550,baseline
1017.000,226.800,51.030,17.240,1062.000,207.000,52.690,13.970,193.300,65.220,21.560,8.751,350.700,113.400,39.590,16.270,baseline
992.800,221.800,50.570,17.030,1056.000,206.800,52.070,13.990,192.800,65.020,21.420,8.669,347.700,112.500,39.380,16.210,baseline
992.600,223.100,50.290,17.040,1050.000,206.400,51.820,14.010,189.700,64.600,21.440,8.702,347.400,112.400,39.450,16.200,baseline
994.400,221.900,51.160,17.020,1059.000,207.200,52.010,14.010,192.000,64.730,21.540,8.701,347.700,112.700,39.370,16.200,baseline
994.500,222.300,51.770,17.110,1056.000,207.400,52.270,14.050,191.000,65.030,21.570,8.739,348.000,112.600,39.520,16.290,baseline
998.900,223.400,51.860,17.230,1055.000,207.400,52.010,14.070,189.900,64.940,21.600,8.743,348.200,113.300,39.700,16.400,baseline
1005.000,224.400,52.120,17.360,1061.000,207.900,52.960,14.100,193.700,65.050,21.650,8.777,350.900,113.700,39.890,16.490,baseline
1011.000,226.300,52.680,17.510,1061.000,208.200,52.790,14.190,193.300,65.210,21.630,8.814,350.800,114.300,40.060,16.550,baseline
1017.000,226.200,51.280,17.230,1059.000,206.900,52.660,14.020,191.700,65.290,21.630,8.770,350.500,113.200,39.650,16.250,baseline
990.900,221.900,49.970,17.000,1054.000,206.300,52.590,13.980,194.600,64.670,21.560,8.709,346.500,112.300,39.200,16.100,baseline
989.500,220.400,49.480,16.940,1055.000,206.700,52.300,13.970,188.500,64.740,21.440,8.719,346.400,112.200,39.190,16.110,baseline
989.600,221.700,49.580,16.970,1056.000,207.100,52.050,13.980,191.500,64.850,21.460,8.744,346.900,112.100,39.260,16.160,baseline
991.600,222.200,50.490,17.070,1056.000,207.000,52.460,14.040,193.300,64.810,21.600,8.750,347.600,112.200,39.390,16.270,baseline
995.200,224.300,51.100,17.120,1055.000,206.700,52.680,14.120,191.200,64.900,21.570,8.775,347.800,112.800,39.600,16.310,baseline
1001.000,224.500,51.870,17.270,1060.000,207.700,52.660,14.170,193.200,65.320,21.650,8.810,349.600,113.200,39.770,16.460,baseline
1009.000,225.500,51.380,17.470,1058.000,208.500,53.120,14.190,191.600,65.160,21.660,8.823,351.200,113.900,39.940,16.520,baseline
1014.000,225.900,52.280,17.450,1061.000,207.900,52.760,14.020,191.900,65.580,21.740,8.817,350.600,113.900,39.730,16.330,baseline
991.800,220.800,51.050,16.940,1054.000,206.000,52.120,14.010,193.600,64.990,21.630,8.767,347.600,112.300,39.270,16.070,baseline
987.100,220.300,50.160,16.950,1052.000,206.900,52.260,14.020,193.300,64.840,21.560,8.723,345.900,111.900,39.120,16.080,baseline
986.800,220.400,50.490,16.980,1052.000,207.100,52.730,14.030,189.100,64.900,21.540,8.739,345.800,112.000,39.120,16.090,baseline
988.900,220.800,50.280,17.000,1054.000,207.000,52.900,14.070,194.600,64.880,21.620,8.755,345.300,111.900,39.250,16.180,baseline
991.600,220.700,50.260,17.110,1057.000,207.300,52.660,14.080,193.100,65.150,21.570,8.808,346.700,112.500,39.400,16.250,baseline
997.000,222.400,50.680,17.190,1055.000,207.400,52.830,14.150,190.800,65.200,21.650,8.830,347.900,113.000,39.540,16.320,baseline
