A-DC1,A-DC2,A-DC3,A-DC4,A-DC5,A-DC6,A-DC7,A-DC8,B-DC1,B-DC2,B-DC3,B-DC4,B-DC5,B-DC6,B-DC7,B-DC8,condition
1533.000,275.300,54.440,17.420,1335.000,265.700,61.330,15.870,96.280,21.280,6.509,2.243,175.500,44.260,12.700,4.727,hard
1534.000,274.000,55.360,17.300,1335.000,265.500,61.110,15.870,98.160,21.020,6.435,2.274,176.100,43.900,12.640,4.724,hard
1534.000,274.700,54.480,17.470,1330.000,264.900,60.980,15.870,97.490,20.780,6.427,2.257,175.600,44.080,12.720,4.727,hard
1533.000,275.300,57.140,17.460,1335.000,265.700,61.300,15.900,93.130,20.880,6.458,2.258,177.000,44.220,12.710,4.723,hard
1535.000,275.600,56.970,17.590,1335.000,265.700,61.390,15.980,98.440,20.950,6.562,2.250,177.200,44.260,12.940,4.773,hard
1535.000,277.000,56.060,17.600,1334.000,266.100,61.490,15.970,92.420,21.370,6.536,2.268,177.000,44.540,13.010,4.767,hard
1531.000,276.000,56.380,17.510,1327.000,265.100,60.950,15.850,94.660,21.000,6.473,2.280,177.200,44.750,12.800,4.788,hard
1526.000,272.700,53.990,17.490,1329.000,264.000,61.800,15.940,94.070,21.020,6.640,2.281,175.900,44.540,12.820,4.767,hard
1519.000,273.700,54.390,17.590,1323.000,264.600,61.400,15.990,93.960,21.270,6.557,2.286,178.200,44.730,12.970,4.770,hard
1516.000,273.200,55.160,17.660,1323.000,263.000,61.670,15.980,93.860,21.290,6.570,2.261,177.700,45.150,13.090,4.788,hard
1515.000,273.200,54.840,17.590,1324.000,263.800,60.850,16.020,95.910,21.510,6.503,2.301,176.900,45.280,13.050,4.838,hard
1517.000,274.800,54.120,17.600,1324.000,264.000,61.610,16.020,97.450,21.480,6.640,2.277,177.700,45.470,13.040,4.824,hard
1519.000,274.500,55.310,17.730,1324.000,264.800,61.660,16.100,97.890,21.360,6.521,2.288,177.700,45.500,13.180,4.821,hard
1521.000,275.900,56.190,17.690,1326.000,264.400,61.840,16.070,95.390,21.500,6.600,2.312,180.200,45.390,13.040,4.847,hard
1522.000,275.900,56.350,17.810,1329.000,264.700,61.260,16.050,98.600,21.370,6.647,2.315,179.300,45.350,13.110,4.816,hard
1520.000,274.700,55.600,17.540,1323.000,264.800,60.910,15.930,97.020,21.620,6.658,2.305,178.000,45.070,13.060,4.804,hard
1516.000,273.400,55.660,17.480,1329.000,263.900,60.910,15.920,98.370,21.660,6.630,2.313,176.700,45.060,13.070,4.774,hard
1513.000,273.200,54.970,17.550,1326.000,263.700,61.240,15.880,99.280,21.460,6.639,2.304,180.200,44.980,13.130,4.796,hard
1513.000,272.700,55.260,17.490,1324.000,263.700,61.330,15.930,96.630,21.390,6.668,2.280,178.400,45.330,13.190,4.721,hard
1512.000,273.500,55.190,17.580,1328.000,263.700,61.220,15.900,95.540,21.680,6.510,2.315,177.700,45.240,13.010,4.763,hard
1513.000,272.300,56.390,17.580,1321.000,263.900,61.010,15.930,99.410,21.420,6.735,2.307,179.300,45.730,13.170,4.775,hard
1514.000,274.900,55.280,17.610,1328.000,263.700,60.470,15.930,95.480,21.670,6.620,2.306,179.500,45.670,13.150,4.834,hard
1516.000,275.300,54.790,17.680,1326.000,264.500,61.330,15.950,95.430,21.330,6.543,2.314,179.300,45.740,13.210,4.839,hard
1517.000,276.100,55.550,17.620,1323.000,264.000,60.710,15.930,99.750,21.970,6.661,2.312,179.600,45.800,13.090,4.776,hard
1508.000,271.200,53.960,17.490,1319.000,262.300,60.130,15.870,98.980,21.480,6.641,2.327,177.700,45.530,13.020,4.803,hard
1505.000,271.600,54.920,17.430,1316.000,262.500,61.140,15.890,96.420,21.790,6.528,2.320,178.400,45.370,13.140,4.775,hard
1502.000,271.600,55.570,17.460,1320.000,262.700,60.520,15.860,97.130,21.720,6.641,2.304,178.000,45.360,12.940,4.831,hard
1504.000,272.200,55.340,17.480,1321.000,263.300,60.320,15.870,98.700,21.640,6.617,2.302,177.900,45.390,13.250,4.744,hard
1511.000,271.900,54.250,17.520,1318.000,263.200,59.580,15.840,102.200,21.730,6.503,2.290,177.400,44.880,12.990,4.788,hard
1515.000,272.200,55.010,17.470,1328.000,264.100,59.920,15.850,98.320,21.150,6.594,2.265,176.900,44.810,12.900,4.799,hard
1517.000,273.500,54.590,17.490,1330.000,264.800,60.300,15.850,97.100,21.230,6.520,2.284,178.100,44.410,12.880,4.835,hard
1520.000,274.300,53.380,17.610,1328.000,264.900,60.070,15.770,94.730,21.340,6.483,2.276,177.300,44.670,12.820,4.760,hard
1514.000,272.700,52.990,17.310,1322.000,263.100,58.910,15.720,95.380,21.080,6.450,2.271,177.400,44.480,12.610,4.757,hard
1512.000,272.900,53.840,17.300,1329.000,262.600,59.370,15.690,96.690,21.240,6.474,2.271,177.700,44.200,12.830,4.739,hard
1510.000,272.900,52.930,17.280,1325.000,263.900,59.040,15.650,92.930,20.860,6.372,2.296,175.400,43.780,12.590,4.691,hard
1511.000,272.100,53.510,17.260,1327.000,263.200,58.840,15.660,95.240,20.710,6.498,2.252,176.900,44.120,12.770,4.652,hard
1511.000,273.000,53.210,17.220,1330.000,263.300,58.790,15.790,95.010,20.910,6.564,2.253,176.800,44.250,12.780,4.760,hard
1512.000,272.100,53.840,17.320,1328.000,263.200,58.420,15.720,96.100,20.770,6.465,2.266,178.300,44.060,12.800,4.794,hard
1514.000,271.500,53.830,17.420,1329.000,263.800,58.360,15.770,97.830,21.040,6.367,2.260,175.200,44.410,12.740,4.765,hard
1517.000,273.200,53.530,17.480,1330.000,263.700,57.900,15.750,94.400,21.180,6.409,2.265,180.200,44.120,12.990,4.745,hard
1512.000,271.800,52.030,17.240,1324.000,262.900,57.580,15.640,97.350,20.340,6.389,2.267,177.800,44.480,12.730,4.695,hard
1507.000,271.500,52.390,17.180,1318.000,262.900,57.260,15.670,95.770,21.070,6.439,2.233,176.000,44.290,12.820,4.713,hard
1505.000,269.400,52.080,17.230,1321.000,261.800,57.090,15.650,95.410,20.860,6.392,2.240,177.200,44.410,12.810,4.689,hard
1501.000,268.400,51.230,17.220,1321.000,262.200,57.050,15.690,96.520,20.870,6.466,2.252,178.200,44.560,12.750,4.746,hard
1499.000,269.100,51.680,17.320,1314.000,260.200,56.480,15.760,99.580,20.840,6.456,2.266,178.400,44.810,12.740,4.732,hard
1489.000,266.700,50.560,17.380,1304.000,258.000,55.650,15.860,98.620,21.060,6.427,2.239,180.500,45.000,12.710,4.733,hard
1471.000,267.000,53.310,18.420,1319.000,262.800,59.040,17.320,102.100,21.340,6.542,2.208,181.500,45.050,12.820,4.742,hard
1470.000,283.100,57.970,20.270,1326.000,271.300,60.500,18.150,104.200,21.890,6.490,2.253,183.000,45.790,12.990,4.793,hard
1404.000,283.000,59.910,20.370,1299.000,269.500,59.400,18.140,99.880,21.770,6.563,2.225,182.300,46.700,13.070,4.755,hard
1347.000,279.700,58.770,20.580,1282.000,269.800,60.270,18.410,100.500,22.150,6.552,2.260,182.900,47.320,13.290,4.750,hard
1321.000,282.700,61.770,21.150,1268.000,274.200,61.890,18.970,101.600,22.010,6.608,2.227,183.600,47.370,13.100,4.739,hard
1309.000,291.500,63.380,21.540,1262.000,276.900,63.160,19.060,100.400,22.460,6.533,2.249,183.400,47.460,13.350,4.797,hard
1305.000,293.000,65.020,21.800,1253.000,277.600,63.980,19.360,97.700,22.480,6.716,2.243,182.500,48.340,13.320,4.789,hard
1310.000,301.400,68.460,22.740,1259.000,284.500,67.720,19.890,99.090,22.540,6.697,2.245,182.900,48.900,13.580,4.887,hard
1335.000,311.600,69.600,23.120,1271.000,287.800,68.120,19.960,97.840,22.530,6.790,2.279,184.100,48.770,13.820,4.956,hard
1356.000,314.800,70.800,23.410,1279.000,291.000,69.020,20.060,97.140,22.570,6.883,2.299,183.400,48.920,13.860,4.950,hard
1338.000,309.200,68.670,22.800,1264.000,284.700,67.280,19.710,95.450,22.410,6.825,2.280,182.800,48.370,13.580,4.958,hard
1307.000,302.400,67.100,22.480,1261.000,285.200,67.300,19.620,97.950,22.490,6.701,2.296,180.000,48.110,13.360,4.856,hard
1315.000,304.000,68.870,22.390,1266.000,286.400,67.810,19.640,95.920,22.380,6.657,2.275,180.100,47.530,13.340,4.924,hard
1327.000,305.500,69.780,22.360,1275.000,286.900,68.040,19.660,93.110,22.130,6.664,2.279,178.100,47.810,13.320,4.925,hard
1331.000,305.600,68.120,22.390,1279.000,288.600,68.150,19.730,91.630,22.000,6.705,2.276,176.800,47.340,13.300,4.879,hard
1343.000,307.700,69.290,22.530,1281.000,289.400,68.280,19.820,85.220,21.660,6.597,2.284,178.100,47.190,13.380,4.889,hard
1353.000,309.300,69.530,22.720,1287.000,291.700,69.120,20.000,89.380,21.640,6.659,2.245,178.500,47.130,13.390,4.871,hard
1364.000,313.500,71.010,22.710,1283.000,291.300,69.180,19.980,89.510,21.990,6.611,2.249,176.600,47.430,13.270,4.939,hard
1342.000,304.100,67.360,22.180,1269.000,284.600,66.320,19.610,86.030,21.830,6.543,2.246,176.800,46.960,13.300,4.841,hard
1320.000,298.900,67.070,21.940,1269.000,284.300,66.340,19.510,88.090,21.450,6.561,2.241,176.900,46.840,13.090,4.837,hard
1321.000,298.200,66.550,21.840,1265.000,282.400,66.310,19.390,88.220,21.780,6.549,2.235,176.000,46.470,13.150,4.913,hard
1327.000,297.900,64.240,21.700,1269.000,279.700,64.190,18.800,86.720,21.800,6.460,2.245,175.300,46.380,13.110,4.786,hard
1357.000,286.600,60.150,20.500,1304.000,270.700,60.130,18.040,87.360,21.430,6.530,2.220,174.500,45.490,12.770,4.794,hard
1437.000,282.600,57.740,19.880,1326.000,267.700,58.240,17.220,89.190,21.480,6.349,2.195,173.500,45.510,12.760,4.704,hard
1512.000,282.100,55.660,18.920,1344.000,269.000,56.830,16.680,90.570,21.470,6.346,2.188,174.200,45.860,12.790,4.584,hard
1540.000,282.800,55.560,18.330,1346.000,268.900,56.630,16.450,94.540,21.370,6.431,2.199,173.700,45.760,12.740,4.728,hard
1551.000,283.900,56.170,18.050,1343.000,268.800,57.470,16.100,97.710,21.980,6.529,2.251,177.000,46.260,13.240,4.804,hard
1539.000,277.600,54.490,17.630,1334.000,266.400,57.710,16.140,98.160,21.950,6.538,2.290,178.800,45.720,13.060,4.822,hard
1533.000,278.400,54.720,17.630,1333.000,267.300,58.030,16.190,100.400,21.190,6.531,2.259,176.100,44.500,13.020,4.824,hard
1537.000,279.500,54.610,17.890,1339.000,269.000,58.770,16.300,96.520,20.920,6.470,2.257,176.400,43.700,12.900,4.774,hard
1539.000,282.400,55.280,18.040,1341.000,269.300,59.990,16.350,98.390,20.780,6.381,2.241,174.200,43.400,12.730,4.725,hard
1540.000,281.400,56.220,18.040,1335.000,268.900,59.960,16.420,99.900,20.430,6.425,2.236,172.500,43.120,12.680,4.768,hard
1542.000,283.300,56.240,18.210,1342.000,271.100,59.840,16.540,92.590,20.380,6.316,2.218,173.600,42.780,12.720,4.746,hard
1551.000,287.600,58.290,18.630,1347.000,272.800,61.820,16.680,97.520,20.040,6.313,2.221,172.200,43.220,12.650,4.759,hard
1561.000,290.900,57.800,18.480,1343.000,270.000,59.670,16.300,97.470,20.660,6.289,2.217,173.800,42.580,12.570,4.699,hard
1541.000,281.100,54.880,17.850,1340.000,267.900,58.580,16.070,92.690,20.620,6.264,2.207,170.600,42.470,12.330,4.646,hard
1538.000,279.500,56.680,17.790,1340.000,267.500,58.110,16.110,96.600,20.100,6.150,2.195,173.600,42.780,12.530,4.599,hard
1536.000,280.000,55.680,17.840,1344.000,267.000,58.430,16.070,102.700,20.120,6.175,2.198,173.400,42.970,12.400,4.572,hard
1536.000,281.000,56.220,17.740,1338.000,266.700,58.570,16.070,99.270,20.330,6.212,2.176,174.500,42.760,12.310,4.600,hard
1536.000,279.800,56.310,17.730,1339.000,266.700,57.910,16.000,97.650,20.240,6.272,2.184,175.500,43.610,12.430,4.629,hard
1542.000,281.500,56.720,17.640,1338.000,268.500,57.830,15.980,96.210,20.640,6.265,2.204,174.300,43.240,12.740,4.659,hard
1556.000,285.100,56.880,17.840,1343.000,269.800,59.600,16.190,94.480,20.570,6.351,2.207,174.600,43.340,12.760,4.760,hard
1562.000,283.500,57.000,17.660,1354.000,269.700,57.860,16.110,94.980,20.580,6.362,2.243,174.200,42.950,12.580,4.717,hard
1546.000,279.100,53.220,17.350,1341.000,268.100,58.040,16.010,88.940,20.660,6.316,2.252,173.800,42.760,12.480,4.655,hard
1540.000,279.500,53.020,17.290,1342.000,266.900,57.890,16.020,89.780,20.360,6.248,2.223,172.300,42.650,12.240,4.680,hard
1536.000,277.500,53.290,17.360,1339.000,266.600,58.400,16.020,87.600,20.240,6.304,2.219,171.500,42.360,12.400,4.661,hard
1534.000,278.500,54.040,17.250,1341.000,266.700,58.130,15.980,90.150,20.400,6.377,2.231,173.300,42.440,12.440,4.651,hard
1530.000,277.500,54.130,17.240,1336.000,265.500,58.630,16.000,91.020,20.310,6.251,2.217,173.100,42.550,12.360,4.665,hard
1529.000,277.000,55.080,17.390,1334.000,264.200,57.960,16.090,87.960,20.290,6.285,2.201,172.800,42.390,12.330,4.654,hard
1513.000,275.000,54.900,18.060,1305.000,261.000,59.800,17.000,87.570,20.460,6.399,2.177,176.500,44.460,12.910,4.767,hard
1440.000,270.400,57.980,18.630,1289.000,257.500,60.350,17.120,96.340,21.540,6.674,2.280,180.400,45.020,13.130,4.743,hard
1403.000,269.300,58.600,18.680,1275.000,257.000,59.540,16.970,98.970,21.020,6.844,2.297,180.100,44.760,13.020,4.768,hard
1391.000,266.600,56.260,18.560,1279.000,254.800,60.270,16.850,98.430,21.310,6.600,2.245,180.500,44.840,12.980,4.687,hard
1400.000,267.300,58.400,18.510,1279.000,255.300,60.440,16.810,97.370,21.310,6.721,2.259,179.600,44.810,12.940,4.712,hard
1403.000,267.100,56.500,18.450,1277.000,255.500,59.410,16.700,96.110,20.980,6.525,2.272,176.900,44.560,12.880,4.706,hard
1412.000,268.900,57.240,18.480,1278.000,255.900,59.720,16.690,97.560,21.410,6.630,2.261,176.600,45.220,13.160,4.673,hard
1420.000,269.900,57.370,18.570,1286.000,257.000,59.210,16.650,97.420,21.530,6.649,2.243,176.300,45.560,13.000,4.824,hard
1435.000,272.500,55.560,18.330,1285.000,253.600,58.450,16.300,95.380,21.750,6.510,2.267,176.500,45.400,13.030,4.695,hard
1415.000,261.500,55.750,17.540,1277.000,251.400,57.680,16.150,94.470,21.890,6.470,2.235,174.500,45.290,12.850,4.694,hard
1411.000,261.500,54.920,17.450,1275.000,251.000,56.910,16.020,102.200,21.540,6.483,2.256,173.800,45.310,12.800,4.640,hard
1415.000,260.800,54.490,17.490,1280.000,251.600,56.970,15.990,90.850,21.520,6.537,2.229,172.900,45.650,12.690,4.754,hard
1418.000,261.100,54.030,17.380,1276.000,251.100,57.190,15.930,101.800,22.190,6.537,2.241,173.000,45.720,12.920,4.667,hard
1421.000,261.500,54.630,17.400,1279.000,250.500,56.590,15.920,97.750,21.740,6.503,2.244,173.200,45.950,12.970,4.710,hard
1427.000,262.400,54.330,17.580,1279.000,251.700,57.510,16.000,95.260,22.170,6.490,2.258,173.100,45.740,12.920,4.687,hard
1433.000,264.300,55.940,17.630,1282.000,252.500,57.330,15.990,96.690,22.150,6.572,2.230,172.900,45.870,12.980,4.692,hard
1430.000,261.900,52.970,17.140,1278.000,249.500,55.700,15.720,97.620,21.880,6.482,2.244,174.000,45.730,12.730,4.640,hard
1419.000,258.000,52.790,17.030,1273.000,249.500,56.180,15.640,98.400,21.680,6.524,2.206,172.800,45.530,12.500,4.634,hard
1421.000,259.900,53.510,16.940,1273.000,249.900,56.570,15.670,98.340,21.950,6.456,2.202,172.200,44.950,12.610,4.605,hard
1424.000,259.500,51.660,17.000,1274.000,249.500,56.520,15.630,94.970,21.860,6.326,2.236,172.300,44.200,12.550,4.611,hard
1425.000,260.200,52.840,17.050,1277.000,250.200,55.880,15.590,95.500,21.540,6.443,2.225,172.100,44.420,12.560,4.609,hard
1429.000,259.800,52.630,17.080,1277.000,250.500,56.210,15.620,95.770,21.480,6.409,2.200,171.300,44.530,12.550,4.644,hard
1437.000,263.400,53.330,17.120,1284.000,251.700,56.460,15.600,97.530,21.490,6.406,2.223,171.500,44.000,12.640,4.664,hard
1445.000,264.700,53.150,17.190,1283.000,252.000,55.900,15.420,94.880,21.200,6.425,2.223,171.600,43.730,12.450,4.574,hard
1437.000,260.700,52.600,16.700,1281.000,250.900,54.810,15.370,98.150,21.470,6.318,2.207,170.700,43.370,12.200,4.484,hard
1438.000,259.700,52.100,16.610,1281.000,250.800,55.340,15.340,95.620,21.220,6.338,2.200,170.000,42.570,12.310,4.525,hard
1441.000,259.400,53.080,16.690,1285.000,251.500,55.040,15.350,93.130,20.610,6.313,2.199,170.300,42.970,12.330,4.499,hard
1445.000,261.400,52.740,16.670,1276.000,251.900,55.100,15.230,93.470,20.860,6.241,2.208,170.500,42.550,12.280,4.554,hard
1446.000,261.300,51.410,16.680,1281.000,251.800,55.070,15.290,96.830,20.890,6.231,2.190,170.500,42.480,12.110,4.561,hard
1450.000,261.800,51.860,16.750,1287.000,251.900,55.360,15.270,93.610,20.670,6.363,2.172,170.200,42.650,12.160,4.551,hard
1456.000,264.400,51.890,16.930,1285.000,252.400,55.250,15.210,90.070,20.720,6.287,2.196,171.400,42.940,12.330,4.527,hard
1453.000,262.400,50.730,16.510,1281.000,250.800,55.040,15.090,96.390,20.440,6.327,2.189,169.400,42.320,12.030,4.454,hard
1450.000,261.700,51.270,16.410,1283.000,251.200,54.590,15.080,93.840,20.660,6.367,2.178,170.000,42.310,12.070,4.475,hard
1450.000,260.600,51.370,16.390,1280.000,251.400,53.630,15.040,96.050,20.600,6.287,2.207,169.200,42.090,11.960,4.454,hard
1453.000,261.100,52.190,16.390,1288.000,251.300,54.730,15.020,93.410,20.180,6.300,2.197,169.400,41.930,12.060,4.475,hard
1453.000,262.600,51.820,16.460,1284.000,252.100,53.630,15.040,93.770,20.360,6.214,2.178,168.800,41.940,12.040,4.460,hard
1457.000,262.500,51.620,16.490,1286.000,252.100,54.170,15.070,97.570,20.760,6.108,2.174,168.100,42.240,12.050,4.467,hard
1462.000,263.600,51.780,16.570,1288.000,253.300,54.250,15.090,95.160,20.520,6.305,2.188,169.600,41.980,11.960,4.476,hard
1465.000,263.300,52.180,16.440,1287.000,252.600,53.890,14.940,95.620,20.610,6.364,2.188,169.800,41.840,11.870,4.435,hard
1455.000,260.400,50.310,16.360,1281.000,251.200,54.340,14.930,92.300,20.610,6.216,2.190,168.900,41.700,11.790,4.393,hard
1454.000,261.000,51.090,16.350,1282.000,251.100,53.820,14.910,96.960,20.340,6.256,2.160,167.900,41.530,11.720,4.384,hard
1456.000,260.200,50.720,16.290,1280.000,251.100,53.410,15.000,94.960,20.160,6.253,2.189,167.800,40.940,11.840,4.406,hard
1454.000,260.900,49.970,16.320,1284.000,251.500,54.440,14.890,92.570,20.750,6.269,2.195,168.000,41.730,11.880,4.410,hard
1457.000,261.900,50.620,16.350,1287.000,250.400,54.500,14.910,96.510,21.140,6.215,2.176,168.900,41.600,11.960,4.432,hard
1459.000,263.600,51.910,16.440,1285.000,251.800,53.820,14.940,94.000,20.330,6.204,2.161,168.100,41.570,11.850,4.462,hard
1463.000,263.800,51.680,16.480,1284.000,252.700,54.320,14.930,91.650,20.850,6.222,2.195,168.500,41.390,11.930,4.441,hard
1457.000,263.000,50.700,16.170,1283.000,251.500,53.780,14.860,97.540,20.330,6.261,2.199,166.400,41.020,11.860,4.347,hard
1453.000,261.400,51.750,16.140,1281.000,251.300,54.510,14.850,92.530,20.280,6.228,2.178,167.100,41.090,11.760,4.399,hard
1453.000,261.300,50.920,16.230,1283.000,251.700,53.940,14.870,92.340,20.710,6.193,2.186,166.900,41.070,11.760,4.350,hard
1453.000,259.800,51.310,16.190,1286.000,251.400,54.010,14.850,96.640,20.100,6.193,2.191,166.700,40.730,11.670,4.379,hard
1454.000,261.600,51.750,16.270,1281.000,251.600,54.090,14.850,97.550,20.410,6.269,2.190,167.300,41.150,11.810,4.385,hard
1456.000,262.300,51.110,16.220,1283.000,251.500,54.270,14.870,92.740,20.290,6.273,2.204,167.700,41.410,11.840,4.433,hard
1460.000,261.900,52.680,16.310,1289.000,253.000,54.840,14.780,95.670,20.860,6.352,2.204,167.300,41.390,11.820,4.392,hard
1462.000,264.300,51.660,16.190,1284.000,252.100,54.270,14.690,91.460,20.560,6.320,2.230,166.500,40.950,11.850,4.418,hard
1455.000,261.200,51.350,16.060,1291.000,251.700,55.240,14.760,92.070,20.430,6.284,2.203,167.300,40.590,11.790,4.395,hard
1455.000,260.500,50.570,16.060,1290.000,251.400,54.450,14.810,90.820,20.310,6.299,2.209,165.900,40.670,11.750,4.417,hard
1455.000,261.600,51.220,16.050,1280.000,251.900,54.700,14.820,91.660,20.630,6.274,2.209,166.300,40.730,11.770,4.389,hard
1456.000,262.200,51.280,16.080,1289.000,252.000,55.240,14.780,95.450,20.340,6.236,2.221,165.900,40.950,11.770,4.347,hard
1454.000,261.300,51.840,16.090,1286.000,251.100,53.920,14.920,95.880,20.640,6.301,2.206,167.500,41.120,11.770,4.352,hard
1438.000,258.900,51.540,16.430,1273.000,249.100,54.440,15.190,95.620,20.740,6.267,2.183,168.000,42.440,12.100,4.444,hard
1432.000,258.400,53.350,16.660,1269.000,249.300,54.060,15.160,98.520,21.050,6.435,2.213,170.000,43.220,12.330,4.485,hard
1434.000,258.200,50.630,16.430,1270.000,249.200,53.880,15.010,96.420,21.470,6.430,2.236,168.400,43.400,12.170,4.502,hard
1437.000,258.100,51.500,16.360,1279.000,250.000,53.660,14.990,97.190,21.580,6.436,2.214,169.400,42.860,12.180,4.480,hard
1441.000,259.300,50.560,16.350,1277.000,249.900,53.670,15.020,92.870,21.600,6.451,2.230,169.600,42.840,12.160,4.468,hard
1442.000,258.100,50.200,16.330,1275.000,250.300,53.090,14.940,97.430,21.180,6.394,2.226,170.400,42.460,12.110,4.458,hard
1442.000,256.700,50.050,16.310,1278.000,249.300,53.560,14.890,95.830,20.840,6.428,2.213,168.400,41.960,12.150,4.442,hard
1445.000,259.200,50.540,16.380,1279.000,250.500,53.550,14.890,98.060,21.100,6.360,2.241,170.400,42.690,12.050,4.431,hard
1448.000,259.100,50.270,16.400,1279.000,250.600,53.830,14.940,95.260,20.830,6.386,2.232,170.500,42.390,12.260,4.520,hard
1449.000,259.900,51.990,16.220,1277.000,250.300,53.100,14.850,96.330,21.170,6.447,2.257,169.300,41.910,11.930,4.489,hard
1440.000,258.400,50.470,16.140,1278.000,249.500,53.210,14.830,98.290,20.890,6.388,2.237,169.500,42.200,11.980,4.431,hard
1441.000,258.100,50.040,16.130,1277.000,249.400,53.010,14.790,98.840,21.120,6.440,2.219,168.400,41.850,12.020,4.446,hard
1443.000,257.700,51.030,16.180,1277.000,249.400,52.580,14.820,96.180,20.850,6.305,2.205,168.100,42.390,12.100,4.459,hard
1443.000,257.500,50.830,16.110,1277.000,249.500,52.840,14.820,101.000,20.850,6.410,2.260,170.700,41.940,11.940,4.473,hard
1444.000,257.600,49.410,16.130,1278.000,250.600,53.000,14.820,93.140,20.850,6.385,2.247,171.000,42.140,11.920,4.365,hard
1447.000,259.100,50.550,16.280,1282.000,250.300,52.560,14.890,98.570,20.820,6.473,2.246,169.700,42.380,12.210,4.497,hard
1449.000,259.600,49.450,16.390,1281.000,250.600,52.960,14.860,95.620,21.010,6.439,2.222,171.200,42.100,12.030,4.460,hard
1447.000,258.300,49.810,16.170,1278.000,249.300,52.670,14.770,94.980,21.200,6.429,2.261,169.100,41.820,12.060,4.456,hard
1442.000,258.200,49.200,16.070,1278.000,249.800,52.770,14.820,96.530,20.930,6.358,2.210,168.000,41.800,11.890,4.444,hard
1442.000,257.200,50.320,16.190,1282.000,249.700,52.790,14.880,98.150,20.940,6.397,2.234,167.500,42.140,11.830,4.335,hard
1445.000,257.800,49.530,16.240,1279.000,249.700,53.470,14.920,96.290,21.110,6.264,2.202,171.000,42.140,11.910,4.383,hard
1446.000,258.100,49.760,16.240,1285.000,249.900,53.130,14.920,97.780,20.820,6.350,2.198,170.200,42.440,11.860,4.424,hard
1447.000,258.800,50.000,16.330,1285.000,249.100,52.460,14.960,98.200,20.670,6.303,2.198,169.900,42.280,11.940,4.268,hard
1447.000,259.600,50.650,16.390,1282.000,248.600,52.570,14.970,96.230,21.100,6.265,2.158,170.200,43.030,11.810,4.319,hard
1448.000,260.400,50.910,16.360,1271.000,248.200,52.030,14.900,97.980,21.120,6.310,2.160,168.500,42.830,11.950,4.289,hard
1435.000,255.600,50.190,16.170,1264.000,246.300,52.200,14.850,96.270,21.460,6.316,2.191,170.000,43.260,11.850,4.326,hard
1428.000,254.000,51.220,16.270,1264.000,246.400,52.940,15.040,98.240,21.530,6.333,2.201,170.100,43.010,12.120,4.439,hard
1428.000,256.700,51.500,16.520,1266.000,247.600,53.090,15.270,97.460,20.940,6.452,2.214,165.800,41.250,11.850,4.387,hard
1428.000,256.700,51.260,16.780,1269.000,250.000,53.790,15.510,98.390,20.240,6.385,2.214,161.900,39.960,11.910,4.441,hard
1434.000,260.000,52.120,17.080,1273.000,252.500,55.170,15.630,100.300,19.930,6.447,2.203,161.000,38.950,11.840,4.422,hard
1437.000,261.800,52.450,17.190,1278.000,253.200,54.730,15.740,91.460,19.380,6.295,2.202,159.100,38.530,11.630,4.388,hard
1443.000,262.900,52.720,17.240,1284.000,254.600,55.400,15.740,93.940,19.000,6.178,2.176,157.700,38.060,11.640,4.379,hard
1443.000,262.200,51.900,17.050,1276.000,253.100,55.540,15.580,93.420,19.370,6.230,2.181,158.300,38.000,11.450,4.248,hard
1434.000,260.200,52.720,16.900,1273.000,252.100,53.770,15.410,91.880,19.110,6.138,2.169,156.800,37.670,11.430,4.286,hard
1433.000,259.600,51.080,16.520,1273.000,248.800,52.320,14.830,93.020,18.750,6.138,2.155,155.500,37.060,11.260,4.197,hard
1433.000,254.800,50.310,15.870,1275.000,248.400,51.700,14.490,94.560,18.700,6.040,2.149,159.400,37.570,11.200,4.223,hard
1445.000,257.700,49.120,15.590,1276.000,250.800,51.180,14.500,87.790,19.440,6.094,2.143,160.000,38.420,11.190,4.244,hard
1452.000,257.200,48.890,15.630,1282.000,250.700,51.230,14.620,86.430,19.750,6.229,2.202,164.300,38.890,11.370,4.325,hard
1453.000,259.400,48.100,15.860,1285.000,250.100,50.960,14.680,86.720,19.600,6.321,2.212,163.400,39.360,11.330,4.256,hard
1453.000,258.700,47.280,16.020,1275.000,250.500,51.730,14.670,88.630,19.980,6.210,2.226,165.200,39.250,11.510,4.312,hard
1442.000,257.100,47.260,15.840,1276.000,249.500,50.640,14.720,88.780,19.240,6.195,2.184,163.400,39.270,11.370,4.255,hard
1442.000,257.700,47.550,15.890,1278.000,249.400,51.780,14.790,86.470,19.700,6.223,2.213,165.000,39.150,11.310,4.294,hard
1443.000,256.500,48.290,16.040,1275.000,249.300,51.920,14.890,87.130,19.770,6.163,2.217,163.300,39.270,11.490,4.198,hard
1437.000,257.300,48.550,16.110,1268.000,246.700,52.150,15.060,90.990,20.430,6.237,2.160,165.700,40.670,11.800,4.292,hard
1406.000,253.700,49.600,16.600,1257.000,245.100,53.290,15.330,92.390,21.130,6.636,2.236,171.900,42.290,11.970,4.392,hard
1399.000,252.300,50.640,16.720,1259.000,245.000,53.400,15.320,98.890,21.480,6.530,2.241,172.000,42.710,12.160,4.349,hard
1411.000,254.700,50.940,16.870,1261.000,247.100,53.490,15.390,96.340,21.040,6.475,2.223,170.600,42.870,12.190,4.391,hard
1412.000,254.100,51.650,16.600,1263.000,246.100,53.350,15.300,99.290,21.740,6.542,2.232,169.100,43.410,12.110,4.373,hard
1410.000,252.300,50.760,16.500,1267.000,245.800,53.370,15.240,94.830,22.090,6.582,2.278,169.100,44.250,12.390,4.392,hard
1409.000,251.900,51.260,16.500,1262.000,246.000,53.280,15.290,96.680,22.120,6.586,2.265,171.100,43.990,12.320,4.477,hard
1410.000,251.400,50.840,16.510,1264.000,245.900,53.070,15.230,96.220,22.280,6.667,2.276,169.800,44.210,12.270,4.415,hard
1409.000,252.500,51.150,16.530,1265.000,246.400,53.500,15.300,96.550,22.270,6.564,2.262,170.700,44.980,12.330,4.390,hard
1412.000,253.300,49.880,16.540,1265.000,246.500,52.760,15.300,99.070,22.540,6.581,2.286,169.400,44.320,12.370,4.454,hard
1415.000,253.800,50.210,16.630,1267.000,247.200,53.570,15.320,94.030,22.420,6.570,2.288,169.400,44.420,12.380,4.446,hard
1420.000,254.800,50.630,16.620,1269.000,246.700,53.710,15.130,96.290,22.040,6.654,2.315,169.300,44.500,12.480,4.422,hard
1411.000,251.300,49.180,16.300,1260.000,245.500,52.690,15.050,100.100,22.330,6.652,2.284,168.500,43.780,12.220,4.389,hard
1403.000,251.300,48.810,16.160,1261.000,244.800,51.990,14.990,96.860,22.020,6.518,2.251,167.600,44.070,12.200,4.351,hard
1405.000,249.200,49.690,16.180,1261.000,245.600,52.230,15.200,102.100,22.390,6.648,2.276,167.400,43.580,12.390,4.414,hard
1402.000,249.800,49.410,16.350,1256.000,245.000,51.080,15.270,99.500,22.270,6.701,2.276,168.500,43.650,12.270,4.440,hard
1399.000,250.000,50.370,16.280,1258.000,245.400,52.040,15.240,96.970,22.490,6.706,2.299,170.000,43.780,12.220,4.381,hard
1402.000,249.500,50.370,16.330,1264.000,245.800,51.810,15.200,100.500,22.160,6.644,2.282,168.000,44.000,12.290,4.443,hard
1406.000,252.700,48.800,16.350,1261.000,247.200,52.110,15.190,96.940,22.130,6.630,2.273,168.200,44.510,12.330,4.514,hard
1413.000,251.500,48.470,16.380,1268.000,247.500,52.390,15.170,97.440,22.850,6.718,2.327,169.300,44.290,12.510,4.453,hard
1407.000,250.100,49.410,15.980,1264.000,246.300,51.820,15.050,97.030,22.390,6.777,2.291,166.700,43.700,12.300,4.405,hard
1399.000,249.600,47.730,15.910,1258.000,245.000,51.440,14.990,102.000,22.290,6.637,2.279,166.600,43.280,12.150,4.440,hard
1397.000,248.200,47.310,15.930,1262.000,245.600,52.200,14.980,99.900,22.240,6.588,2.289,166.400,43.190,12.190,4.367,hard
1396.000,249.400,48.890,15.890,1266.000,245.400,52.360,14.980,98.570,22.360,6.637,2.270,165.800,43.010,12.040,4.365,hard
1394.000,248.700,47.120,15.820,1257.000,245.600,52.180,15.060,99.000,22.160,6.624,2.277,165.900,43.240,12.080,4.374,hard
1394.000,250.200,47.930,15.940,1261.000,246.800,52.300,15.150,95.790,22.090,6.546,2.280,166.100,43.100,12.190,4.387,hard
1396.000,248.800,48.610,15.980,1261.000,246.200,52.680,15.120,97.830,21.900,6.689,2.304,166.400,43.050,12.200,4.363,hard
1397.000,250.600,48.800,16.080,1264.000,247.000,52.520,15.090,94.260,21.910,6.736,2.283,167.400,42.950,12.100,4.423,hard
1396.000,249.000,49.130,15.790,1264.000,246.400,51.780,15.000,96.200,22.510,6.621,2.297,165.400,42.920,12.140,4.353,hard
1388.000,246.100,47.420,15.630,1265.000,245.400,52.040,14.970,94.760,22.100,6.576,2.263,163.900,42.740,12.010,4.339,hard
1386.000,248.100,47.420,15.650,1262.000,246.000,51.980,14.920,95.060,21.740,6.571,2.302,164.300,42.500,11.930,4.346,hard
1389.000,245.600,48.570,15.580,1262.000,246.300,51.440,14.860,94.210,21.770,6.569,2.273,164.500,41.830,11.800,4.341,hard
1396.000,246.700,47.380,15.440,1270.000,247.700,51.980,14.910,95.950,21.500,6.528,2.263,162.500,41.200,11.590,4.316,hard
1405.000,250.400,46.930,15.510,1272.000,248.400,51.900,14.880,94.840,21.460,6.390,2.253,162.500,40.570,11.490,4.317,hard
1408.000,251.600,46.540,15.600,1278.000,249.000,51.750,14.930,94.800,20.820,6.420,2.252,163.200,40.050,11.460,4.279,hard
1413.000,253.600,47.750,15.670,1274.000,250.400,52.120,14.920,91.460,21.060,6.462,2.280,164.600,40.180,11.570,4.300,hard
1412.000,252.900,47.750,15.430,1273.000,249.500,52.430,14.780,94.260,21.050,6.443,2.229,162.600,39.300,11.330,4.207,hard
1403.000,248.800,47.740,15.360,1269.000,248.200,51.950,14.830,93.270,20.620,6.388,2.236,160.900,39.580,11.390,4.244,hard
1401.000,249.300,45.480,15.400,1279.000,248.600,51.870,14.800,91.760,20.820,6.437,2.244,163.100,39.500,11.340,4.205,hard
1404.000,250.600,48.330,15.380,1276.000,249.300,51.800,14.820,98.470,21.060,6.285,2.263,161.000,39.440,11.250,4.283,hard
1402.000,250.900,48.070,15.450,1278.000,249.800,51.710,14.930,94.460,20.950,6.371,2.234,162.400,39.660,11.410,4.197,hard
1407.000,250.400,48.610,15.640,1272.000,248.700,52.860,15.130,93.030,20.930,6.299,2.220,162.300,40.360,11.440,4.197,hard
1400.000,249.900,48.940,16.050,1266.000,248.000,53.670,15.300,98.900,21.460,6.598,2.219,164.100,41.460,11.900,4.340,hard
1393.000,250.200,49.630,16.240,1264.000,248.000,53.040,15.300,98.590,21.540,6.622,2.240,166.900,42.010,11.910,4.354,hard
1387.000,248.500,47.650,15.890,1264.000,246.800,53.270,15.300,96.410,21.700,6.520,2.243,164.300,41.950,11.840,4.299,hard
1384.000,247.700,49.010,16.000,1258.000,246.500,53.830,15.270,97.920,21.740,6.570,2.277,165.300,42.190,12.070,4.299,hard
1387.000,248.900,48.220,16.120,1263.000,247.100,53.210,15.360,96.370,22.070,6.600,2.252,164.700,42.720,11.930,4.346,hard
1390.000,249.800,49.270,16.140,1268.000,248.000,53.820,15.410,97.450,21.850,6.507,2.272,163.700,42.710,11.930,4.375,hard
1391.000,249.200,48.780,16.180,1268.000,248.100,53.460,15.370,100.900,22.080,6.681,2.249,165.600,42.460,12.250,4.355,hard
1396.000,251.700,49.240,16.270,1270.000,249.700,54.500,15.470,97.280,22.370,6.623,2.289,165.400,43.070,12.060,4.438,hard
1405.000,253.500,49.830,16.380,1276.000,250.300,54.080,15.520,97.730,22.950,6.677,2.294,165.800,43.360,12.320,4.427,hard
1409.000,253.500,50.880,16.190,1275.000,249.600,53.540,15.360,98.910,23.040,6.611,2.297,166.400,43.600,12.140,4.461,hard
1401.000,251.900,49.190,16.120,1275.000,249.400,54.270,15.360,97.020,22.020,6.572,2.289,163.600,43.320,12.010,4.369,hard
1403.000,251.800,48.640,16.060,1273.000,249.000,53.680,15.350,101.300,22.370,6.617,2.278,164.400,42.730,12.030,4.386,hard
1406.000,252.500,49.950,16.190,1275.000,250.300,54.180,15.420,94.170,22.300,6.610,2.285,165.800,42.900,11.890,4.366,hard
1408.000,251.700,49.440,16.250,1279.000,250.300,54.520,15.410,96.040,22.510,6.639,2.241,165.900,42.690,12.010,4.399,hard
1412.000,253.000,49.970,16.270,1280.000,250.500,55.370,15.450,98.230,22.300,6.515,2.287,166.600,42.330,12.130,4.413,hard
1417.000,253.600,50.310,16.390,1283.000,251.500,54.650,15.560,100.500,22.050,6.691,2.262,165.900,42.760,12.130,4.422,hard
1422.000,256.500,49.810,16.440,1285.000,252.000,54.590,15.510,100.800,21.960,6.624,2.300,166.100,42.810,12.130,4.414,hard
1421.000,255.100,49.820,16.200,1284.000,251.300,54.750,15.450,100.800,22.540,6.583,2.276,163.500,42.610,12.010,4.402,hard
1418.000,253.500,50.030,16.210,1285.000,250.800,54.340,15.470,97.760,21.970,6.536,2.298,164.000,42.420,11.970,4.326,hard
1420.000,254.700,51.010,16.260,1278.000,252.000,54.670,15.520,97.430,22.200,6.574,2.284,164.300,42.580,11.910,4.375,hard
1421.000,254.200,51.710,16.310,1285.000,251.200,53.950,15.520,100.300,21.980,6.649,2.263,165.500,42.140,11.780,4.390,hard
1422.000,256.000,50.810,16.410,1289.000,251.900,53.720,15.510,102.400,21.890,6.619,2.296,165.700,42.430,12.020,4.444,hard
1427.000,256.900,50.170,16.440,1290.000,251.100,54.860,15.570,96.840,22.230,6.586,2.283,166.400,42.580,12.140,4.504,hard
1431.000,255.400,51.490,16.560,1291.000,253.000,54.040,15.630,100.900,21.950,6.509,2.283,166.300,42.410,12.180,4.443,hard
1435.000,258.700,50.840,16.590,1292.000,252.900,53.740,15.620,101.200,22.580,6.712,2.313,166.500,42.900,12.170,4.464,hard
1431.000,256.200,51.620,16.400,1289.000,251.600,54.150,15.480,99.830,22.170,6.626,2.284,165.700,42.440,12.060,4.382,hard
1432.000,255.300,50.660,16.420,1292.000,252.000,54.070,15.570,102.300,22.210,6.637,2.294,165.500,42.340,12.060,4.404,hard
1436.000,255.500,50.380,16.500,1293.000,252.200,54.400,15.540,94.890,22.080,6.585,2.313,165.600,42.430,11.970,4.408,hard
1440.000,256.600,50.840,16.560,1296.000,252.300,54.610,15.520,101.100,21.920,6.679,2.295,165.300,42.600,12.030,4.448,hard
1443.000,257.200,50.510,16.510,1293.000,252.500,53.800,15.510,99.490,22.080,6.717,2.321,165.800,42.820,11.970,4.419,hard
1444.000,258.200,50.500,16.600,1295.000,253.500,54.240,15.610,98.450,22.230,6.611,2.289,166.300,42.930,12.080,4.425,hard
1450.000,259.800,51.210,16.710,1298.000,254.100,54.810,15.680,100.600,22.120,6.634,2.308,167.200,43.190,12.080,4.441,hard
1450.000,258.200,52.470,16.580,1299.000,253.600,54.520,15.550,99.180,22.020,6.778,2.326,167.100,42.810,12.120,4.446,hard
1447.000,259.000,50.930,16.560,1295.000,253.200,54.210,15.550,96.320,22.010,6.573,2.299,166.500,42.680,11.990,4.422,hard
1448.000,257.900,51.540,16.510,1298.000,252.900,54.130,15.560,98.090,22.010,6.673,2.299,167.400,43.100,12.070,4.408,hard
1451.000,258.600,50.910,16.610,1297.000,253.400,54.260,15.540,100.500,22.230,6.593,2.303,166.500,43.260,12.060,4.436,hard
1452.000,260.100,52.200,16.580,1287.000,253.900,55.090,15.490,98.180,21.960,6.504,2.305,166.200,42.850,12.040,4.398,hard
1455.000,259.700,52.280,16.590,1299.000,253.800,54.170,15.550,98.900,22.460,6.769,2.314,168.000,43.360,12.160,4.501,hard
1457.000,261.200,50.430,16.700,1300.000,254.900,54.820,15.580,101.800,22.210,6.745,2.319,167.700,43.230,12.300,4.461,hard
1462.000,262.000,51.300,16.740,1303.000,254.600,54.950,15.560,97.280,22.160,6.614,2.321,168.500,43.120,12.080,4.466,hard
1457.000,259.200,50.060,16.570,1299.000,254.600,54.190,15.510,97.070,22.050,6.574,2.311,166.800,42.730,11.900,4.336,hard
1458.000,259.800,50.480,16.560,1299.000,253.900,54.830,15.530,97.590,21.980,6.624,2.319,168.400,42.350,12.050,4.445,hard
1460.000,261.200,51.200,16.610,1302.000,254.300,54.200,15.540,100.100,21.910,6.560,2.328,167.100,42.510,11.970,4.401,hard
1459.000,260.100,51.910,16.600,1299.000,253.700,54.010,15.550,100.800,21.890,6.539,2.295,167.600,42.620,11.970,4.396,hard
1461.000,260.100,52.210,16.630,1299.000,254.200,54.230,15.600,100.600,21.900,6.671,2.339,167.000,42.880,12.110,4.470,hard
1462.000,260.700,51.860,16.740,1303.000,255.300,54.930,15.650,97.760,22.010,6.572,2.301,168.300,42.810,12.020,4.413,hard
1466.000,260.700,52.140,16.780,1303.000,254.500,54.620,15.690,97.140,21.790,6.642,2.327,167.900,42.930,12.240,4.427,hard
1469.000,262.300,52.870,16.700,1301.000,254.300,54.770,15.510,97.950,22.050,6.652,2.305,166.200,42.550,11.960,4.453,hard
1462.000,260.100,52.150,16.580,1300.000,254.000,54.200,15.490,99.580,22.010,6.510,2.314,166.800,42.480,11.950,4.436,hard
1460.000,259.700,50.250,16.590,1296.000,253.600,53.960,15.510,98.170,21.860,6.576,2.328,166.900,42.390,11.920,4.450,hard
1461.000,259.200,50.150,16.660,1299.000,253.600,54.200,15.490,97.340,21.830,6.629,2.287,165.900,42.270,12.020,4.387,hard
1461.000,258.900,51.500,16.570,1301.000,254.000,54.130,15.500,96.020,22.090,6.603,2.306,166.900,42.240,11.930,4.379,hard
1460.000,260.800,50.780,16.630,1303.000,254.300,54.170,15.580,100.900,21.760,6.560,2.356,167.200,42.220,11.850,4.414,hard
1462.000,261.100,52.170,16.660,1302.000,253.600,54.460,15.550,102.000,21.890,6.624,2.314,167.500,42.340,12.180,4.403,hard
1464.000,261.200,51.630,16.630,1300.000,253.600,54.220,15.590,102.100,21.880,6.679,2.301,167.200,42.300,12.060,4.462,hard
1466.000,262.300,50.860,16.790,1298.000,254.100,54.430,15.590,99.200,21.730,6.608,2.325,166.400,42.680,11.980,4.435,hard
1461.000,260.300,51.160,16.430,1300.000,253.000,53.950,15.470,95.130,21.720,6.614,2.314,165.000,41.860,12.000,4.360,hard
1457.000,259.100,51.530,16.400,1297.000,252.600,53.970,15.460,101.400,21.500,6.518,2.300,164.200,42.050,11.880,4.408,hard
1455.000,257.900,51.610,16.390,1292.000,252.800,53.530,15.410,95.840,21.640,6.523,2.292,165.400,41.970,11.840,4.371,hard
1455.000,258.000,50.340,16.430,1296.000,252.500,54.300,15.480,93.260,21.440,6.606,2.317,165.500,41.630,11.840,4.369,hard
1454.000,259.600,51.320,16.420,1295.000,252.500,54.390,15.460,100.600,21.780,6.528,2.306,162.900,41.680,11.870,4.371,hard
1454.000,260.100,50.940,16.450,1296.000,253.100,54.120,15.490,99.180,21.590,6.527,2.327,166.200,42.280,11.960,4.386,hard
1456.000,260.400,51.560,16.510,1298.000,253.300,54.760,15.460,99.290,21.860,6.679,2.316,166.000,41.740,11.860,4.409,hard
1459.000,259.200,50.930,16.550,1298.000,253.500,54.450,15.500,98.350,21.720,6.589,2.322,166.000,41.990,11.980,4.388,hard
1460.000,261.000,51.140,16.610,1294.000,253.300,54.650,15.430,98.170,22.250,6.677,2.366,166.100,41.690,11.780,4.344,hard
1456.000,258.000,51.210,16.350,1296.000,251.800,53.580,15.410,100.700,21.680,6.666,2.338,164.700,41.860,11.780,4.352,hard
1451.000,259.400,49.950,16.390,1291.000,251.800,53.550,15.350,98.090,21.420,6.604,2.319,164.700,41.550,11.750,4.401,hard
1451.000,257.700,50.440,16.380,1292.000,252.500,54.030,15.370,97.990,21.430,6.552,2.300,165.400,41.240,11.750,4.379,hard
1451.000,257.200,50.530,16.320,1293.000,252.700,53.470,15.350,100.300,21.410,6.576,2.324,165.100,41.510,11.770,4.357,hard
1452.000,258.000,50.690,16.260,1291.000,252.300,53.760,15.320,97.800,21.900,6.603,2.311,164.700,41.520,11.780,4.302,hard
1451.000,257.600,51.610,16.370,1291.000,252.700,54.370,15.420,98.500,21.980,6.565,2.320,166.600,41.590,11.840,4.363,hard
1454.000,258.900,51.330,16.470,1291.000,253.400,53.570,15.420,98.830,21.470,6.563,2.335,165.500,41.700,12.010,4.416,hard
1457.000,259.700,50.330,16.530,1296.000,253.400,54.240,15.440,98.120,21.750,6.588,2.324,165.800,41.930,11.820,4.418,hard
1459.000,261.100,50.820,16.510,1294.000,253.300,54.220,15.360,100.900,21.950,6.618,2.316,164.300,41.420,11.790,4.286,hard
1453.000,258.600,49.310,16.250,1291.000,252.200,54.820,15.270,97.030,21.760,6.558,2.320,163.600,41.470,11.670,4.370,hard
1449.000,260.000,49.950,16.250,1291.000,252.600,54.040,15.300,98.130,21.880,6.604,2.340,163.500,41.020,11.880,4.293,hard
1448.000,256.400,50.410,16.240,1288.000,252.800,53.690,15.210,98.520,21.580,6.600,2.327,164.900,41.010,11.790,4.341,hard
1447.000,257.600,49.480,16.160,1288.000,251.600,53.100,15.160,98.740,21.580,6.552,2.322,165.400,41.070,11.830,4.329,hard
1448.000,258.400,49.820,16.250,1296.000,252.900,53.500,15.240,98.080,21.570,6.617,2.316,163.800,40.630,11.630,4.318,hard
1456.000,258.000,50.590,16.210,1295.000,253.500,53.450,15.200,95.730,21.310,6.537,2.303,164.100,40.490,11.650,4.299,hard
1457.000,260.600,51.440,16.270,1295.000,253.600,53.430,15.210,96.380,21.350,6.659,2.357,164.400,40.380,11.780,4.339,hard
1460.000,260.600,50.630,16.290,1288.000,253.500,53.220,15.220,98.250,21.180,6.525,2.335,164.100,40.570,11.660,4.266,hard
1454.000,258.500,50.850,16.110,1295.000,252.900,53.540,15.210,98.400,21.330,6.615,2.301,163.100,40.160,11.410,4.224,hard
1446.000,257.300,49.950,16.200,1283.000,251.000,53.970,15.380,97.050,21.630,6.534,2.272,163.700,41.220,11.700,4.243,hard
1431.000,256.300,49.660,16.360,1280.000,249.500,54.360,15.360,100.900,21.840,6.631,2.289,165.400,41.900,11.710,4.282,hard
1432.000,256.300,49.820,16.420,1285.000,250.600,53.870,15.330,99.520,22.340,6.700,2.309,163.800,42.230,12.040,4.271,hard
1437.000,255.500,49.350,16.400,1292.000,251.000,54.280,15.350,100.700,22.230,6.706,2.357,164.900,42.850,12.020,4.335,hard
1444.000,257.900,50.810,16.420,1292.000,251.800,54.640,15.380,98.600,22.270,6.755,2.352,166.300,42.970,12.100,4.378,hard
1445.000,259.300,51.890,16.540,1291.000,252.700,54.110,15.450,98.140,22.390,6.770,2.357,166.800,42.450,11.860,4.366,hard
1449.000,261.300,51.130,16.590,1295.000,252.500,54.310,15.370,96.790,22.430,6.670,2.341,165.700,42.920,12.070,4.390,hard
1447.000,258.000,51.680,16.260,1294.000,252.600,54.430,15.300,98.300,22.140,6.756,2.334,165.900,42.540,12.030,4.374,hard
1443.000,257.800,49.760,16.240,1288.000,251.700,54.650,15.280,99.360,22.000,6.713,2.337,164.600,42.140,11.820,4.314,hard
1443.000,257.300,49.890,16.260,1290.000,252.100,54.500,15.270,95.630,21.970,6.758,2.357,166.500,41.990,11.790,4.323,hard
1445.000,256.600,51.060,16.230,1290.000,252.000,53.810,15.250,97.330,22.250,6.757,2.335,165.100,41.590,11.700,4.336,hard
1444.000,259.000,49.320,16.240,1291.000,253.000,53.970,15.170,96.680,22.150,6.723,2.343,164.700,41.400,11.890,4.305,hard
1454.000,262.400,51.450,16.250,1297.000,253.700,54.740,15.110,95.560,22.000,6.727,2.366,163.000,40.970,11.710,4.341,hard
1456.000,261.700,51.850,16.250,1298.000,253.700,55.570,15.210,96.350,21.820,6.721,2.362,163.500,41.150,11.780,4.339,hard
1461.000,261.800,51.630,16.330,1298.000,255.200,55.840,15.270,94.630,21.740,6.681,2.334,163.900,40.850,11.600,4.392,hard
1461.000,262.000,50.510,16.160,1300.000,254.100,54.990,15.170,93.650,21.420,6.668,2.327,162.400,40.260,11.560,4.326,hard
1454.000,259.200,51.080,16.030,1300.000,253.800,54.790,15.210,92.170,21.690,6.525,2.341,163.700,40.780,11.490,4.218,hard
1448.000,257.600,50.330,16.210,1294.000,251.600,54.220,15.360,90.470,21.890,6.592,2.266,165.900,40.990,11.740,4.296,hard
1434.000,257.200,52.800,16.350,1281.000,249.800,54.750,15.370,97.630,21.730,6.737,2.315,166.000,41.690,11.850,4.268,hard
1433.000,257.700,51.340,16.400,1281.000,250.200,53.920,15.300,96.100,21.980,6.783,2.330,165.700,42.380,11.940,4.317,hard
1439.000,257.600,50.700,16.460,1287.000,250.800,53.720,15.390,94.740,22.650,6.758,2.357,165.700,42.620,12.110,4.397,hard
1445.000,258.400,52.330,16.510,1291.000,251.800,54.270,15.420,99.930,22.720,6.784,2.345,168.700,42.910,12.250,4.414,hard
1450.000,258.900,52.400,16.620,1291.000,252.100,53.640,15.440,97.360,22.470,6.795,2.350,168.100,43.610,12.160,4.445,hard
1456.000,260.200,52.050,16.590,1292.000,252.200,54.320,15.320,102.300,22.460,6.781,2.338,169.100,43.660,12.080,4.370,hard
1449.000,257.900,51.330,16.460,1294.000,251.400,53.900,15.370,98.480,22.750,6.831,2.348,168.200,43.650,12.060,4.336,hard
1450.000,258.300,52.200,16.430,1289.000,251.900,54.300,15.380,96.060,22.610,6.769,2.356,168.600,43.630,12.050,4.426,hard
1453.000,258.300,51.970,16.550,1297.000,252.100,54.760,15.340,101.300,22.510,6.763,2.354,166.900,43.670,12.050,4.387,hard
1454.000,259.600,51.610,16.510,1296.000,252.200,54.280,15.370,100.700,22.420,6.838,2.337,167.900,43.370,12.030,4.388,hard
1459.000,260.300,51.870,16.670,1302.000,253.300,54.140,15.390,97.900,22.960,6.804,2.317,168.500,43.800,12.330,4.436,hard
1463.000,261.400,53.350,16.680,1299.000,252.800,54.170,15.470,102.700,22.620,6.813,2.360,169.600,43.720,12.270,4.401,hard
1465.000,262.100,53.050,16.760,1305.000,253.300,54.500,15.500,103.400,22.740,6.868,2.391,169.800,43.930,12.180,4.451,hard
1469.000,262.600,52.520,16.920,1304.000,253.800,54.370,15.480,97.690,23.050,6.720,2.367,170.100,44.030,12.280,4.472,hard
1409.000,248.900,47.720,15.560,1246.000,245.500,51.620,14.810,101.300,21.790,6.632,2.318,165.100,42.100,12.060,4.473,rest
1411.000,251.200,48.550,15.810,1248.000,246.100,51.850,14.930,100.600,21.930,6.683,2.295,165.500,42.860,12.210,4.440,rest
1416.000,252.300,49.040,15.680,1253.000,245.500,51.520,14.760,101.400,22.600,6.680,2.334,165.800,42.680,12.120,4.440,rest
1402.000,247.700,48.120,15.380,1247.000,244.900,50.840,14.750,102.000,22.340,6.763,2.298,165.500,42.420,11.830,4.423,rest
1401.000,247.200,47.630,15.440,1248.000,244.600,50.780,14.820,98.620,22.500,6.714,2.325,163.300,42.640,12.200,4.397,rest
1405.000,247.500,47.750,15.610,1251.000,244.500,51.590,14.790,99.200,22.410,6.699,2.326,165.600,42.910,12.000,4.408,rest
1406.000,248.700,48.570,15.540,1246.000,245.800,51.150,14.830,99.730,22.470,6.737,2.350,165.400,42.490,12.110,4.429,rest
1409.000,249.600,47.660,15.600,1250.000,246.100,51.150,14.810,99.650,22.390,6.714,2.346,166.500,42.620,12.080,4.435,rest
1416.000,251.200,48.370,15.680,1261.000,246.800,52.020,14.810,100.500,22.540,6.709,2.312,166.400,42.520,11.980,4.471,rest
1422.000,252.100,48.660,15.730,1257.000,247.200,51.550,14.810,101.700,22.160,6.604,2.327,166.600,42.260,12.110,4.437,rest
1429.000,253.300,48.460,15.880,1259.000,247.800,51.970,14.830,98.530,22.200,6.602,2.339,165.100,42.350,11.940,4.427,rest
1420.000,252.300,46.860,15.530,1262.000,246.600,51.050,14.760,99.510,22.370,6.657,2.292,163.800,41.720,11.950,4.380,rest
1418.000,250.200,46.540,15.500,1255.000,247.600,51.070,14.760,97.450,22.150,6.674,2.346,164.700,41.980,11.850,4.406,rest
1419.000,252.500,47.560,15.500,1259.000,247.400,51.510,14.740,100.200,21.880,6.643,2.328,164.500,42.020,11.860,4.392,rest
1416.000,250.600,49.630,15.350,1252.000,246.100,51.370,14.630,98.760,21.950,6.585,2.317,164.800,41.840,11.630,4.413,rest
1412.000,251.500,47.510,15.440,1254.000,245.600,50.980,14.710,97.400,21.880,6.619,2.321,163.800,41.330,11.800,4.425,rest
1416.000,250.600,48.410,15.430,1252.000,246.500,51.360,14.670,100.300,21.670,6.504,2.324,165.900,41.710,11.810,4.397,rest
1420.000,251.700,48.240,15.580,1254.000,247.000,51.240,14.760,97.690,21.750,6.586,2.318,164.600,41.410,11.790,4.418,rest
1426.000,253.200,48.800,15.750,1254.000,247.400,51.650,14.730,96.590,21.760,6.661,2.325,164.600,41.660,11.980,4.444,rest
1425.000,253.700,49.080,15.620,1249.000,246.800,51.320,14.620,96.830,21.610,6.661,2.340,166.500,41.090,11.850,4.417,rest
1412.000,249.200,48.060,15.320,1251.000,245.700,51.210,14.570,98.420,21.650,6.634,2.318,163.800,41.230,11.600,4.386,rest
1409.000,248.900,47.050,15.370,1246.000,246.300,51.670,14.530,98.560,21.490,6.623,2.329,164.800,41.200,11.780,4.370,rest
1413.000,250.600,47.620,15.450,1254.000,246.800,51.720,14.540,99.250,21.490,6.671,2.352,164.100,41.040,11.790,4.442,rest
1414.000,251.700,48.160,15.350,1252.000,246.900,51.300,14.700,100.400,21.680,6.609,2.341,163.400,40.850,11.790,4.443,rest
1415.000,252.700,47.680,15.440,1255.000,247.200,51.190,14.690,91.790,21.620,6.580,2.343,163.900,40.420,11.810,4.410,rest
1419.000,252.000,47.580,15.450,1257.000,247.400,51.470,14.730,88.760,21.290,6.566,2.363,163.500,40.450,11.780,4.455,rest
1421.000,252.100,47.550,15.500,1256.000,247.500,51.540,14.760,91.490,21.250,6.596,2.363,164.900,40.410,11.720,4.425,rest
1423.000,253.200,48.120,15.540,1257.000,247.500,51.300,14.750,86.610,21.040,6.561,2.358,162.600,40.650,11.700,4.365,rest
1417.000,252.000,48.320,15.370,1256.000,247.600,51.720,14.690,89.070,21.110,6.581,2.338,164.200,40.450,11.590,4.353,rest
1413.000,250.700,47.880,15.350,1255.000,247.100,51.680,14.730,86.590,21.270,6.518,2.365,164.600,40.260,11.600,4.335,rest
1414.000,251.700,47.160,15.400,1257.000,247.800,52.120,14.780,88.040,20.810,6.503,2.354,163.100,40.460,11.640,4.407,rest
1415.000,250.800,47.600,15.370,1259.000,247.900,52.200,14.730,85.620,21.070,6.622,2.324,163.300,40.140,11.660,4.319,rest
1415.000,250.400,47.400,15.420,1260.000,247.000,51.840,14.780,87.560,21.020,6.486,2.326,163.500,40.190,11.860,4.368,rest
1415.000,251.900,47.980,15.470,1256.000,248.800,52.790,14.820,88.750,20.790,6.594,2.322,164.500,40.390,11.650,4.408,rest
1418.000,253.200,47.750,15.530,1261.000,249.100,53.260,14.890,90.790,21.030,6.598,2.342,164.500,40.400,11.730,4.426,rest
1419.000,253.300,47.520,15.460,1264.000,249.000,52.940,14.790,83.200,20.810,6.621,2.329,164.300,40.250,11.360,4.292,rest
1410.000,249.600,47.840,15.270,1256.000,246.400,52.270,14.560,89.220,20.910,6.578,2.317,162.500,40.280,11.610,4.394,rest
1395.000,247.900,47.330,15.120,1247.000,245.000,50.890,14.490,89.570,21.070,6.578,2.338,163.800,40.250,11.480,4.376,rest
1390.000,246.700,47.320,15.070,1233.000,243.700,51.370,14.500,89.160,21.140,6.558,2.341,162.700,40.190,11.590,4.362,rest
1384.000,245.800,47.290,14.970,1230.000,242.400,50.560,14.380,88.120,20.580,6.536,2.347,164.200,39.910,11.550,4.325,rest
1377.000,245.300,47.810,14.990,1228.000,242.100,50.460,14.400,84.830,20.840,6.603,2.329,163.800,40.000,11.530,4.411,rest
1376.000,245.400,46.300,15.010,1224.000,242.000,51.270,14.440,85.180,20.710,6.594,2.341,165.500,40.040,11.560,4.417,rest
1377.000,245.300,47.960,15.030,1226.000,241.700,51.610,14.410,84.440,20.570,6.576,2.337,163.000,40.050,11.620,4.401,rest
1377.000,245.600,47.020,14.930,1222.000,241.000,51.370,14.410,89.880,21.080,6.554,2.350,163.600,39.960,11.630,4.330,rest
1371.000,242.900,46.470,14.920,1230.000,241.600,51.370,14.430,92.870,20.730,6.508,2.320,164.700,40.060,11.520,4.332,rest
1375.000,243.900,46.050,14.860,1234.000,242.600,51.260,14.450,89.020,21.040,6.448,2.336,163.200,40.140,11.600,4.298,rest
1379.000,245.000,46.600,14.980,1236.000,243.100,51.460,14.530,91.280,21.040,6.499,2.358,164.900,40.080,11.480,4.353,rest
1384.000,245.300,46.720,15.020,1242.000,244.000,51.220,14.610,86.680,21.120,6.571,2.357,163.300,39.980,11.710,4.332,rest
1390.000,246.700,46.740,15.090,1248.000,245.200,51.270,14.680,86.900,20.670,6.607,2.357,163.900,39.840,11.520,4.364,rest
1397.000,248.600,48.000,15.240,1253.000,246.800,51.550,14.830,90.770,20.540,6.559,2.349,165.600,40.320,11.610,4.358,rest
1404.000,250.200,48.260,15.400,1259.000,248.400,51.830,14.890,87.900,20.600,6.552,2.337,165.100,40.460,11.660,4.373,rest
1414.000,252.100,49.060,15.440,1262.000,248.700,52.100,14.890,90.140,20.750,6.501,2.326,165.700,40.820,11.530,4.292,rest
1405.000,247.900,47.970,15.350,1260.000,247.800,51.680,14.960,89.740,21.130,6.457,2.294,166.200,41.670,11.840,4.307,rest
1399.000,249.400,48.160,15.530,1256.000,247.000,53.260,15.070,95.660,21.180,6.760,2.384,170.100,42.720,12.110,4.376,rest
1394.000,247.800,48.960,15.600,1255.000,246.000,53.230,15.160,93.140,21.660,6.716,2.301,170.400,42.520,12.040,4.398,rest
1395.000,248.000,48.310,15.730,1253.000,247.200,52.900,15.110,88.170,21.640,6.798,2.377,171.000,42.400,12.130,4.419,rest
1395.000,249.500,49.950,15.850,1257.000,245.600,54.000,15.210,94.790,21.580,6.646,2.373,171.900,42.980,12.240,4.470,rest
1394.000,249.000,49.500,15.990,1255.000,246.300,53.490,15.270,93.590,21.480,6.800,2.364,171.700,42.770,12.260,4.405,rest
1400.000,250.200,48.730,16.130,1259.000,247.300,54.080,15.270,94.700,21.740,6.693,2.366,171.000,43.010,12.390,4.493,rest
1410.000,252.800,50.880,16.130,1265.000,248.300,53.410,15.180,97.250,21.620,6.850,2.394,173.700,43.240,12.260,4.416,rest
1409.000,250.200,48.960,15.780,1262.000,248.400,52.890,15.160,93.430,21.770,6.794,2.370,170.100,42.840,12.290,4.479,rest
1416.000,251.300,50.210,15.820,1265.000,248.800,53.330,15.200,92.900,21.950,6.755,2.403,169.700,43.500,12.340,4.455,rest
1421.000,253.200,49.830,15.800,1273.000,250.100,53.450,15.140,96.070,22.210,6.837,2.394,171.000,44.290,12.300,4.561,rest
1427.000,253.300,49.530,15.890,1268.000,249.900,53.330,15.150,93.770,22.850,6.845,2.383,171.900,44.330,12.470,4.538,rest
1427.000,252.300,49.070,15.960,1271.000,250.500,53.430,15.170,92.390,22.490,6.860,2.433,169.900,44.460,12.660,4.568,rest
1430.000,253.300,49.590,16.050,1274.000,250.500,53.670,15.200,93.290,22.220,6.965,2.431,169.900,44.760,12.640,4.649,rest
1434.000,256.300,50.400,16.070,1276.000,251.400,53.790,15.250,93.730,22.910,6.928,2.448,172.100,45.340,12.630,4.660,rest
1438.000,257.000,50.780,16.020,1274.000,251.600,53.770,15.150,92.970,22.780,6.913,2.439,171.800,44.710,12.650,4.660,rest
1431.000,254.900,49.290,15.890,1273.000,250.500,53.760,15.080,94.300,22.600,6.958,2.418,170.500,44.730,12.530,4.663,rest
1432.000,254.900,48.700,15.880,1271.000,250.000,53.460,15.080,92.950,22.410,6.940,2.424,170.300,45.050,12.680,4.638,rest
1434.000,255.300,49.440,15.930,1275.000,251.200,53.540,15.140,92.450,22.780,6.879,2.398,170.800,45.120,12.530,4.653,rest
1436.000,256.100,50.470,15.950,1275.000,251.700,53.450,15.070,89.540,22.840,6.930,2.445,171.400,44.790,12.580,4.629,rest
1438.000,255.000,49.520,15.970,1279.000,251.000,53.490,15.180,93.800,22.970,6.947,2.398,171.200,45.160,12.690,4.627,rest
1442.000,257.400,50.220,16.060,1279.000,251.700,53.180,15.160,93.220,22.970,6.886,2.432,170.200,45.050,12.640,4.655,rest
1447.000,258.000,51.550,16.200,1278.000,253.400,53.260,15.230,93.670,22.780,6.943,2.419,170.600,45.150,12.620,4.659,rest
1451.000,260.000,50.900,16.290,1281.000,253.300,53.880,15.170,94.290,23.110,6.986,2.454,173.300,45.020,12.670,4.695,rest
1445.000,255.900,49.780,16.050,1279.000,252.300,53.910,15.080,94.460,22.750,6.863,2.413,171.000,44.910,12.530,4.601,rest
1446.000,258.400,50.060,16.050,1276.000,252.000,53.190,15.120,91.710,22.640,6.870,2.368,170.200,44.840,12.400,4.602,rest
1447.000,258.200,48.400,16.090,1282.000,252.200,54.130,15.140,97.460,22.930,6.868,2.383,170.100,44.430,12.540,4.624,rest
1448.000,258.200,49.530,16.180,1280.000,252.100,54.040,15.160,96.640,22.660,6.876,2.416,171.700,44.600,12.650,4.637,rest
1449.000,258.000,50.030,16.190,1280.000,251.900,54.140,15.180,89.400,23.100,7.001,2.461,172.000,44.870,12.610,4.638,rest
1450.000,258.700,51.000,16.230,1279.000,251.800,53.930,15.140,98.180,22.450,6.847,2.428,171.700,45.060,12.730,4.682,rest
1452.000,259.200,50.890,16.420,1282.000,252.300,54.030,15.150,97.420,22.540,6.925,2.428,172.900,45.570,12.810,4.735,rest
1455.000,260.400,49.970,16.400,1285.000,251.900,53.730,15.200,92.460,22.830,7.054,2.452,172.500,45.170,12.720,4.742,rest
1458.000,261.500,51.840,16.470,1287.000,253.600,53.840,15.180,94.800,22.700,6.842,2.415,172.100,45.280,12.790,4.681,rest
1456.000,259.500,51.360,16.220,1276.000,251.500,52.490,15.050,93.520,22.900,6.884,2.434,172.100,45.140,12.660,4.699,rest
1448.000,259.500,49.750,16.140,1275.000,251.900,53.270,15.010,90.270,22.850,6.914,2.413,171.500,44.980,12.690,4.751,rest
1446.000,258.100,50.810,16.250,1275.000,251.100,53.050,15.050,88.590,22.760,6.968,2.431,171.700,45.310,12.660,4.678,rest
1447.000,257.600,50.280,16.280,1269.000,251.300,52.890,15.010,96.680,22.640,6.889,2.440,172.800,45.150,12.590,4.649,rest
1447.000,258.100,49.430,16.200,1275.000,251.000,53.300,15.040,92.550,23.110,6.767,2.431,171.900,45.010,12.740,4.666,rest
1449.000,258.100,51.450,16.260,1273.000,251.100,54.160,15.030,91.340,23.030,6.975,2.410,173.800,45.290,12.690,4.715,rest
1452.000,259.000,50.770,16.350,1275.000,252.700,53.130,15.080,98.340,22.630,6.929,2.409,174.000,44.940,12.630,4.727,rest
1453.000,259.600,50.280,16.470,1276.000,251.900,53.680,15.070,94.710,22.710,6.885,2.411,174.000,45.340,12.810,4.753,rest
1457.000,262.100,51.050,16.470,1276.000,252.400,53.390,15.130,94.640,23.080,6.884,2.405,173.500,45.780,12.920,4.731,rest
1460.000,262.600,50.800,16.550,1279.000,253.000,53.600,15.070,94.960,23.040,6.863,2.406,172.100,45.350,12.880,4.682,rest
1453.000,260.200,51.260,16.260,1280.000,251.700,53.840,14.960,94.460,22.610,6.847,2.407,171.900,45.160,12.650,4.673,rest
1450.000,259.200,51.790,16.240,1274.000,251.400,53.210,15.030,94.020,23.070,6.772,2.426,172.700,45.390,12.620,4.744,rest
1449.000,258.600,50.880,16.180,1273.000,251.300,52.830,14.970,97.680,22.780,6.848,2.404,172.500,45.280,12.760,4.708,rest
1448.000,259.400,51.110,16.270,1277.000,251.300,53.510,14.960,90.780,22.630,6.917,2.385,172.700,45.200,12.550,4.703,rest
1447.000,258.900,50.150,16.290,1272.000,250.800,53.270,15.010,91.820,23.010,6.918,2.423,172.800,44.830,12.600,4.712,rest
1449.000,258.500,50.480,16.350,1279.000,251.400,53.480,14.990,93.190,23.120,6.870,2.420,173.000,45.270,12.780,4.724,rest
1452.000,259.800,52.520,16.440,1274.000,252.000,54.080,15.020,92.550,23.100,7.000,2.419,173.400,45.350,12.900,4.781,rest
1454.000,261.600,50.870,16.470,1276.000,252.700,53.700,15.070,94.550,22.630,6.927,2.419,175.000,45.770,12.770,4.773,rest
1457.000,262.800,51.170,16.560,1276.000,252.000,53.810,15.070,95.240,23.170,6.908,2.432,176.300,45.980,13.000,4.756,rest
1457.000,263.400,51.490,16.370,1279.000,251.800,53.400,14.940,95.880,22.860,7.001,2.418,172.000,45.450,12.700,4.734,rest
1447.000,259.300,51.230,16.200,1274.000,250.500,52.930,14.970,96.230,23.100,6.871,2.401,171.900,45.430,12.700,4.649,rest
1445.000,259.000,49.760,16.170,1274.000,251.000,53.100,14.910,93.170,22.490,6.803,2.393,172.800,45.100,12.800,4.711,rest
1445.000,258.300,50.950,16.250,1274.000,251.300,52.860,14.930,94.600,22.550,6.942,2.373,172.300,45.600,12.810,4.743,rest
1446.000,259.200,51.020,16.240,1274.000,250.700,52.720,14.930,93.990,22.300,6.790,2.437,174.100,45.070,12.800,4.774,rest
1446.000,258.500,50.390,16.220,1277.000,251.100,53.670,14.910,96.050,22.560,6.720,2.391,173.200,45.230,12.690,4.739,rest
1449.000,259.800,51.060,16.330,1273.000,251.700,53.170,14.990,91.860,22.500,6.755,2.392,174.000,45.460,12.740,4.741,rest
1452.000,261.100,50.190,16.390,1276.000,252.500,53.040,15.050,95.520,22.670,6.827,2.398,173.300,45.320,12.860,4.715,rest
1454.000,262.200,52.480,16.530,1276.000,251.900,53.440,15.000,96.610,22.470,6.823,2.382,174.600,45.090,13.050,4.737,rest
1459.000,263.000,51.170,16.620,1280.000,252.500,53.790,14.980,95.140,22.410,6.836,2.405,174.100,45.320,12.870,4.763,rest
1451.000,261.300,49.480,16.260,1276.000,250.500,53.240,14.880,91.950,22.520,6.840,2.398,173.100,44.710,12.690,4.685,rest
1446.000,258.600,49.450,16.130,1274.000,250.600,53.110,14.880,94.910,22.460,6.838,2.378,173.200,44.620,12.760,4.680,rest
1446.000,259.500,50.430,16.220,1274.000,250.900,53.190,14.890,94.190,22.480,6.748,2.402,173.800,45.090,12.750,4.708,rest
1447.000,260.300,49.950,16.200,1278.000,250.300,53.240,14.860,90.410,22.260,6.773,2.381,172.600,44.660,12.720,4.623,rest
1445.000,258.800,50.860,16.270,1271.000,251.000,52.520,14.900,95.220,22.560,6.764,2.363,174.800,45.200,12.780,4.679,rest
1449.000,259.300,50.400,16.260,1276.000,251.800,53.080,14.940,92.590,23.080,6.778,2.374,173.700,44.960,12.750,4.705,rest
1453.000,262.400,51.600,16.390,1281.000,251.800,52.690,15.000,93.870,22.580,6.820,2.404,174.600,45.420,12.900,4.689,rest
1455.000,261.800,51.580,16.430,1275.000,252.000,53.840,15.000,95.370,22.390,6.799,2.391,175.800,45.230,12.920,4.670,rest
1458.000,261.400,51.190,16.540,1277.000,251.700,53.110,14.960,91.800,22.860,6.812,2.395,175.200,45.520,12.940,4.691,rest
1448.000,259.000,50.650,16.230,1273.000,249.500,53.260,14.820,96.650,22.800,6.807,2.392,172.600,44.560,12.830,4.682,rest
1433.000,257.000,50.400,16.140,1263.000,248.200,53.200,14.830,94.220,22.410,6.751,2.364,173.400,45.150,12.720,4.679,rest
1436.000,257.200,49.780,16.290,1267.000,248.700,53.360,14.940,93.360,22.380,6.760,2.385,173.800,45.060,12.790,4.675,rest
1436.000,257.900,51.050,16.370,1264.000,248.500,54.110,14.920,96.160,22.550,6.819,2.378,173.700,44.990,12.710,4.639,rest
1434.000,257.700,50.420,16.390,1269.000,249.300,53.380,14.980,95.340,22.370,6.909,2.356,174.400,45.370,12.660,4.634,rest
1437.000,258.200,50.920,16.500,1271.000,249.200,53.820,15.010,91.600,22.490,6.751,2.382,174.100,45.210,12.830,4.664,rest
1445.000,259.900,51.960,16.600,1276.000,250.900,54.140,15.070,94.500,22.540,6.805,2.381,174.400,45.100,12.850,4.720,rest
1451.000,261.700,51.940,16.600,1272.000,251.500,53.800,14.980,94.160,22.530,6.737,2.388,174.200,45.610,12.730,4.684,rest
1444.000,258.400,51.190,16.280,1267.000,249.000,52.840,14.870,94.730,22.460,6.757,2.377,173.500,45.510,12.730,4.648,rest
1436.000,255.700,51.390,16.150,1265.000,248.600,53.040,14.780,92.330,22.420,6.770,2.361,173.100,44.940,12.660,4.652,rest
1432.000,255.900,50.880,16.170,1264.000,248.100,52.230,14.820,91.270,22.370,6.825,2.378,172.400,45.690,12.680,4.653,rest
1435.000,257.100,50.650,16.200,1265.000,248.500,52.600,14.750,97.430,22.480,6.823,2.392,173.300,45.450,12.780,4.643,rest
1438.000,257.300,51.420,16.170,1265.000,249.400,53.400,14.760,92.810,22.550,6.834,2.360,171.500,45.300,12.770,4.639,rest
1441.000,257.400,50.540,16.270,1271.000,249.200,53.260,14.860,94.380,22.540,6.792,2.395,171.700,45.560,12.780,4.697,rest
1443.000,258.300,51.510,16.360,1269.000,248.900,53.420,14.860,94.160,22.530,6.858,2.414,172.600,45.060,13.050,4.648,rest
1445.000,259.800,51.920,16.370,1269.000,250.100,53.490,14.840,94.760,22.510,6.737,2.381,173.000,45.630,12.820,4.688,rest
1443.000,259.600,50.120,16.200,1267.000,249.600,52.460,14.690,95.340,22.770,6.724,2.393,172.900,45.000,12.540,4.638,rest
1434.000,257.600,50.230,16.010,1258.000,247.900,52.310,14.730,88.460,22.180,6.683,2.419,170.600,44.560,12.630,4.641,rest
1435.000,256.500,50.440,16.010,1262.000,248.200,52.200,14.690,92.850,22.390,6.785,2.357,171.200,44.850,12.690,4.677,rest
1433.000,257.200,50.720,16.030,1260.000,247.000,52.740,14.650,95.070,22.010,6.710,2.357,169.800,44.100,12.550,4.612,rest
1433.000,256.000,50.620,16.060,1260.000,247.500,52.320,14.680,89.030,22.010,6.741,2.391,170.500,44.050,12.470,4.609,rest
1433.000,257.000,50.580,16.070,1256.000,247.300,52.420,14.660,92.660,21.770,6.670,2.349,170.100,43.710,12.480,4.587,rest
1436.000,256.600,49.270,16.070,1262.000,247.200,52.390,14.690,91.060,22.310,6.691,2.353,170.200,43.920,12.540,4.671,rest
1438.000,255.700,50.650,16.220,1261.000,248.100,53.200,14.680,90.210,21.710,6.655,2.368,170.700,43.040,12.130,4.529,rest
1442.000,258.500,49.360,16.250,1265.000,248.900,53.400,14.770,93.640,20.870,6.468,2.294,170.100,42.730,12.100,4.534,rest
1441.000,258.800,49.550,16.220,1263.000,247.600,52.510,14.630,89.090,20.900,6.395,2.332,168.000,41.200,12.020,4.444,rest
1434.000,257.000,50.390,15.950,1261.000,246.300,51.920,14.500,90.370,20.700,6.504,2.322,167.400,41.660,12.010,4.458,rest
1428.000,254.300,49.420,15.910,1250.000,245.300,51.750,14.540,92.140,20.720,6.478,2.291,168.400,41.970,11.960,4.480,rest
1426.000,254.400,48.920,15.800,1247.000,245.700,52.450,14.510,89.630,20.530,6.554,2.318,168.100,41.560,11.810,4.455,rest
1426.000,254.900,49.550,15.870,1253.000,245.800,51.880,14.560,90.720,20.950,6.514,2.309,167.500,41.460,12.080,4.487,rest
1432.000,256.100,49.950,16.020,1257.000,247.100,52.200,14.650,88.880,20.640,6.485,2.326,169.100,42.120,11.940,4.452,rest
1435.000,255.400,51.760,16.060,1261.000,247.300,52.790,14.700,91.600,20.450,6.497,2.333,168.000,41.600,12.040,4.481,rest
1440.000,256.900,50.290,16.190,1259.000,248.500,52.900,14.740,86.320,20.870,6.508,2.316,168.300,41.960,12.100,4.520,rest
1444.000,259.000,51.010,16.310,1263.000,248.200,52.220,14.730,91.000,20.690,6.540,2.352,168.700,42.130,11.910,4.501,rest
1437.000,256.200,50.320,15.960,1235.000,243.200,52.100,14.350,89.690,21.040,6.472,2.331,168.200,41.890,12.090,4.500,rest
1400.000,251.300,49.140,15.640,1223.000,241.700,51.590,14.220,91.640,20.510,6.449,2.315,165.600,41.660,11.830,4.430,rest
1387.000,249.400,48.120,15.560,1210.000,238.900,50.910,14.070,86.790,20.640,6.494,2.313,166.100,41.400,11.910,4.448,rest
1375.000,249.000,49.010,15.450,1205.000,237.200,51.070,14.040,86.110,20.360,6.415,2.305,166.200,41.550,11.940,4.477,rest
1374.000,248.000,48.020,15.540,1205.000,237.100,50.930,14.110,86.470,20.450,6.469,2.319,167.200,41.980,11.930,4.507,rest
1375.000,248.200,49.480,15.610,1212.000,238.100,50.770,14.050,90.410,20.660,6.502,2.309,165.700,41.950,12.040,4.442,rest
1382.000,249.400,49.370,15.550,1213.000,238.300,51.080,14.220,87.780,20.520,6.395,2.281,167.800,41.780,12.040,4.518,rest
1391.000,250.600,49.020,15.850,1227.000,240.800,51.220,14.370,93.130,20.870,6.525,2.325,168.200,42.170,12.090,4.530,rest
1410.000,253.800,50.760,16.010,1245.000,245.000,52.310,14.580,89.800,20.720,6.441,2.324,169.300,42.190,12.070,4.496,rest
1436.000,257.900,50.900,16.100,1261.000,247.100,52.890,14.660,87.220,20.390,6.393,2.315,165.400,41.590,11.780,4.459,rest
1440.000,257.700,50.530,16.100,1258.000,247.100,51.610,14.670,94.960,20.290,6.348,2.323,168.700,41.530,11.840,4.469,rest
1437.000,256.900,51.600,16.210,1258.000,246.800,52.510,14.800,91.970,20.750,6.466,2.346,168.400,42.290,12.180,4.485,rest
1438.000,257.200,51.990,16.390,1254.000,247.400,52.940,14.770,88.550,20.700,6.463,2.322,170.200,42.540,12.180,4.524,rest
1437.000,257.900,50.930,16.370,1255.000,246.000,52.250,14.700,90.920,20.750,6.550,2.347,169.000,42.920,12.280,4.550,rest
1437.000,256.200,51.350,16.310,1254.000,246.200,52.920,14.670,87.390,20.990,6.534,2.353,170.300,42.990,12.330,4.539,rest
1437.000,257.100,50.450,16.200,1248.000,245.300,52.400,14.610,90.780,21.190,6.507,2.346,172.000,43.100,12.240,4.566,rest
1432.000,256.500,49.060,16.090,1231.000,240.800,50.850,14.370,88.550,21.660,6.589,2.369,172.000,43.880,12.560,4.640,rest
1395.000,250.900,50.720,16.130,1217.000,239.200,51.050,14.450,96.810,21.560,6.726,2.373,173.500,44.990,12.730,4.596,rest
1393.000,249.600,49.390,15.950,1226.000,241.000,51.120,14.490,88.400,21.920,6.719,2.373,172.600,44.890,12.530,4.606,rest
1413.000,251.800,51.670,16.040,1241.000,243.400,51.170,14.540,92.430,22.140,6.712,2.358,168.200,44.640,12.440,4.616,rest
1427.000,253.700,51.230,16.070,1252.000,243.600,51.950,14.520,87.970,21.830,6.730,2.335,170.900,44.520,12.480,4.653,rest
1432.000,255.900,51.280,16.130,1247.000,244.100,51.800,14.510,87.240,21.980,6.674,2.357,169.900,44.070,12.490,4.584,rest
1430.000,255.600,49.870,16.050,1245.000,243.800,51.780,14.480,89.930,21.650,6.615,2.355,169.600,44.480,12.600,4.656,rest
1429.000,255.700,51.100,16.170,1242.000,243.100,51.770,14.590,89.660,22.040,6.674,2.356,170.000,44.060,12.560,4.595,rest
1427.000,256.700,50.770,16.250,1247.000,243.900,51.770,14.690,90.850,22.190,6.652,2.346,170.800,44.310,12.510,4.628,rest
1434.000,257.200,50.840,16.420,1253.000,244.200,52.240,14.680,90.370,21.890,6.575,2.397,171.600,45.060,12.480,4.627,rest
1432.000,256.500,50.200,16.180,1252.000,244.300,51.990,14.590,90.310,22.530,6.764,2.363,171.400,44.200,12.440,4.635,rest
1430.000,254.800,49.180,16.200,1253.000,243.300,52.480,14.640,89.370,22.010,6.662,2.356,169.400,44.710,12.600,4.607,rest
1427.000,255.000,49.920,16.180,1250.000,243.500,52.160,14.610,90.400,21.980,6.712,2.393,168.800,44.100,12.510,4.607,rest
1427.000,255.600,50.100,16.260,1247.000,244.000,51.350,14.700,91.530,21.880,6.700,2.349,171.700,44.980,12.610,4.638,rest
1430.000,256.700,50.710,16.230,1251.000,243.700,52.040,14.620,89.950,21.820,6.704,2.377,170.300,44.870,12.520,4.633,rest
1430.000,257.000,51.600,16.240,1251.000,244.300,51.990,14.640,89.700,22.060,6.723,2.363,169.800,44.320,12.620,4.634,rest
1435.000,255.900,51.420,16.260,1250.000,244.600,52.030,14.640,92.770,22.130,6.669,2.342,170.800,44.850,12.610,4.663,rest
1436.000,256.500,50.860,16.360,1255.000,244.500,52.100,14.690,90.540,22.360,6.723,2.399,171.500,45.290,12.660,4.655,rest
1431.000,255.500,51.460,16.130,1249.000,244.100,52.060,14.580,94.220,21.970,6.685,2.340,170.500,44.270,12.630,4.608,rest
1426.000,255.000,50.340,16.130,1248.000,244.000,51.750,14.590,91.590,22.160,6.682,2.370,170.800,45.140,12.510,4.590,rest
1426.000,254.500,49.970,16.150,1251.000,243.800,51.560,14.590,88.070,21.850,6.635,2.356,169.600,44.610,12.580,4.613,rest
1427.000,254.000,49.650,16.130,1243.000,243.700,51.630,14.560,94.530,22.320,6.669,2.361,170.200,44.570,12.450,4.599,rest
1427.000,254.600,48.950,16.120,1249.000,244.100,51.210,14.630,92.600,22.170,6.750,2.353,169.600,44.240,12.470,4.612,rest
1429.000,255.000,49.190,16.150,1248.000,243.500,51.540,14.590,94.260,21.990,6.702,2.366,169.800,44.560,12.480,4.671,rest
1431.000,256.100,48.850,16.220,1251.000,244.600,52.300,14.650,90.230,22.300,6.709,2.358,171.200,44.560,12.620,4.657,rest
1434.000,257.300,49.480,16.270,1252.000,244.300,51.390,14.640,90.460,21.900,6.629,2.352,170.300,44.520,12.440,4.577,rest
1427.000,255.600,51.260,15.950,1249.000,243.700,51.490,14.520,89.790,22.140,6.661,2.352,169.400,44.360,12.540,4.585,rest
1426.000,253.600,49.240,15.910,1251.000,243.400,51.530,14.510,91.680,21.970,6.633,2.363,168.700,43.940,12.400,4.584,rest
1427.000,255.800,49.610,15.940,1248.000,243.500,51.130,14.500,91.880,21.860,6.696,2.327,169.400,44.080,12.390,4.564,rest
1427.000,254.200,49.740,15.950,1251.000,243.600,52.300,14.550,90.710,21.780,6.625,2.348,168.300,43.460,12.500,4.523,rest
1428.000,254.700,50.360,15.990,1250.000,243.700,52.180,14.550,90.110,21.470,6.581,2.344,168.200,43.600,12.460,4.557,rest
1429.000,256.200,50.080,16.050,1251.000,244.600,51.610,14.530,93.520,21.810,6.601,2.351,169.500,43.560,12.480,4.628,rest
1433.000,256.600,50.620,16.130,1254.000,244.800,52.590,14.570,90.880,21.660,6.681,2.374,169.800,44.020,12.430,4.610,rest
1437.000,257.400,49.670,16.230,1254.000,245.200,51.300,14.590,92.640,21.600,6.591,2.343,169.500,43.830,12.330,4.673,rest
1432.000,255.500,48.670,15.910,1257.000,244.300,51.560,14.430,88.940,21.780,6.627,2.332,168.100,43.590,12.230,4.587,rest
1428.000,255.700,49.250,15.940,1255.000,243.900,51.990,14.440,94.610,21.610,6.596,2.335,169.600,43.280,12.180,4.566,rest
1428.000,255.000,49.560,15.870,1252.000,243.800,51.370,14.540,90.860,21.690,6.522,2.347,167.700,43.190,12.490,4.577,rest
1428.000,253.400,49.830,15.930,1253.000,244.300,51.900,14.470,90.140,21.490,6.630,2.336,169.200,43.300,12.330,4.517,rest
1429.000,254.200,50.810,15.880,1252.000,244.800,51.120,14.550,87.970,21.520,6.609,2.324,169.100,43.260,12.330,4.550,rest
1431.000,254.400,50.220,15.910,1253.000,244.900,51.400,14.530,89.790,21.510,6.528,2.354,169.400,43.460,12.240,4.603,rest
1434.000,256.900,50.240,16.090,1257.000,245.100,52.270,14.530,91.890,21.840,6.562,2.316,169.700,43.610,12.590,4.598,rest
1436.000,256.800,51.070,16.150,1253.000,245.400,51.400,14.560,90.420,21.910,6.640,2.351,169.300,43.960,12.650,4.634,rest
1440.000,257.900,49.970,16.210,1254.000,245.300,52.340,14.570,91.370,21.380,6.607,2.353,171.300,43.870,12.470,4.600,rest
1433.000,256.100,49.690,15.880,1248.000,244.400,51.840,14.540,91.260,21.770,6.481,2.329,170.900,43.560,12.470,4.623,rest
1429.000,254.700,49.350,16.020,1250.000,244.300,52.430,14.530,89.720,21.420,6.623,2.342,169.900,44.040,12.410,4.564,rest
1426.000,254.200,49.280,15.960,1248.000,244.100,51.600,14.520,95.550,21.610,6.636,2.327,171.500,44.090,12.450,4.592,rest
1429.000,255.000,50.440,16.010,1257.000,244.200,52.090,14.490,91.840,21.430,6.581,2.339,172.000,44.320,12.530,4.562,rest
1431.000,255.800,49.870,16.050,1252.000,244.400,51.800,14.530,90.000,21.980,6.589,2.337,170.200,44.090,12.620,4.685,rest
1431.000,255.400,49.830,16.040,1253.000,244.100,52.510,14.540,92.260,21.810,6.591,2.355,172.800,44.580,12.590,4.597,rest
1435.000,256.500,51.120,16.130,1256.000,244.700,51.570,14.630,89.590,21.910,6.591,2.333,171.600,44.600,12.560,4.629,rest
1438.000,258.100,51.460,16.270,1257.000,245.700,51.300,14.680,94.990,21.770,6.710,2.312,171.900,44.960,12.650,4.656,rest
1441.000,258.800,51.300,16.160,1259.000,245.100,51.810,14.550,91.420,22.530,6.701,2.358,172.700,44.480,12.650,4.606,rest
1434.000,255.600,50.410,16.050,1253.000,244.700,51.490,14.500,92.940,21.910,6.599,2.357,171.800,44.950,12.560,4.597,rest
1434.000,256.100,49.780,16.050,1247.000,245.300,51.680,14.540,92.210,21.740,6.679,2.339,171.400,44.900,12.730,4.586,rest
1435.000,256.400,49.500,16.080,1251.000,244.200,52.220,14.550,92.090,21.630,6.628,2.346,172.600,45.010,12.540,4.624,rest
1437.000,256.900,50.350,16.100,1253.000,244.600,51.610,14.560,94.980,22.070,6.717,2.331,171.700,44.800,12.640,4.588,rest
1437.000,257.600,49.430,16.140,1257.000,245.100,52.070,14.590,92.350,22.100,6.639,2.340,174.200,45.200,12.630,4.689,rest
1440.000,258.400,50.440,16.280,1256.000,245.000,51.730,14.670,90.930,22.300,6.685,2.353,173.600,45.280,12.770,4.686,rest
1442.000,259.100,50.230,16.290,1264.000,246.200,52.280,14.740,92.780,22.160,6.813,2.329,173.000,45.550,12.810,4.644,rest
1447.000,260.400,52.110,16.380,1259.000,245.900,52.030,14.600,94.350,22.140,6.704,2.338,174.200,45.550,12.810,4.653,rest
1441.000,256.600,50.440,16.080,1260.000,244.700,51.580,14.560,91.170,22.370,6.731,2.348,173.300,45.190,12.730,4.701,rest
1438.000,256.500,50.190,16.120,1257.000,244.500,51.690,14.620,92.140,22.340,6.734,2.336,173.000,45.430,12.750,4.613,rest
1440.000,257.900,50.500,16.120,1258.000,245.200,51.220,14.560,90.250,21.930,6.593,2.317,173.200,45.170,12.760,4.648,rest
1441.000,258.100,51.670,16.170,1260.000,245.000,51.540,14.540,93.460,21.890,6.663,2.288,172.900,45.160,12.700,4.672,rest
1442.000,258.200,49.170,16.190,1253.000,245.400,51.550,14.610,94.660,22.060,6.628,2.319,172.400,45.330,12.680,4.646,rest
1443.000,257.200,50.020,16.270,1260.000,245.900,52.390,14.620,87.580,22.120,6.616,2.351,172.700,46.110,13.210,4.643,rest
1445.000,259.500,51.280,16.390,1257.000,245.300,52.280,14.660,95.270,22.060,6.635,2.335,175.000,45.710,12.830,4.707,rest
1450.000,260.500,50.720,16.390,1259.000,245.200,52.440,14.600,91.380,22.200,6.717,2.359,172.700,46.120,13.040,4.666,rest
1441.000,258.100,50.280,16.100,1258.000,245.300,52.440,14.550,96.060,22.330,6.578,2.320,172.000,45.610,12.750,4.645,rest
1442.000,257.500,49.680,16.210,1257.000,244.300,52.290,14.560,95.760,21.840,6.592,2.345,172.200,45.750,12.860,4.653,rest
1441.000,258.200,49.380,16.180,1256.000,245.200,51.730,14.620,92.230,22.190,6.683,2.336,175.000,45.500,12.960,4.696,rest
1442.000,259.600,50.700,16.170,1256.000,245.100,52.230,14.590,93.810,21.730,6.625,2.324,172.000,45.660,12.890,4.701,rest
1443.000,258.200,50.860,16.230,1256.000,245.500,51.300,14.620,93.980,21.890,6.685,2.314,173.400,45.750,12.940,4.719,rest
1446.000,258.700,50.860,16.280,1259.000,245.800,52.460,14.670,91.430,22.230,6.685,2.338,172.800,45.800,12.920,4.681,rest
1449.000,260.100,52.330,16.440,1264.000,246.400,51.770,14.710,89.910,22.260,6.695,2.313,173.200,46.010,13.050,4.794,rest
1449.000,259.800,51.220,16.280,1256.000,245.400,52.030,14.560,92.760,22.620,6.647,2.337,172.300,46.160,12.930,4.675,rest
1441.000,256.700,49.830,16.180,1252.000,245.100,51.910,14.540,91.600,22.180,6.722,2.333,173.000,45.680,12.760,4.722,rest
1441.000,256.800,51.180,16.190,1256.000,245.300,52.630,14.540,90.370,22.430,6.624,2.367,174.100,46.300,12.980,4.667,rest
1438.000,257.300,50.370,16.210,1251.000,244.400,51.890,14.550,95.250,22.180,6.698,2.349,171.400,45.880,12.860,4.718,rest
1437.000,256.700,50.110,16.220,1260.000,244.400,52.400,14.610,89.420,21.920,6.663,2.341,171.700,46.150,12.880,4.698,rest
1438.000,256.600,50.000,16.230,1260.000,244.700,52.710,14.600,91.230,21.860,6.769,2.341,173.700,45.780,12.980,4.765,rest
1443.000,257.600,49.880,16.320,1264.000,245.900,52.420,14.710,92.030,21.990,6.616,2.343,173.300,46.350,13.080,4.754,rest
1447.000,258.300,50.670,16.420,1261.000,247.400,52.700,14.700,91.050,22.260,6.699,2.322,173.800,46.300,12.970,4.719,rest
1448.000,259.600,51.000,16.330,1262.000,246.800,52.380,14.650,88.850,22.080,6.656,2.322,172.100,45.760,12.910,4.651,rest
1442.000,258.100,50.810,16.140,1264.000,246.100,51.470,14.590,88.620,22.090,6.634,2.318,171.000,46.000,12.850,4.703,rest
1441.000,257.600,51.080,16.110,1260.000,246.100,52.430,14.630,88.120,22.060,6.581,2.322,171.300,45.770,13.060,4.735,rest
1441.000,257.000,51.070,16.220,1261.000,247.100,51.880,14.600,89.910,21.560,6.656,2.330,171.700,45.740,12.920,4.711,rest
1441.000,258.700,50.990,16.180,1260.000,247.100,51.920,14.600,86.010,21.890,6.656,2.362,172.700,46.110,12.840,4.713,rest
1443.000,256.200,51.300,16.250,1260.000,247.200,52.390,14.650,90.800,22.080,6.632,2.341,171.900,45.600,12.960,4.692,rest
1445.000,257.600,50.860,16.280,1259.000,247.500,52.480,14.670,90.890,21.840,6.599,2.326,171.500,46.080,12.770,4.732,rest
1447.000,259.000,49.550,16.340,1261.000,248.100,52.830,14.710,87.470,21.980,6.617,2.337,173.900,45.830,12.970,4.708,rest
1450.000,260.200,50.580,16.360,1264.000,247.700,52.510,14.630,92.120,22.020,6.678,2.341,174.300,46.010,12.980,4.654,rest
1443.000,258.700,50.330,16.160,1263.000,246.600,52.020,14.620,88.890,21.480,6.569,2.323,173.600,45.530,12.790,4.654,rest
1442.000,257.800,49.170,16.130,1267.000,246.900,52.350,14.590,88.600,22.370,6.618,2.343,172.200,45.450,12.750,4.637,rest
1442.000,257.200,50.850,16.120,1262.000,246.700,52.590,14.640,91.630,21.920,6.581,2.311,173.100,45.730,12.900,4.709,rest
1442.000,257.700,50.500,16.200,1267.000,246.800,52.090,14.640,88.610,21.940,6.492,2.330,170.800,45.480,12.690,4.702,rest
1443.000,258.700,50.410,16.150,1264.000,247.400,52.880,14.630,90.410,22.000,6.563,2.338,172.700,45.660,12.960,4.723,rest
1446.000,257.600,51.010,16.220,1263.000,248.000,51.700,14.740,90.390,21.840,6.657,2.318,172.900,45.590,12.910,4.662,rest
1447.000,258.600,51.250,16.330,1270.000,247.400,52.190,14.740,89.370,22.070,6.684,2.313,171.800,45.440,12.780,4.694,rest
1450.000,258.600,51.940,16.340,1270.000,248.400,52.720,14.700,93.730,21.870,6.625,2.345,173.700,45.520,12.900,4.705,rest
1451.000,259.900,50.920,16.190,1264.000,247.700,51.960,14.620,90.640,22.150,6.698,2.322,172.000,44.980,12.830,4.674,rest
1446.000,257.800,51.170,16.130,1259.000,248.200,52.690,14.580,91.790,21.300,6.659,2.288,171.600,45.340,12.610,4.669,rest
1445.000,258.800,50.140,16.130,1266.000,247.600,52.740,14.600,88.870,21.330,6.578,2.337,171.200,44.900,12.780,4.705,rest
1446.000,258.100,50.020,16.160,1266.000,248.000,52.080,14.690,94.130,21.340,6.493,2.318,172.000,45.040,12.730,4.652,rest
1446.000,258.000,50.030,16.190,1269.000,248.100,52.950,14.730,90.080,21.700,6.593,2.326,172.900,45.080,12.680,4.624,rest
1448.000,258.900,51.320,16.200,1268.000,247.700,52.850,14.710,92.290,21.520,6.513,2.342,172.100,44.680,12.710,4.665,rest
1452.000,259.200,51.800,16.270,1272.000,248.300,52.610,14.730,88.050,21.510,6.557,2.342,173.300,44.960,12.700,4.702,rest
1453.000,259.700,50.960,16.360,1271.000,249.100,52.410,14.710,88.370,21.820,6.539,2.330,173.100,44.920,12.940,4.706,rest
1456.000,261.200,52.560,16.310,1273.000,249.700,52.810,14.720,90.410,21.680,6.641,2.331,173.700,44.670,12.760,4.679,rest
1450.000,257.700,51.140,16.200,1268.000,248.900,53.050,14.650,88.970,21.550,6.518,2.310,172.100,44.810,12.590,4.652,rest
1449.000,258.200,50.430,16.150,1269.000,248.600,52.100,14.630,88.820,21.620,6.621,2.301,171.400,45.000,12.800,4.660,rest
1449.000,258.500,50.310,16.160,1268.000,248.800,52.400,14.670,94.040,21.430,6.477,2.311,171.900,44.790,12.770,4.676,rest
1450.000,259.800,51.050,16.220,1268.000,248.600,52.370,14.660,86.880,21.410,6.537,2.298,171.400,44.730,12.680,4.664,rest
1450.000,259.100,50.440,16.220,1271.000,249.200,53.330,14.690,92.080,21.330,6.455,2.306,171.900,44.700,12.660,4.704,rest
1454.000,260.100,50.300,16.310,1274.000,249.600,52.510,14.660,91.280,21.480,6.549,2.316,172.500,44.680,12.680,4.681,rest
1455.000,261.600,51.050,16.310,1278.000,249.700,53.070,14.770,90.920,21.420,6.580,2.337,172.200,44.750,12.530,4.689,rest
1458.000,262.000,51.650,16.390,1274.000,250.000,53.170,14.760,92.830,21.300,6.555,2.322,173.800,44.390,12.730,4.687,rest
1455.000,261.100,51.100,16.130,1272.000,248.900,52.620,14.710,88.530,21.770,6.442,2.316,170.900,44.370,12.610,4.636,rest
1450.000,259.100,50.860,16.230,1275.000,249.300,52.830,14.670,92.160,21.290,6.487,2.317,172.500,44.180,12.620,4.649,rest
1450.000,260.300,50.350,16.200,1278.000,249.900,52.740,14.740,88.640,21.230,6.548,2.289,173.200,44.510,12.680,4.627,rest
1451.000,260.100,50.540,16.250,1273.000,249.300,52.250,14.750,88.920,21.010,6.468,2.278,172.800,44.300,12.450,4.684,rest
1451.000,260.400,51.310,16.160,1268.000,249.300,52.610,14.700,90.730,21.110,6.483,2.307,172.500,44.680,12.500,4.704,rest
1450.000,259.400,51.580,16.300,1270.000,250.000,53.060,14.730,88.920,21.380,6.558,2.305,171.800,44.590,12.520,4.654,rest
1453.000,260.200,50.820,16.290,1275.000,250.000,53.220,14.710,87.260,21.020,6.598,2.300,173.300,43.870,12.610,4.687,rest
1457.000,260.900,51.020,16.340,1270.000,250.200,52.910,14.770,89.310,21.420,6.599,2.279,174.200,44.800,12.820,4.659,rest
1459.000,262.400,50.590,16.420,1275.000,250.800,53.410,14.840,93.450,21.340,6.522,2.297,174.400,44.780,12.690,4.749,rest
1462.000,263.500,51.400,16.330,1278.000,250.800,53.190,14.750,92.880,21.670,6.585,2.330,173.300,44.830,12.680,4.611,rest
1452.000,260.500,50.040,16.160,1276.000,250.200,53.540,14.700,86.620,21.170,6.497,2.316,172.400,44.780,12.530,4.691,rest
1452.000,260.600,50.280,16.150,1274.000,250.000,52.280,14.710,91.900,21.080,6.499,2.304,172.500,44.270,12.630,4.633,rest
1450.000,261.100,51.140,16.180,1275.000,250.100,52.860,14.760,88.650,21.480,6.562,2.303,173.100,44.490,12.630,4.709,rest
1451.000,261.700,51.470,16.130,1272.000,250.200,52.960,14.740,90.010,21.430,6.457,2.314,173.200,44.890,12.670,4.666,rest
1451.000,260.400,51.500,16.190,1274.000,250.300,53.710,14.780,91.940,21.140,6.497,2.329,172.900,44.830,12.630,4.667,rest
1453.000,260.900,50.720,16.250,1277.000,251.100,52.370,14.790,92.180,21.340,6.462,2.325,173.400,45.040,12.640,4.699,rest
1455.000,260.300,52.180,16.260,1281.000,251.300,53.590,14.840,90.740,21.290,6.517,2.344,173.400,44.440,12.730,4.687,rest
1458.000,262.000,51.800,16.390,1278.000,251.100,53.340,14.860,92.840,21.380,6.577,2.302,173.600,44.700,12.650,4.705,rest
1459.000,263.200,51.680,16.450,1280.000,251.800,53.590,14.830,91.760,21.460,6.516,2.325,173.500,44.640,12.820,4.677,rest
1455.000,261.900,51.130,16.160,1274.000,250.800,53.510,14.760,91.420,21.600,6.517,2.323,174.400,44.500,12.650,4.703,rest
1451.000,260.200,50.550,16.070,1274.000,250.200,52.960,14.720,90.290,21.930,6.560,2.328,172.800,44.150,12.540,4.678,rest
1450.000,260.100,49.940,16.170,1275.000,251.300,52.810,14.750,89.960,21.400,6.549,2.315,170.500,44.660,12.750,4.668,rest
1451.000,259.700,50.670,16.090,1276.000,251.000,53.280,14.790,91.400,20.910,6.526,2.307,172.400,44.310,12.660,4.683,rest
1450.000,261.800,51.610,16.180,1281.000,250.500,53.080,14.780,87.850,21.230,6.507,2.317,172.300,44.970,12.690,4.692,rest
1452.000,260.700,49.820,16.220,1281.000,250.700,53.900,14.840,91.980,21.770,6.611,2.285,171.900,45.040,12.570,4.732,rest
1454.000,260.700,51.120,16.250,1278.000,251.700,53.230,14.870,96.430,21.030,6.496,2.305,173.900,44.730,12.840,4.666,rest
1457.000,262.200,51.690,16.340,1277.000,252.300,53.580,14.910,93.090,21.340,6.557,2.338,173.600,45.080,12.700,4.679,rest
1459.000,262.700,52.790,16.430,1282.000,252.200,53.680,14.980,85.960,21.780,6.643,2.320,174.200,44.840,12.670,4.745,rest
1462.000,262.100,52.110,16.470,1280.000,251.900,52.970,14.870,92.010,21.620,6.630,2.337,174.000,44.680,12.800,4.717,rest
1454.000,259.900,50.960,16.140,1279.000,251.800,53.170,14.810,91.830,21.220,6.541,2.315,173.300,44.490,12.580,4.623,rest
1452.000,260.000,51.670,16.150,1274.000,251.800,53.230,14.840,89.480,21.560,6.519,2.292,172.700,44.320,12.840,4.702,rest
1452.000,260.200,50.950,16.190,1280.000,251.300,53.570,14.870,90.140,21.350,6.576,2.297,173.900,44.700,12.870,4.661,rest
1452.000,260.400,49.850,16.200,1273.000,251.000,53.370,14.840,89.100,21.250,6.545,2.318,173.200,44.500,12.670,4.673,rest
1452.000,261.100,51.260,16.230,1280.000,251.300,53.420,14.890,89.750,21.420,6.587,2.306,172.300,44.970,12.660,4.707,rest
1455.000,262.200,50.010,16.230,1280.000,252.600,53.510,14.930,90.280,21.470,6.525,2.295,173.400,45.000,12.760,4.720,rest
1458.000,264.200,50.220,16.350,1286.000,252.200,53.460,14.980,94.050,21.650,6.571,2.316,174.000,45.030,12.780,4.733,rest
1460.000,264.200,51.530,16.470,1289.000,253.400,54.250,15.040,89.320,21.270,6.545,2.337,175.100,45.290,12.790,4.723,rest
1464.000,262.800,52.190,16.490,1285.000,252.700,53.270,14.930,93.410,21.360,6.640,2.345,172.800,44.660,12.630,4.708,rest
1455.000,261.200,51.090,16.230,1279.000,251.400,53.530,14.870,91.340,21.380,6.464,2.309,173.600,44.750,12.760,4.692,rest
1453.000,259.900,52.020,16.220,1280.000,252.300,53.300,14.870,90.580,21.480,6.557,2.305,173.500,44.520,12.610,4.651,rest
1455.000,260.400,52.010,16.240,1281.000,252.500,53.080,14.920,87.460,21.320,6.472,2.327,172.900,45.100,12.650,4.614,rest
1455.000,259.800,52.050,16.220,1279.000,252.200,53.860,14.860,92.410,21.670,6.464,2.300,173.700,44.740,12.740,4.598,rest
1455.000,261.200,50.890,16.260,1278.000,251.800,53.610,14.970,91.110,21.580,6.533,2.352,173.400,44.830,12.780,4.645,rest
1458.000,262.800,51.400,16.390,1285.000,252.900,54.060,14.950,88.340,21.850,6.568,2.318,174.100,44.450,12.800,4.749,rest
1461.000,263.400,51.630,16.380,1284.000,253.300,54.060,14.980,92.050,21.480,6.529,2.308,174.300,45.220,12.900,4.690,rest
1464.000,264.200,52.680,16.530,1286.000,253.500,53.760,15.040,93.740,21.540,6.506,2.337,174.700,45.000,12.730,4.726,rest
1460.000,262.700,50.860,16.200,1283.000,252.000,54.100,14.840,88.380,21.290,6.565,2.300,173.700,44.670,12.730,4.639,rest
1455.000,259.800,52.020,16.220,1280.000,252.000,53.520,14.900,88.850,21.000,6.480,2.294,172.800,44.540,12.720,4.693,rest
1455.000,260.600,50.770,16.270,1284.000,252.200,53.300,14.960,91.170,21.150,6.471,2.294,171.800,44.650,12.540,4.658,rest
1457.000,261.700,50.430,16.250,1283.000,252.500,53.750,14.930,86.790,21.410,6.545,2.307,173.900,44.690,12.710,4.680,rest
1458.000,260.300,51.620,16.290,1281.000,252.100,53.780,14.970,91.060,21.420,6.648,2.305,174.100,44.650,12.830,4.723,rest
1458.000,261.300,51.330,16.370,1280.000,253.000,53.720,14.960,88.720,21.330,6.475,2.298,174.700,45.030,12.820,4.642,rest
1461.000,262.500,52.710,16.400,1284.000,253.200,53.830,14.990,90.730,21.310,6.553,2.292,173.800,44.900,12.880,4.629,rest
1466.000,264.000,52.010,16.590,1281.000,254.200,54.330,15.020,88.030,21.300,6.458,2.299,172.900,45.580,12.820,4.710,rest
1465.000,263.700,51.470,16.500,1282.000,253.300,53.780,14.890,91.360,21.780,6.452,2.315,174.300,45.070,12.620,4.614,rest
1456.000,259.200,50.920,16.190,1286.000,252.800,53.260,14.890,89.940,21.390,6.502,2.299,172.700,44.590,12.620,4.698,rest
1454.000,260.600,50.930,16.280,1285.000,252.400,53.620,14.970,92.390,21.300,6.435,2.295,173.200,44.910,12.610,4.657,rest
1455.000,262.600,50.570,16.250,1284.000,252.400,53.980,14.880,88.150,21.420,6.480,2.302,172.600,44.160,12.600,4.654,rest
1455.000,260.600,51.350,16.290,1280.000,252.600,54.050,14.930,90.560,20.680,6.556,2.275,173.200,44.550,12.700,4.666,rest
1455.000,260.200,51.360,16.250,1287.000,252.800,53.660,14.960,93.160,21.330,6.443,2.311,173.800,44.380,12.600,4.619,rest
1457.000,262.800,52.660,16.440,1288.000,253.000,53.820,14.950,91.710,21.620,6.466,2.288,174.200,45.030,12.860,4.608,rest
1459.000,262.900,52.320,16.450,1288.000,253.600,54.390,14.980,91.340,21.100,6.472,2.321,174.300,44.590,12.770,4.695,rest
1464.000,263.300,52.610,16.490,1285.000,253.000,53.500,14.910,88.380,21.840,6.478,2.296,173.000,44.900,12.550,4.676,rest
1454.000,260.900,50.300,16.180,1284.000,252.600,53.810,14.870,90.620,21.360,6.432,2.267,172.000,44.560,12.440,4.638,rest
1470.000,262.800,50.730,16.590,1286.000,253.500,54.250,15.000,90.250,20.830,6.448,2.283,171.800,44.050,12.820,4.612,easy
1472.000,265.300,51.960,16.570,1287.000,253.300,54.110,15.000,90.200,21.220,6.411,2.272,173.300,44.480,12.720,4.637,easy
1473.000,264.200,52.350,16.590,1293.000,253.600,53.990,15.050,92.890,21.020,6.403,2.279,172.200,45.050,12.820,4.719,easy
1475.000,264.400,53.000,16.750,1291.000,254.600,54.760,15.090,87.740,21.160,6.512,2.265,173.900,44.800,12.820,4.688,easy
1476.000,264.800,52.820,16.650,1292.000,254.100,53.770,15.000,89.390,20.720,6.471,2.298,171.100,44.570,12.580,4.663,easy
1470.000,264.300,53.030,16.480,1292.000,254.000,53.860,15.050,89.730,21.490,6.445,2.282,172.100,44.050,12.550,4.686,easy
1470.000,262.600,51.730,16.490,1293.000,253.000,53.660,15.070,90.060,20.850,6.391,2.277,172.900,44.830,12.650,4.598,easy
1470.000,263.600,53.440,16.560,1291.000,253.800,53.420,14.970,89.860,20.710,6.377,2.282,171.800,44.400,12.770,4.728,easy
1470.000,265.700,52.910,16.620,1288.000,253.700,54.000,15.010,88.240,20.670,6.388,2.296,172.300,44.580,12.670,4.641,easy
1470.000,264.800,52.140,16.650,1291.000,253.700,54.230,15.070,87.400,20.760,6.371,2.305,172.800,44.590,12.720,4.650,easy
1472.000,264.400,52.090,16.650,1292.000,254.100,54.320,15.080,89.370,20.830,6.462,2.278,172.500,44.800,12.710,4.712,easy
1473.000,266.700,52.460,16.800,1290.000,254.300,54.160,15.120,89.540,20.960,6.430,2.275,174.200,44.830,12.690,4.690,easy
1477.000,266.000,52.850,16.850,1288.000,253.900,54.690,15.090,88.180,20.900,6.455,2.276,174.400,44.900,12.750,4.670,easy
1471.000,264.200,51.870,16.590,1285.000,253.100,54.200,14.980,88.940,21.020,6.418,2.265,174.100,44.400,12.520,4.656,easy
1470.000,264.700,52.010,16.560,1288.000,253.600,53.930,15.020,90.650,21.060,6.439,2.268,172.400,44.800,12.700,4.708,easy
1467.000,262.600,52.570,16.530,1285.000,253.300,52.970,15.000,91.240,21.250,6.441,2.267,174.200,44.520,12.690,4.682,easy
1469.000,264.100,51.210,16.540,1296.000,253.600,52.980,15.040,91.360,20.440,6.425,2.251,172.800,44.140,12.420,4.650,easy
1474.000,265.500,52.700,16.620,1292.000,254.800,52.690,15.010,92.780,20.500,6.324,2.276,172.600,43.160,12.330,4.624,easy
1476.000,265.100,50.880,16.680,1291.000,254.900,52.530,15.090,88.690,20.130,6.372,2.250,172.900,43.770,12.610,4.653,easy
1476.000,264.200,52.340,16.730,1289.000,254.700,52.870,15.170,86.420,20.370,6.262,2.237,171.900,44.330,12.600,4.643,easy
1465.000,263.500,53.880,17.210,1273.000,251.400,54.100,15.430,94.120,20.860,6.462,2.245,177.000,45.230,13.020,4.707,easy
1452.000,262.900,53.020,17.180,1272.000,251.600,54.060,15.290,93.450,20.800,6.517,2.277,177.000,45.340,12.850,4.698,easy
1452.000,261.100,51.070,17.040,1279.000,251.100,54.030,15.230,92.860,21.270,6.536,2.305,175.300,45.600,12.960,4.678,easy
1457.000,262.300,52.500,16.960,1281.000,252.300,54.360,15.300,94.310,21.490,6.597,2.299,176.700,46.410,12.960,4.709,easy
1458.000,262.400,53.180,17.080,1284.000,251.900,54.400,15.340,88.570,21.700,6.587,2.286,175.700,46.360,12.840,4.804,easy
1458.000,265.300,51.430,17.010,1285.000,252.000,54.150,15.290,94.680,21.720,6.538,2.334,175.700,46.690,13.120,4.741,easy
1462.000,263.800,52.550,17.050,1290.000,252.400,54.250,15.320,94.570,21.120,6.552,2.312,176.200,46.630,13.110,4.832,easy
1464.000,264.600,53.040,17.100,1288.000,252.800,53.920,15.410,91.810,21.900,6.584,2.323,176.600,46.560,13.150,4.846,easy
1467.000,264.300,53.530,17.130,1288.000,253.400,54.300,15.390,92.550,22.250,6.720,2.332,176.400,46.850,13.340,4.811,easy
1470.000,266.300,54.370,17.230,1285.000,252.800,54.290,15.320,91.670,21.970,6.668,2.320,175.400,46.580,13.270,4.807,easy
1463.000,263.400,51.920,16.980,1282.000,251.700,53.720,15.250,92.190,22.030,6.511,2.340,175.600,46.740,12.990,4.781,easy
1463.000,262.700,52.500,16.960,1287.000,252.400,54.280,15.250,88.120,21.860,6.539,2.281,175.000,46.540,13.090,4.810,easy
1464.000,262.500,53.670,17.000,1281.000,253.400,54.760,15.340,90.610,21.800,6.612,2.330,175.900,46.620,13.190,4.864,easy
1465.000,264.300,52.120,17.070,1281.000,253.200,53.580,15.230,94.540,21.960,6.627,2.337,175.400,46.540,13.260,4.823,easy
1468.000,261.600,53.140,17.120,1289.000,253.300,55.300,15.330,91.820,21.800,6.527,2.340,175.600,46.670,13.290,4.837,easy
1469.000,264.400,52.970,17.160,1289.000,254.200,54.570,15.340,95.280,22.130,6.628,2.323,174.800,46.600,13.240,4.839,easy
1471.000,265.600,51.470,17.210,1291.000,254.000,53.990,15.350,92.370,21.980,6.512,2.309,176.300,46.490,13.220,4.817,easy
1474.000,265.700,52.850,17.240,1285.000,254.400,54.760,15.310,93.230,21.810,6.567,2.319,176.700,46.580,13.080,4.843,easy
1472.000,264.600,53.390,17.000,1285.000,253.800,53.990,15.250,92.120,21.710,6.541,2.309,174.800,46.560,13.110,4.783,easy
1470.000,264.500,52.660,17.000,1290.000,253.600,53.610,15.280,88.820,21.760,6.575,2.311,174.400,46.230,13.170,4.824,easy
1472.000,264.900,54.120,16.900,1293.000,254.000,53.880,15.240,96.830,21.560,6.576,2.267,174.700,45.980,12.870,4.778,easy
1473.000,264.300,53.430,16.950,1290.000,254.800,53.990,15.260,93.390,21.530,6.525,2.308,174.100,46.150,13.010,4.741,easy
1472.000,264.500,53.410,17.000,1287.000,253.800,54.250,15.280,89.210,21.750,6.430,2.308,174.300,45.920,12.980,4.764,easy
1474.000,264.900,53.430,17.040,1290.000,254.100,53.920,15.290,89.700,21.450,6.490,2.320,175.200,46.340,13.180,4.808,easy
1478.000,266.100,52.790,17.170,1296.000,254.700,53.830,15.330,92.380,21.480,6.559,2.301,174.800,46.420,13.070,4.829,easy
1478.000,266.500,51.770,17.130,1298.000,254.300,54.610,15.340,89.630,21.840,6.565,2.334,174.000,46.320,13.160,4.771,easy
1478.000,265.100,53.450,16.940,1294.000,254.300,54.630,15.220,92.650,22.120,6.567,2.294,174.200,46.270,12.970,4.784,easy
1471.000,264.200,51.610,16.860,1288.000,253.600,53.890,15.240,92.540,21.720,6.491,2.305,172.700,45.990,13.000,4.713,easy
1472.000,265.600,52.950,16.790,1290.000,253.900,54.250,15.230,92.790,21.390,6.525,2.293,173.200,46.130,12.910,4.692,easy
1473.000,264.600,53.700,16.900,1291.000,254.700,54.700,15.270,93.360,21.500,6.500,2.306,173.900,46.150,12.780,4.715,easy
1472.000,265.200,52.170,16.910,1290.000,254.300,53.740,15.260,87.580,21.560,6.557,2.318,173.100,45.600,12.920,4.747,easy
1476.000,265.700,53.380,17.040,1294.000,255.200,53.990,15.280,90.830,21.760,6.558,2.310,175.300,45.470,12.930,4.724,easy
1477.000,265.300,53.180,17.050,1295.000,254.200,53.910,15.390,92.970,21.640,6.572,2.267,175.700,45.720,12.950,4.746,easy
1480.000,265.700,53.250,17.140,1296.000,254.900,54.280,15.430,91.070,21.090,6.493,2.287,174.300,46.050,13.040,4.763,easy
1478.000,265.700,52.050,16.910,1296.000,254.400,54.310,15.230,92.570,21.450,6.556,2.277,175.400,45.720,12.840,4.698,easy
1473.000,264.300,52.190,16.830,1287.000,253.900,54.150,15.230,88.000,21.420,6.388,2.268,171.700,45.630,12.840,4.693,easy
1472.000,264.300,51.650,16.850,1290.000,254.600,54.370,15.250,87.060,22.080,6.435,2.282,171.700,45.500,12.730,4.687,easy
1472.000,265.000,51.960,16.850,1288.000,254.600,54.760,15.280,92.730,21.260,6.449,2.278,173.400,45.350,12.680,4.688,easy
1474.000,266.100,51.830,16.870,1293.000,254.400,54.180,15.250,88.940,21.850,6.498,2.271,173.200,45.380,12.600,4.696,easy
1475.000,265.000,51.750,16.840,1292.000,254.500,54.300,15.320,92.510,21.610,6.374,2.266,173.100,44.980,12.860,4.654,easy
1478.000,266.600,52.410,16.920,1298.000,255.700,54.250,15.360,90.040,21.660,6.470,2.269,173.900,45.280,12.750,4.726,easy
1481.000,267.100,52.120,17.030,1302.000,255.600,54.070,15.310,92.010,21.520,6.508,2.264,173.200,44.920,12.680,4.680,easy
1477.000,265.400,52.110,16.670,1296.000,254.600,53.810,15.200,90.240,21.480,6.465,2.258,172.700,45.010,12.810,4.620,easy
1473.000,264.400,52.450,16.650,1294.000,255.000,54.750,15.230,91.710,21.140,6.388,2.289,171.600,44.850,12.580,4.557,easy
1473.000,263.700,51.080,16.670,1289.000,255.400,53.670,15.180,89.940,21.480,6.368,2.277,172.200,44.640,12.610,4.631,easy
1473.000,265.300,51.520,16.630,1287.000,255.100,53.380,15.230,90.980,21.410,6.333,2.241,171.300,44.630,12.580,4.620,easy
1472.000,263.800,51.980,16.630,1291.000,255.400,53.760,15.200,91.850,21.290,6.324,2.256,170.500,44.140,12.580,4.588,easy
1473.000,264.000,52.300,16.690,1293.000,255.000,53.630,15.220,89.500,21.220,6.277,2.278,170.700,44.530,12.630,4.629,easy
1475.000,264.900,51.160,16.760,1296.000,255.800,53.900,15.240,92.040,21.170,6.376,2.266,171.500,44.140,12.670,4.662,easy
1476.000,266.000,51.700,16.750,1290.000,255.200,54.460,15.190,89.700,21.430,6.420,2.266,171.000,44.120,12.600,4.606,easy
1469.000,264.400,51.090,16.510,1290.000,255.100,53.920,15.120,89.510,21.140,6.314,2.240,170.100,43.580,12.460,4.545,easy
1466.000,262.200,51.770,16.430,1288.000,254.500,54.200,15.150,90.490,21.020,6.384,2.260,170.900,43.720,12.360,4.564,easy
1466.000,263.400,50.720,16.470,1291.000,255.300,53.770,15.180,90.980,21.110,6.324,2.248,169.200,43.210,12.260,4.598,easy
1466.000,263.800,51.430,16.340,1294.000,255.000,54.400,15.140,89.180,21.300,6.367,2.234,169.200,43.050,12.220,4.461,easy
1465.000,262.800,51.510,16.440,1296.000,255.200,54.240,15.150,90.960,21.010,6.286,2.237,169.600,43.060,12.250,4.542,easy
1467.000,264.100,51.900,16.460,1293.000,255.900,54.070,15.220,91.610,20.820,6.341,2.250,169.400,43.410,12.330,4.524,easy
1469.000,264.800,52.020,16.540,1296.000,255.900,54.680,15.180,85.650,21.020,6.399,2.274,171.100,43.320,12.400,4.578,easy
1470.000,264.600,52.870,16.510,1292.000,255.500,54.320,15.160,89.830,21.280,6.493,2.258,169.800,43.710,12.390,4.474,easy
1464.000,262.900,51.420,16.260,1287.000,255.500,53.960,15.100,89.670,21.140,6.350,2.277,168.200,43.510,12.130,4.516,easy
1461.000,262.200,52.110,16.310,1295.000,254.800,54.240,15.090,91.290,21.080,6.372,2.265,168.400,42.890,12.270,4.536,easy
1459.000,263.000,50.670,16.290,1284.000,255.400,53.860,15.130,94.260,20.940,6.339,2.254,168.500,43.090,12.240,4.506,easy
1459.000,262.300,49.380,16.310,1288.000,255.700,54.330,15.150,89.240,21.060,6.389,2.244,167.700,42.910,12.240,4.487,easy
1459.000,264.400,50.230,16.300,1296.000,255.200,54.690,15.130,88.980,21.090,6.422,2.256,168.900,43.610,12.170,4.486,easy
1460.000,263.200,51.970,16.410,1291.000,254.900,54.160,15.170,89.650,21.150,6.486,2.226,168.800,43.190,12.230,4.530,easy
1463.000,263.800,51.150,16.360,1294.000,256.800,54.440,15.220,88.290,21.080,6.413,2.263,169.900,42.920,12.380,4.543,easy
1466.000,264.000,51.540,16.480,1294.000,256.300,54.890,15.260,93.480,21.270,6.414,2.273,169.200,43.190,12.440,4.546,easy
1465.000,262.500,52.920,16.360,1292.000,255.800,53.950,15.130,87.640,20.940,6.438,2.277,169.100,43.060,12.200,4.515,easy
1458.000,261.700,51.210,16.220,1289.000,255.700,53.420,15.110,89.440,21.200,6.362,2.259,168.600,43.080,12.320,4.480,easy
1457.000,261.800,51.530,16.260,1294.000,255.700,54.180,15.140,90.470,20.820,6.419,2.273,169.400,42.720,12.180,4.508,easy
1457.000,261.700,52.190,16.260,1292.000,255.600,54.180,15.140,90.440,21.400,6.363,2.253,170.200,43.090,12.190,4.548,easy
1459.000,261.600,51.020,16.330,1293.000,255.100,54.280,15.110,87.590,20.710,6.473,2.235,169.600,42.880,12.180,4.475,easy
1458.000,261.300,51.400,16.290,1291.000,256.600,54.880,15.150,91.090,20.830,6.346,2.251,170.300,43.080,12.220,4.500,easy
1461.000,263.900,51.900,16.400,1297.000,256.300,54.230,15.250,89.620,20.970,6.403,2.279,168.300,43.260,12.330,4.520,easy
1463.000,262.200,51.770,16.570,1292.000,256.600,55.300,15.280,90.890,21.040,6.457,2.244,170.700,43.510,12.230,4.561,easy
1466.000,264.800,52.630,16.590,1300.000,257.000,54.500,15.240,92.690,21.290,6.490,2.247,170.400,43.330,12.310,4.506,easy
1463.000,263.600,51.510,16.440,1293.000,256.400,54.400,15.240,88.560,21.080,6.363,2.273,170.300,43.380,12.300,4.475,easy
1461.000,262.500,51.300,16.430,1292.000,256.000,54.130,15.230,88.820,20.820,6.371,2.236,169.900,43.540,12.340,4.501,easy
1461.000,263.800,52.310,16.410,1298.000,256.100,54.300,15.170,87.630,21.530,6.492,2.258,170.400,43.580,12.320,4.507,easy
1463.000,262.700,51.720,16.510,1300.000,255.800,54.220,15.240,91.940,21.290,6.357,2.265,169.900,43.510,12.470,4.552,easy
1464.000,262.700,52.960,16.550,1305.000,256.400,54.460,15.160,89.970,20.830,6.449,2.258,172.900,43.230,12.340,4.552,easy
1466.000,262.700,52.810,16.550,1297.000,256.900,54.470,15.220,87.790,20.910,6.394,2.297,172.600,43.790,12.280,4.527,easy
1469.000,264.600,53.040,16.570,1302.000,258.300,54.640,15.270,87.300,21.290,6.408,2.284,170.500,43.590,12.460,4.563,easy
1472.000,265.600,52.600,16.750,1300.000,257.200,54.320,15.280,90.490,21.520,6.460,2.303,172.100,44.190,12.510,4.596,easy
1476.000,266.300,51.740,16.680,1297.000,258.300,55.210,15.220,91.920,21.190,6.525,2.301,171.400,43.880,12.470,4.585,easy
1472.000,266.000,51.890,16.640,1299.000,257.700,54.870,15.270,93.030,21.070,6.506,2.300,172.000,44.000,12.530,4.580,easy
1472.000,265.100,51.480,16.630,1298.000,257.400,54.850,15.300,91.350,21.110,6.526,2.304,171.500,43.910,12.500,4.637,easy
1473.000,265.800,51.810,16.730,1303.000,257.500,54.380,15.320,90.940,21.520,6.519,2.311,172.200,43.920,12.550,4.617,easy
1474.000,265.400,52.440,16.740,1303.000,258.600,55.150,15.310,86.280,21.500,6.529,2.302,172.600,44.210,12.460,4.622,easy
1475.000,266.700,53.390,16.730,1304.000,258.400,54.860,15.360,89.470,21.290,6.548,2.273,173.400,44.310,12.440,4.646,easy
1480.000,266.200,52.340,16.850,1306.000,258.900,55.250,15.330,88.530,21.350,6.452,2.309,173.200,44.360,12.690,4.591,easy
1481.000,268.000,53.420,16.880,1306.000,258.300,55.330,15.370,89.870,21.650,6.490,2.318,173.900,44.300,12.540,4.639,easy
1485.000,268.600,53.510,16.950,1301.000,259.200,54.630,15.320,94.110,21.750,6.529,2.303,173.700,44.710,12.680,4.646,easy
1479.000,266.800,52.660,16.810,1302.000,258.800,54.740,15.300,88.900,21.820,6.604,2.333,173.000,44.080,12.640,4.620,easy
1481.000,267.000,52.290,16.780,1304.000,258.800,54.770,15.340,89.480,21.400,6.471,2.304,173.200,44.600,12.650,4.619,easy
1482.000,267.700,53.360,16.900,1302.000,258.900,55.140,15.400,94.290,21.410,6.493,2.318,172.700,44.560,12.600,4.656,easy
1483.000,268.300,51.790,16.920,1303.000,258.900,54.690,15.410,90.740,21.140,6.569,2.313,174.000,44.530,12.590,4.660,easy
1484.000,268.500,52.570,16.980,1303.000,258.600,55.650,15.350,93.690,21.170,6.603,2.326,173.600,45.250,12.650,4.676,easy
1487.000,269.600,52.490,17.040,1310.000,259.000,55.190,15.440,89.700,21.530,6.561,2.315,175.000,45.080,12.890,4.732,easy
1489.000,270.800,53.870,17.020,1310.000,259.900,55.530,15.470,94.050,21.480,6.567,2.309,172.600,44.880,12.780,4.715,easy
1492.000,269.900,53.680,17.080,1310.000,260.300,55.470,15.470,93.920,21.460,6.539,2.324,174.600,44.960,12.790,4.670,easy
1490.000,270.500,53.670,17.020,1306.000,259.900,54.550,15.400,91.090,21.600,6.588,2.338,175.500,45.010,12.650,4.705,easy
1488.000,268.600,52.870,16.940,1309.000,258.900,54.830,15.400,92.280,21.610,6.565,2.312,176.400,44.800,12.700,4.678,easy
1488.000,268.600,53.920,16.930,1309.000,260.000,55.330,15.420,92.800,21.430,6.544,2.327,174.200,45.350,12.740,4.738,easy
1490.000,268.600,53.990,17.060,1309.000,260.500,54.980,15.440,91.470,21.400,6.589,2.344,175.100,45.030,12.780,4.651,easy
1491.000,269.700,53.450,17.120,1305.000,259.800,55.360,15.450,89.490,21.490,6.514,2.339,175.100,44.850,12.850,4.735,easy
1491.000,270.200,52.780,17.070,1305.000,259.900,55.140,15.470,90.710,21.700,6.581,2.327,175.400,45.040,12.710,4.682,easy
1494.000,270.000,52.870,17.150,1306.000,260.400,55.850,15.480,91.510,21.780,6.601,2.335,174.700,45.260,12.900,4.769,easy
1497.000,270.700,53.910,17.190,1309.000,260.200,55.780,15.530,93.270,21.720,6.560,2.322,176.200,45.560,12.770,4.770,easy
1498.000,271.800,52.150,17.230,1309.000,261.200,55.810,15.530,91.750,21.500,6.607,2.342,176.000,44.950,12.810,4.782,easy
1494.000,270.500,52.670,17.060,1300.000,260.100,55.230,15.470,91.960,21.500,6.623,2.325,174.200,45.160,12.620,4.721,easy
1491.000,270.200,54.750,16.980,1306.000,259.800,54.960,15.470,92.250,21.690,6.548,2.352,174.900,44.970,12.530,4.737,easy
1489.000,269.300,53.950,16.990,1309.000,260.200,54.900,15.490,88.710,21.240,6.499,2.322,174.000,44.550,12.690,4.715,easy
1490.000,267.900,53.450,16.980,1310.000,259.800,55.350,15.480,90.270,21.040,6.608,2.327,175.900,44.860,12.720,4.680,easy
1493.000,268.900,53.550,17.070,1307.000,259.800,55.060,15.510,88.850,21.720,6.519,2.339,175.400,44.980,12.880,4.703,easy
1493.000,271.100,54.260,17.060,1310.000,260.600,54.870,15.500,91.590,21.400,6.597,2.354,175.100,45.410,12.650,4.751,easy
1494.000,269.400,53.210,17.090,1308.000,260.000,56.130,15.530,94.180,21.450,6.623,2.337,176.800,45.140,12.840,4.763,easy
1495.000,270.500,54.670,17.110,1304.000,260.200,55.840,15.560,91.880,21.800,6.650,2.332,175.700,44.970,12.810,4.756,easy
1497.000,270.400,53.570,17.140,1306.000,260.200,55.570,15.480,90.530,21.450,6.639,2.351,174.200,45.000,12.870,4.742,easy
1490.000,269.000,52.790,16.920,1307.000,259.100,55.760,15.420,92.250,21.540,6.615,2.317,174.400,44.370,12.730,4.684,easy
1490.000,268.200,53.200,16.960,1306.000,259.600,55.600,15.410,94.200,21.460,6.610,2.326,173.900,44.800,12.630,4.683,easy
1487.000,269.700,51.480,16.840,1304.000,259.400,55.810,15.390,90.960,21.470,6.560,2.333,174.600,45.040,12.680,4.652,easy
1487.000,268.200,53.020,16.850,1300.000,259.100,55.700,15.380,92.040,21.300,6.599,2.339,173.400,44.550,12.760,4.669,easy
1487.000,267.400,53.220,16.820,1307.000,259.600,54.800,15.460,93.930,21.650,6.594,2.354,174.200,44.930,12.770,4.713,easy
1489.000,269.400,51.920,16.960,1309.000,259.600,55.550,15.530,90.080,21.380,6.502,2.328,174.800,44.690,12.660,4.730,easy
1489.000,269.800,54.680,16.950,1307.000,260.200,56.060,15.530,91.570,21.280,6.541,2.349,174.500,44.670,12.790,4.773,easy
1491.000,269.100,53.270,16.990,1306.000,260.700,55.710,15.590,92.480,21.880,6.594,2.346,175.000,44.800,12.810,4.716,easy
1494.000,270.600,54.860,17.040,1306.000,260.100,55.840,15.530,93.770,21.390,6.612,2.333,175.900,45.240,12.850,4.694,easy
1488.000,268.200,52.710,16.870,1303.000,259.400,55.500,15.460,90.130,21.510,6.512,2.349,174.200,44.830,12.860,4.705,easy
1485.000,266.900,53.010,16.840,1307.000,259.800,55.260,15.470,91.900,21.550,6.590,2.351,172.100,44.700,12.640,4.676,easy
1485.000,268.700,52.750,16.850,1306.000,259.200,55.690,15.500,88.960,21.210,6.639,2.347,173.400,44.910,12.500,4.692,easy
1485.000,269.000,52.610,16.780,1303.000,259.400,55.500,15.500,94.590,21.340,6.634,2.341,174.300,44.410,12.660,4.723,easy
1485.000,268.400,51.490,16.840,1303.000,260.100,56.000,15.480,91.350,21.620,6.609,2.330,173.100,44.790,12.570,4.694,easy
1487.000,268.700,52.910,16.860,1308.000,259.800,55.560,15.530,90.740,21.260,6.600,2.331,174.800,44.800,12.710,4.670,easy
1488.000,269.100,53.320,16.950,1304.000,260.400,55.720,15.560,94.460,21.340,6.637,2.329,175.000,44.950,12.800,4.730,easy
1491.000,269.900,53.820,17.010,1305.000,260.500,55.960,15.570,91.530,21.830,6.679,2.352,174.100,44.520,12.880,4.715,easy
1488.000,268.200,53.610,16.800,1300.000,259.600,55.570,15.450,94.230,21.480,6.613,2.340,173.300,44.550,12.710,4.704,easy
1483.000,266.600,53.550,16.760,1305.000,260.100,55.950,15.520,94.870,21.520,6.636,2.335,174.300,44.430,12.670,4.697,easy
1484.000,266.500,53.420,16.760,1307.000,259.600,55.240,15.440,89.310,21.430,6.554,2.339,173.100,44.530,12.800,4.618,easy
1483.000,267.100,53.990,16.800,1304.000,260.300,55.640,15.510,94.010,21.050,6.618,2.334,174.500,44.590,12.550,4.684,easy
1483.000,268.500,52.170,16.870,1305.000,260.500,55.350,15.520,88.530,21.310,6.651,2.334,174.500,44.860,12.810,4.652,easy
1484.000,269.000,52.590,16.860,1306.000,260.200,55.610,15.520,92.270,21.510,6.569,2.357,174.300,44.480,12.680,4.660,easy
1488.000,269.800,53.590,16.920,1304.000,259.900,56.060,15.560,92.320,21.740,6.643,2.347,174.000,44.820,12.860,4.701,easy
1489.000,269.100,52.710,16.980,1310.000,260.900,56.230,15.620,89.710,21.580,6.640,2.356,175.400,44.980,12.680,4.697,easy
1492.000,271.700,53.040,17.050,1306.000,261.000,55.590,15.460,91.750,21.630,6.636,2.361,175.300,44.740,12.840,4.680,easy
1485.000,267.200,53.110,16.790,1308.000,259.500,55.570,15.470,90.090,21.100,6.575,2.284,174.800,44.480,12.770,4.690,easy
1484.000,268.000,52.990,16.860,1307.000,259.800,55.660,15.510,91.040,21.410,6.501,2.320,175.900,44.470,12.690,4.708,easy
1484.000,267.400,53.010,16.890,1311.000,260.200,55.940,15.530,91.330,21.410,6.560,2.320,175.200,44.380,12.650,4.686,easy
1485.000,268.300,53.640,16.850,1308.000,260.200,55.480,15.530,90.330,21.330,6.617,2.343,174.300,44.820,12.700,4.667,easy
1485.000,269.000,53.950,16.870,1309.000,260.600,55.230,15.510,90.850,21.240,6.554,2.332,173.200,44.800,12.720,4.695,easy
1487.000,269.100,54.600,16.960,1309.000,260.900,55.590,15.530,88.330,21.330,6.558,2.333,175.300,44.910,12.750,4.712,easy
1491.000,269.900,54.400,17.010,1308.000,260.700,56.010,15.620,93.580,21.630,6.567,2.318,175.200,44.860,12.810,4.713,easy
1493.000,270.800,52.990,17.120,1309.000,261.700,56.030,15.600,91.220,21.630,6.496,2.312,175.200,44.810,12.820,4.738,easy
1495.000,271.600,53.070,17.130,1309.000,261.400,56.280,15.540,92.820,21.450,6.566,2.323,175.500,44.940,12.920,4.670,easy
1489.000,269.300,51.910,16.860,1306.000,260.100,55.530,15.490,92.460,21.610,6.564,2.335,176.000,45.130,12.890,4.701,easy
1488.000,269.200,52.950,16.850,1303.000,260.300,56.250,15.530,91.300,21.820,6.555,2.342,176.200,44.650,12.770,4.701,easy
1488.000,268.400,53.100,16.880,1307.000,261.300,55.870,15.580,90.810,21.410,6.510,2.322,175.900,44.810,12.850,4.704,easy
1490.000,269.200,53.570,16.970,1312.000,260.300,55.420,15.560,93.410,21.610,6.561,2.336,176.100,45.150,12.770,4.752,easy
1490.000,271.000,52.830,16.960,1311.000,260.900,55.500,15.550,91.900,21.420,6.529,2.324,174.900,44.990,12.820,4.741,easy
1490.000,269.900,54.290,17.030,1312.000,260.800,55.730,15.600,90.860,21.670,6.646,2.327,175.400,45.250,12.910,4.728,easy
1494.000,270.900,53.480,17.120,1308.000,261.200,55.630,15.670,94.500,21.680,6.594,2.327,174.800,45.330,12.930,4.780,easy
1497.000,270.000,54.460,17.140,1314.000,261.300,56.330,15.640,90.170,21.770,6.616,2.332,173.600,45.420,12.920,4.801,easy
1497.000,271.200,53.810,17.160,1310.000,261.500,55.230,15.680,91.600,21.290,6.621,2.330,175.200,45.650,13.000,4.807,easy
1495.000,268.900,52.730,17.020,1310.000,260.800,55.700,15.590,91.810,21.800,6.665,2.307,174.900,45.300,12.840,4.778,easy
1491.000,269.800,53.540,17.120,1310.000,261.100,55.390,15.560,92.210,21.300,6.481,2.328,174.500,45.100,13.050,4.749,easy
1493.000,270.200,53.770,17.040,1308.000,261.000,56.490,15.540,91.280,21.460,6.531,2.330,175.200,45.010,12.960,4.787,easy
1494.000,270.900,52.750,17.090,1307.000,261.100,56.000,15.600,92.910,21.500,6.569,2.311,177.500,45.240,12.880,4.683,easy
1495.000,270.500,52.990,17.050,1310.000,260.500,55.930,15.590,91.620,21.470,6.537,2.299,176.500,45.070,12.930,4.799,easy
1496.000,270.600,52.140,17.150,1302.000,261.300,56.080,15.640,92.260,21.420,6.606,2.330,175.100,45.370,12.850,4.779,easy
1499.000,271.300,53.340,17.180,1311.000,261.600,56.360,15.640,92.760,21.620,6.642,2.315,177.500,45.430,12.880,4.843,easy
1503.000,271.900,55.420,17.240,1312.000,262.700,55.910,15.650,91.640,21.300,6.604,2.315,177.300,45.150,13.120,4.822,easy
1504.000,273.700,54.300,17.450,1317.000,263.100,56.010,15.680,94.090,21.550,6.629,2.327,176.700,46.100,12.970,4.861,easy
1502.000,273.000,53.450,17.110,1309.000,261.400,56.220,15.590,93.780,21.490,6.568,2.343,175.000,45.470,13.000,4.794,easy
1497.000,270.000,53.560,17.120,1311.000,261.100,56.470,15.600,94.580,21.390,6.530,2.342,176.300,45.380,12.930,4.764,easy
1496.000,270.900,53.970,17.170,1310.000,261.700,55.990,15.620,92.860,21.480,6.554,2.311,176.700,45.110,12.880,4.814,easy
1497.000,271.300,54.630,17.240,1305.000,261.400,56.450,15.670,93.690,21.670,6.582,2.323,176.300,45.310,13.070,4.797,easy
1497.000,270.200,53.470,17.160,1308.000,261.500,56.030,15.620,94.220,21.410,6.463,2.322,177.900,45.310,12.820,4.841,easy
1498.000,272.100,53.770,17.260,1309.000,262.000,56.250,15.660,92.500,21.490,6.582,2.341,175.300,45.390,13.220,4.804,easy
1500.000,272.000,53.710,17.310,1309.000,261.800,56.830,15.630,88.680,21.360,6.538,2.320,176.500,45.780,13.020,4.785,easy
1503.000,273.500,54.530,17.370,1313.000,261.800,56.060,15.740,94.900,21.220,6.521,2.329,177.200,45.710,12.830,4.849,easy
1504.000,272.700,53.980,17.340,1312.000,261.600,56.150,15.610,91.450,21.500,6.578,2.300,177.200,45.860,12.990,4.764,easy
1495.000,270.600,54.570,17.100,1308.000,260.600,55.840,15.550,93.440,21.520,6.508,2.309,175.800,45.180,12.990,4.841,easy
1495.000,270.200,53.100,17.110,1308.000,260.900,56.050,15.610,91.830,20.940,6.501,2.271,176.000,45.220,12.840,4.794,easy
1497.000,271.500,54.190,17.180,1312.000,261.000,55.790,15.640,89.640,21.480,6.519,2.315,176.600,45.630,13.110,4.791,easy
1495.000,270.400,53.970,17.190,1312.000,260.500,55.990,15.580,90.170,21.350,6.581,2.282,176.500,45.120,12.960,4.802,easy
1497.000,270.400,54.540,17.180,1309.000,261.500,56.170,15.640,91.670,21.240,6.511,2.270,174.900,45.660,13.030,4.796,easy
1497.000,271.300,53.570,17.260,1311.000,261.500,56.520,15.660,88.450,21.060,6.425,2.291,175.100,45.300,12.990,4.853,easy
1500.000,270.900,54.060,17.330,1316.000,261.800,56.400,15.610,93.440,21.540,6.535,2.294,175.800,45.420,13.020,4.869,easy
1502.000,273.200,53.940,17.490,1308.000,261.200,56.140,15.660,93.610,21.120,6.395,2.295,176.000,45.880,13.080,4.829,easy
1500.000,271.400,52.660,17.140,1313.000,261.100,55.960,15.530,89.650,21.020,6.555,2.271,174.200,45.160,13.090,4.802,easy
1493.000,270.400,53.650,17.040,1311.000,259.700,55.850,15.580,93.720,21.120,6.517,2.277,176.000,45.350,12.890,4.742,easy
1494.000,269.700,52.080,17.090,1306.000,260.100,55.420,15.530,91.090,21.210,6.519,2.277,174.800,45.350,12.990,4.807,easy
1493.000,270.300,52.450,17.070,1306.000,260.000,56.130,15.510,92.220,21.220,6.426,2.264,175.300,44.930,12.810,4.769,easy
1492.000,269.800,53.200,17.060,1310.000,260.300,55.400,15.500,92.930,20.880,6.455,2.275,175.300,45.070,12.980,4.851,easy
1493.000,269.200,53.270,17.170,1311.000,260.600,55.100,15.590,89.140,21.070,6.540,2.313,175.800,45.690,13.070,4.748,easy
1494.000,269.300,54.510,17.200,1307.000,260.900,56.230,15.600,89.950,21.020,6.479,2.259,175.900,45.230,12.960,4.818,easy
1496.000,271.100,54.300,17.320,1306.000,260.700,55.580,15.590,92.010,21.110,6.436,2.281,175.900,45.520,13.050,4.845,easy
1499.000,271.700,54.310,17.300,1309.000,261.900,55.990,15.630,91.030,21.200,6.476,2.305,176.500,45.430,13.030,4.790,easy
1496.000,271.500,53.680,17.070,1306.000,261.100,55.850,15.460,90.260,21.140,6.478,2.279,174.800,44.880,12.970,4.794,easy
1490.000,268.800,53.690,17.050,1305.000,259.800,55.960,15.490,91.390,21.130,6.485,2.254,176.000,45.260,12.820,4.812,easy
1489.000,270.100,54.090,17.100,1308.000,260.500,56.230,15.460,90.150,21.110,6.403,2.297,174.500,44.910,13.020,4.841,easy
1489.000,268.600,53.770,17.050,1311.000,259.300,56.010,15.530,94.420,21.280,6.490,2.277,173.200,44.820,12.870,4.737,easy
1488.000,268.500,53.080,17.100,1307.000,260.200,56.120,15.520,87.320,21.230,6.436,2.248,175.300,45.020,13.020,4.767,easy
1489.000,271.100,53.430,17.070,1306.000,260.800,56.010,15.530,89.700,20.880,6.399,2.300,174.100,45.080,12.910,4.791,easy
1492.000,270.600,54.650,17.120,1305.000,260.600,55.640,15.540,89.620,21.050,6.379,2.302,176.600,45.220,12.940,4.826,easy
1495.000,271.500,53.540,17.180,1309.000,260.600,56.170,15.570,90.690,21.450,6.459,2.296,177.100,45.290,13.000,4.878,easy
1496.000,270.800,54.140,17.280,1309.000,261.300,55.700,15.620,91.090,21.080,6.475,2.318,177.100,45.230,13.090,4.812,easy
1494.000,269.800,54.410,17.050,1307.000,260.800,55.120,15.510,92.750,21.390,6.462,2.277,175.000,44.840,12.820,4.768,easy
1488.000,268.700,53.510,16.920,1300.000,260.100,55.510,15.490,88.780,21.230,6.448,2.278,175.400,45.470,12.690,4.825,easy
1487.000,268.100,54.270,17.020,1302.000,260.000,56.240,15.480,88.020,21.110,6.459,2.283,175.100,44.550,13.020,4.843,easy
1487.000,270.100,53.200,17.120,1303.000,260.000,56.230,15.470,91.360,21.060,6.478,2.283,173.900,44.790,12.940,4.769,easy
1486.000,269.300,53.140,16.970,1306.000,260.400,55.790,15.480,89.940,20.830,6.490,2.281,176.400,44.590,13.010,4.768,easy
1488.000,269.800,52.670,17.040,1306.000,260.200,56.170,15.560,90.990,20.950,6.478,2.287,175.700,45.010,13.010,4.783,easy
1490.000,269.400,52.590,17.120,1308.000,260.100,56.180,15.530,89.870,21.070,6.462,2.305,176.600,45.580,12.850,4.853,easy
1493.000,271.100,53.120,17.140,1305.000,260.800,56.430,15.570,85.480,21.500,6.524,2.299,176.600,45.240,13.050,4.840,easy
1495.000,270.300,53.140,17.110,1309.000,259.900,56.060,15.510,93.130,21.030,6.398,2.307,176.000,45.010,12.940,4.835,easy
1487.000,268.100,53.070,16.950,1304.000,259.700,55.510,15.520,91.890,21.340,6.531,2.320,175.600,45.180,12.810,4.778,easy
1485.000,268.500,54.390,16.940,1305.000,260.500,56.260,15.440,91.910,21.060,6.494,2.280,175.000,44.880,12.780,4.761,easy
1485.000,268.100,54.250,16.930,1308.000,260.000,55.840,15.500,92.160,20.890,6.470,2.275,176.000,44.870,12.980,4.770,easy
1486.000,269.000,52.880,16.970,1306.000,260.100,55.250,15.530,91.180,20.830,6.538,2.308,174.900,45.390,12.990,4.747,easy
1488.000,268.900,53.650,17.040,1308.000,260.000,55.710,15.430,90.360,21.200,6.552,2.309,175.200,45.120,12.920,4.822,easy
1489.000,269.700,54.280,17.060,1306.000,260.700,56.010,15.560,92.380,20.990,6.427,2.279,176.800,44.900,12.900,4.761,easy
1492.000,268.700,52.990,17.050,1305.000,261.400,56.040,15.550,89.930,21.220,6.467,2.263,175.000,44.990,12.910,4.792,easy
1494.000,271.000,53.430,17.160,1312.000,261.100,56.500,15.610,90.520,21.180,6.438,2.290,175.200,45.330,12.980,4.824,easy
1495.000,272.000,52.780,17.100,1308.000,260.800,55.740,15.480,91.690,21.270,6.517,2.296,176.900,44.990,12.880,4.778,easy
1488.000,270.200,52.310,16.980,1306.000,259.400,55.120,15.490,90.100,21.290,6.506,2.298,173.500,44.750,12.990,4.789,easy
1488.000,269.500,53.570,16.990,1307.000,259.400,55.540,15.430,92.220,20.650,6.472,2.267,175.600,45.300,12.850,4.722,easy
1487.000,270.100,52.910,16.950,1305.000,259.900,55.100,15.500,90.580,20.830,6.452,2.283,177.600,44.660,12.940,4.775,easy
1489.000,269.300,53.030,17.010,1309.000,260.300,55.720,15.530,86.520,21.120,6.408,2.295,175.100,45.070,12.740,4.815,easy
1490.000,270.000,53.700,17.000,1307.000,260.200,56.040,15.500,92.630,20.860,6.538,2.287,175.200,45.030,12.920,4.790,easy
1492.000,270.300,54.010,17.110,1304.000,260.700,55.470,15.560,95.580,21.480,6.463,2.294,176.300,45.050,13.060,4.786,easy
1495.000,271.300,54.610,17.050,1304.000,261.300,56.320,15.570,93.330,21.410,6.484,2.277,175.100,45.220,12.890,4.821,easy
1497.000,270.100,54.320,17.140,1309.000,262.000,56.210,15.560,92.600,20.970,6.564,2.301,176.800,45.250,13.120,4.846,easy
1497.000,271.700,53.740,17.080,1305.000,260.400,56.010,15.510,90.470,21.270,6.459,2.253,175.100,44.850,12.720,4.761,easy
1492.000,269.700,52.960,16.980,1305.000,260.300,55.510,15.480,91.100,21.340,6.497,2.269,175.600,45.040,12.950,4.725,easy
1492.000,268.700,53.660,16.930,1307.000,260.400,55.280,15.460,92.390,21.260,6.459,2.268,175.400,44.980,12.860,4.764,easy
1492.000,269.700,52.710,17.060,1304.000,260.000,55.630,15.500,89.470,21.160,6.490,2.299,176.900,45.100,12.910,4.790,easy
1493.000,270.700,53.800,17.030,1311.000,260.900,56.090,15.490,89.180,20.730,6.501,2.285,175.600,44.970,12.860,4.734,easy
1495.000,270.600,53.570,17.030,1309.000,261.300,55.130,15.530,92.220,21.160,6.469,2.279,176.500,44.270,12.910,4.739,easy
1496.000,269.900,53.960,17.170,1312.000,260.900,55.790,15.500,89.510,21.070,6.460,2.304,174.900,45.160,12.870,4.833,easy
1499.000,271.400,54.940,17.170,1314.000,261.200,55.900,15.570,90.060,21.670,6.538,2.277,176.000,45.470,12.990,4.849,easy
1500.000,271.300,54.570,17.270,1310.000,261.700,55.000,15.670,92.590,21.360,6.410,2.290,177.300,45.370,12.960,4.810,easy
1498.000,270.200,53.330,17.070,1308.000,260.500,55.020,15.510,91.730,21.030,6.530,2.284,175.200,45.040,12.800,4.849,easy
1496.000,269.400,53.830,17.050,1309.000,260.900,55.170,15.480,92.190,20.940,6.404,2.285,176.300,45.060,12.880,4.778,easy
1494.000,270.300,54.030,17.040,1310.000,260.400,55.710,15.510,94.880,20.820,6.454,2.297,173.900,45.380,12.960,4.824,easy
1497.000,271.200,53.100,17.080,1306.000,260.900,56.280,15.520,95.590,21.630,6.463,2.293,175.900,45.670,12.960,4.827,easy
1498.000,270.100,53.200,17.120,1312.000,261.100,55.780,15.520,91.200,21.300,6.521,2.303,176.800,45.480,12.930,4.805,easy
1500.000,270.600,53.170,17.200,1310.000,261.100,56.000,15.580,90.960,21.190,6.524,2.301,174.300,45.130,12.950,4.838,easy
1502.000,273.700,53.740,17.180,1310.000,261.300,56.740,15.590,91.620,21.210,6.477,2.312,176.500,45.030,13.200,4.783,easy
1503.000,271.300,54.380,17.320,1312.000,261.200,55.930,15.660,93.700,21.190,6.475,2.304,177.800,45.320,13.230,4.816,easy
1505.000,272.900,54.690,17.270,1312.000,261.100,55.380,15.530,89.040,21.160,6.539,2.297,177.200,44.960,13.100,4.813,easy
1498.000,270.500,53.460,16.990,1310.000,260.800,55.490,15.470,88.650,21.490,6.527,2.289,175.900,44.630,12.970,4.742,easy
1498.000,269.200,52.900,17.030,1308.000,260.300,54.710,15.530,94.610,21.030,6.491,2.265,176.000,44.740,12.890,4.702,easy
1497.000,270.500,54.350,17.050,1310.000,260.500,55.340,15.500,86.990,20.770,6.374,2.296,174.000,44.310,12.680,4.739,easy
1498.000,270.400,53.760,17.100,1314.000,260.600,55.550,15.510,93.850,20.460,6.339,2.280,174.500,44.110,12.520,4.743,easy
1500.000,270.100,53.390,17.090,1309.000,260.700,55.750,15.520,93.470,20.580,6.381,2.268,176.000,44.210,12.660,4.755,easy
1501.000,268.900,53.290,17.170,1310.000,261.100,55.540,15.520,87.970,20.880,6.419,2.268,176.100,44.530,12.770,4.786,easy
1502.000,271.700,54.780,17.290,1311.000,260.900,56.440,15.540,90.300,20.660,6.403,2.293,176.800,44.940,12.980,4.808,easy
1504.000,272.100,53.290,17.400,1306.000,260.800,56.570,15.580,90.570,21.010,6.499,2.297,178.800,46.140,13.100,4.854,easy
1496.000,270.600,52.910,17.180,1306.000,259.800,55.260,15.500,90.500,21.060,6.564,2.331,178.300,46.000,13.210,4.875,easy
1494.000,268.000,53.620,17.060,1309.000,259.600,55.890,15.450,90.030,21.530,6.582,2.284,177.800,45.780,13.240,4.821,easy
1493.000,270.100,52.130,17.040,1305.000,260.000,55.000,15.470,88.500,21.660,6.507,2.331,176.000,45.980,13.060,4.783,easy
1493.000,269.400,53.360,17.100,1305.000,260.000,55.970,15.490,88.500,21.420,6.484,2.298,175.700,45.810,13.140,4.768,easy
