A-DC1,A-DC2,A-DC3,A-DC4,A-DC5,A-DC6,A-DC7,A-DC8,B-DC1,B-DC2,B-DC3,B-DC4,B-DC5,B-DC6,B-DC7,B-DC8,condition
1431.000,260.400,43.730,12.110,1126.000,199.000,35.930,9.038,187.300,42.470,9.581,2.645,374.800,80.460,17.040,5.011,baseline
1434.000,259.000,43.950,12.100,1123.000,198.500,35.640,9.058,185.800,42.370,9.565,2.647,374.400,80.430,17.120,5.048,baseline
1434.000,259.700,45.000,12.090,1119.000,198.900,35.580,9.054,187.300,42.250,9.592,2.633,375.900,80.570,17.320,5.018,baseline
1435.000,260.100,46.110,12.010,1117.000,197.900,35.920,8.985,188.900,42.600,9.618,2.641,373.800,80.350,17.000,4.992,baseline
1423.000,257.200,44.410,11.920,1111.000,198.200,34.890,8.949,185.300,42.270,9.586,2.620,371.500,79.960,16.960,4.956,baseline
1418.000,256.600,45.290,11.910,1109.000,196.400,35.700,8.916,185.300,42.200,9.543,2.607,372.400,79.660,16.960,4.976,baseline
1415.000,255.000,44.270,11.830,1106.000,197.200,34.840,8.905,191.500,41.840,9.488,2.626,369.800,80.110,16.860,4.992,baseline
1412.000,256.700,43.760,11.820,1108.000,196.500,34.360,8.920,187.900,42.050,9.519,2.616,369.200,80.050,16.910,4.914,baseline
1413.000,254.400,43.540,11.820,1107.000,196.600,34.280,8.951,188.700,41.810,9.562,2.625,370.200,80.010,17.060,4.952,baseline
1415.000,256.600,42.580,11.890,1114.000,197.200,35.430,8.994,183.400,42.050,9.587,2.628,371.300,80.330,17.180,4.986,baseline
1416.000,254.700,43.760,11.920,1102.000,196.700,35.360,9.002,188.300,42.160,9.663,2.622,372.000,80.100,16.900,4.936,baseline
1412.000,253.400,44.000,11.840,1106.000,197.100,34.530,8.888,181.700,41.980,9.497,2.609,368.400,79.490,16.850,4.906,baseline
1409.000,254.800,42.750,11.730,1105.000,197.100,34.180,8.954,185.100,42.140,9.509,2.591,368.900,79.190,16.650,4.876,baseline
1409.000,253.200,43.390,11.910,1111.000,196.300,34.340,8.992,181.300,41.890,9.450,2.617,368.300,79.340,16.930,4.884,baseline
1406.000,253.400,43.360,11.760,1114.000,196.500,33.900,9.012,182.200,42.000,9.469,2.584,366.600,78.950,16.920,4.891,baseline
1405.000,252.500,43.560,11.860,1110.000,196.700,34.800,9.026,186.100,42.060,9.555,2.611,369.400,79.380,16.750,4.940,baseline
1406.000,252.200,44.940,11.900,1108.000,197.000,34.940,8.972,186.500,42.050,9.551,2.607,366.900,79.390,16.880,4.905,baseline
1406.000,252.800,43.390,12.050,1115.000,197.300,34.520,8.977,186.000,42.390,9.532,2.604,369.300,79.730,17.020,4.954,baseline
1405.000,251.900,44.210,11.860,1100.000,197.100,34.800,8.957,183.800,42.300,9.483,2.607,367.100,78.840,16.660,4.847,baseline
1397.000,251.800,43.210,11.840,1115.000,196.100,34.650,8.966,182.200,41.840,9.475,2.606,365.400,78.710,16.740,4.901,baseline
1395.000,251.100,43.080,11.780,1105.000,197.000,34.210,8.957,183.300,42.020,9.489,2.596,367.400,78.800,16.890,4.836,baseline
1396.000,250.600,43.530,11.750,1107.000,197.300,35.040,8.953,185.000,41.820,9.495,2.598,367.200,78.160,16.680,4.878,baseline
1395.000,249.900,42.670,11.840,1105.000,196.100,34.410,8.923,188.300,41.840,9.511,2.611,364.400,78.850,16.860,4.889,baseline
1396.000,250.300,43.490,11.900,1108.000,196.000,34.460,8.938,184.100,41.960,9.457,2.592,365.400,78.750,16.810,4.898,baseline
1396.000,252.700,43.640,11.960,1106.000,196.900,34.910,8.947,187.400,41.930,9.463,2.580,368.200,78.960,16.940,4.923,baseline
1398.000,252.700,43.750,11.870,1104.000,196.700,34.040,8.947,185.200,41.640,9.460,2.605,367.100,79.170,16.860,4.880,baseline
1389.000,251.300,43.020,11.780,1098.000,196.200,33.420,8.972,181.500,42.080,9.435,2.582,367.400,78.510,16.800,4.884,baseline
1391.000,253.600,43.530,11.750,1105.000,196.900,34.510,8.919,183.700,41.940,9.518,2.599,366.900,79.150,16.820,4.871,baseline
1391.000,250.000,43.230,11.710,1099.000,196.200,34.970,8.911,187.300,42.080,9.564,2.617,367.200,79.200,16.970,4.899,baseline
1389.000,251.700,43.150,11.740,1094.000,196.000,33.850,8.917,183.600,41.740,9.484,2.618,367.300,79.520,16.920,4.920,baseline
1391.000,251.000,42.980,11.750,1100.000,195.700,35.140,8.801,183.200,41.850,9.527,2.609,365.800,79.240,16.780,4.920,baseline
1390.000,250.900,42.130,11.780,1098.000,196.000,35.450,8.882,191.100,42.160,9.500,2.620,368.200,79.490,16.860,4.963,baseline
1391.000,250.800,44.110,11.800,1095.000,194.800,35.380,8.818,188.600,41.980,9.530,2.607,368.500,79.340,16.930,4.917,baseline
1386.000,249.700,42.440,11.740,1086.000,194.400,35.210,8.798,185.800,42.030,9.454,2.593,367.700,79.140,16.770,4.874,baseline
1376.000,248.300,42.700,11.550,1090.000,193.700,35.550,8.758,180.900,41.670,9.418,2.600,366.500,78.610,16.780,4.878,baseline
1371.000,249.600,43.090,11.650,1084.000,192.000,35.470,8.715,183.600,41.670,9.389,2.567,365.300,78.720,16.750,4.880,baseline
1368.000,246.400,44.530,11.650,1090.000,193.200,35.640,8.784,186.000,41.540,9.400,2.598,366.200,78.460,16.780,4.841,baseline
1372.000,248.800,44.850,11.610,1082.000,193.900,35.430,8.732,183.800,41.640,9.456,2.580,367.000,79.020,16.890,4.865,baseline
1371.000,248.400,45.120,11.740,1089.000,192.600,35.590,8.741,184.900,41.770,9.420,2.576,367.800,79.080,16.820,4.873,baseline
1373.000,249.600,45.670,11.710,1084.000,193.000,35.350,8.749,184.400,42.020,9.375,2.584,369.000,79.490,16.920,4.964,baseline
1376.000,248.500,44.470,11.690,1085.000,193.700,35.020,8.895,186.000,41.720,9.521,2.598,369.800,79.830,16.940,4.946,baseline
1379.000,249.900,44.230,11.880,1082.000,193.700,34.870,8.701,185.000,41.670,9.398,2.580,369.900,79.520,17.050,5.000,baseline
1381.000,249.900,43.700,11.900,1094.000,194.000,35.580,8.776,187.700,41.940,9.402,2.620,372.900,80.330,17.190,4.977,baseline
1383.000,251.500,44.030,11.990,1086.000,193.400,35.520,8.746,185.500,41.820,9.440,2.602,372.600,80.620,17.280,5.048,baseline
1385.000,250.700,41.920,11.830,1084.000,193.900,35.280,8.665,182.500,41.950,9.482,2.582,372.200,80.050,17.010,4.967,baseline
1379.000,249.400,44.200,11.780,1085.000,192.700,34.320,8.732,182.900,41.550,9.471,2.581,372.200,79.570,16.960,4.966,baseline
1377.000,250.200,42.420,11.640,1087.000,192.900,34.400,8.656,185.700,41.730,9.403,2.555,370.800,79.510,16.910,4.950,baseline
1378.000,249.500,43.760,11.670,1091.000,192.600,34.870,8.733,181.300,41.630,9.352,2.591,370.400,79.910,16.910,4.946,baseline
1378.000,251.900,44.310,11.820,1095.000,193.500,34.890,8.725,186.600,41.900,9.379,2.574,372.500,79.940,16.870,4.943,baseline
1384.000,252.300,44.260,11.780,1094.000,194.500,34.420,8.790,181.400,41.780,9.389,2.555,372.400,79.810,16.930,4.983,baseline
1392.000,250.500,44.540,11.890,1096.000,194.300,35.850,8.704,188.900,41.840,9.383,2.563,375.200,80.010,17.120,4.985,baseline
1392.000,253.100,44.150,11.990,1098.000,195.100,34.200,8.756,186.700,41.710,9.460,2.558,374.500,80.930,17.120,5.011,baseline
1397.000,253.200,43.480,12.000,1093.000,195.000,34.230,8.807,185.500,41.770,9.401,2.577,375.300,80.700,17.210,5.023,baseline
1399.000,254.000,45.170,12.040,1102.000,195.600,34.530,8.770,182.900,41.640,9.405,2.565,376.000,81.010,17.230,5.073,baseline
1405.000,256.500,43.270,12.110,1105.000,194.800,34.670,8.757,184.400,41.940,9.414,2.570,378.100,80.980,17.340,5.038,baseline
1402.000,253.800,43.320,11.960,1101.000,195.000,34.640,8.679,187.000,41.910,9.324,2.555,375.100,80.130,17.040,5.024,baseline
1400.000,252.800,44.300,11.900,1098.000,196.300,33.920,8.747,187.600,41.630,9.398,2.531,373.700,80.010,16.980,4.981,baseline
1406.000,255.200,43.910,11.930,1107.000,196.100,35.150,8.777,181.900,41.530,9.304,2.528,375.800,79.960,16.920,4.973,baseline
1413.000,258.800,43.180,11.880,1110.000,196.900,34.290,8.763,184.500,41.110,9.249,2.516,375.600,80.190,17.000,4.969,baseline
1415.000,256.600,44.540,12.050,1110.000,196.500,34.650,8.816,183.600,41.590,9.223,2.528,374.700,80.270,16.870,4.979,baseline
1419.000,256.900,45.280,12.090,1108.000,197.200,34.410,8.785,185.500,41.310,9.298,2.521,376.200,80.460,17.000,5.006,baseline
1420.000,256.500,45.040,12.130,1106.000,196.900,34.070,8.785,185.100,41.290,9.304,2.513,376.600,80.500,17.030,4.979,baseline
1421.000,255.800,45.920,12.190,1106.000,196.400,34.590,8.788,188.500,41.520,9.290,2.527,376.900,80.970,17.260,5.068,baseline
1420.000,257.100,43.780,12.240,1111.000,196.500,34.190,8.758,185.100,41.540,9.340,2.537,377.900,81.370,17.200,5.091,baseline
1424.000,259.000,43.610,12.160,1107.000,196.300,34.060,8.688,186.400,42.090,9.307,2.512,380.100,81.700,17.210,5.059,baseline
1421.000,257.300,44.480,12.090,1104.000,195.300,34.430,8.613,184.100,41.490,9.211,2.541,376.300,80.810,17.120,4.986,baseline
1412.000,254.800,42.860,11.910,1096.000,194.100,34.230,8.597,183.200,41.470,9.260,2.525,374.400,80.220,16.990,4.964,baseline
1412.000,254.800,43.470,11.980,1096.000,194.800,33.610,8.588,186.000,41.500,9.223,2.517,375.800,80.640,17.090,5.008,baseline
1414.000,257.100,43.190,11.990,1100.000,195.500,33.730,8.613,189.500,41.700,9.226,2.515,376.000,80.570,17.100,4.994,baseline
1414.000,255.700,43.730,12.000,1098.000,193.900,32.860,8.645,185.500,41.600,9.198,2.530,376.900,80.270,17.040,5.033,baseline
1412.000,254.800,43.410,11.970,1099.000,194.400,33.230,8.634,190.900,41.580,9.248,2.533,377.000,80.980,17.230,5.022,baseline
1415.000,256.100,44.370,12.000,1100.000,194.000,33.720,8.666,186.400,41.800,9.334,2.500,377.500,81.080,17.170,5.097,baseline
1416.000,256.700,44.990,12.120,1098.000,194.200,33.300,8.605,185.500,41.880,9.226,2.502,378.100,81.420,17.280,5.074,baseline
1417.000,257.400,44.120,12.100,1095.000,194.200,33.210,8.591,190.800,41.710,9.265,2.522,378.600,82.030,17.440,5.099,baseline
1419.000,257.300,44.360,12.200,1100.000,194.100,33.020,8.640,185.400,41.770,9.313,2.519,379.300,82.400,17.430,5.129,baseline
1421.000,256.400,43.900,12.050,1101.000,194.200,34.030,8.577,185.200,41.640,9.220,2.501,378.100,81.150,17.270,5.050,baseline
1414.000,254.300,43.640,11.950,1097.000,194.000,33.750,8.549,186.500,41.370,9.280,2.497,374.900,80.740,17.250,5.059,baseline
1413.000,253.000,43.740,11.970,1103.000,193.700,33.180,8.591,185.200,41.700,9.285,2.511,376.100,80.890,17.280,5.079,baseline
1415.000,254.700,43.720,12.040,1099.000,193.500,33.730,8.591,185.200,41.120,9.274,2.517,375.900,80.760,17.270,5.059,baseline
1415.000,254.700,43.630,12.050,1092.000,193.400,33.080,8.576,186.000,41.530,9.204,2.522,375.300,81.180,17.310,5.081,baseline
1418.000,255.400,43.770,12.060,1099.000,193.900,33.460,8.632,188.600,41.520,9.230,2.516,375.500,81.200,17.320,5.072,baseline
1420.000,258.100,44.530,12.090,1103.000,194.600,34.140,8.642,185.100,41.700,9.360,2.532,376.600,81.800,17.430,5.110,baseline
1423.000,256.100,44.440,12.220,1107.000,195.200,34.060,8.725,184.100,42.010,9.329,2.513,376.700,82.020,17.550,5.142,baseline
1428.000,259.700,46.200,12.360,1097.000,194.900,33.380,8.739,187.500,41.510,9.316,2.523,379.400,82.030,17.650,5.177,baseline
1429.000,259.700,44.240,12.320,1101.000,194.600,33.570,8.737,187.800,41.920,9.307,2.544,379.500,82.950,17.630,5.187,baseline
1433.000,259.900,45.390,12.240,1104.000,195.600,34.030,8.667,188.100,41.890,9.395,2.513,377.100,82.260,17.460,5.141,baseline
1424.000,258.900,44.350,12.200,1097.000,195.000,33.810,8.685,188.300,41.670,9.208,2.516,376.000,81.690,17.360,5.121,baseline
1425.000,254.400,44.660,12.190,1095.000,195.300,34.300,8.680,187.900,41.570,9.343,2.531,376.600,81.680,17.430,5.088,baseline
1426.000,257.900,43.490,12.130,1103.000,195.700,34.580,8.687,187.300,41.820,9.317,2.531,376.100,81.410,17.340,5.121,baseline
1425.000,257.600,45.930,12.220,1102.000,195.700,34.310,8.728,190.400,41.660,9.295,2.515,374.600,82.040,17.360,5.081,baseline
1424.000,257.000,45.150,12.320,1105.000,195.500,34.360,8.698,187.500,41.710,9.309,2.531,375.400,81.900,17.520,5.144,baseline
1426.000,257.400,46.270,12.220,1099.000,195.900,34.550,8.751,189.000,42.320,9.304,2.539,377.500,82.300,17.610,5.178,baseline
1429.000,258.200,46.320,12.330,1103.000,195.600,35.280,8.786,191.000,41.830,9.264,2.519,377.000,82.270,17.690,5.223,baseline
1432.000,258.000,46.160,12.450,1104.000,196.600,33.630,8.763,189.000,41.840,9.344,2.545,379.600,82.580,17.670,5.249,baseline
1434.000,261.300,46.510,12.480,1102.000,197.000,34.880,8.774,189.500,41.890,9.375,2.547,380.600,82.680,17.830,5.269,baseline
1435.000,260.100,47.340,12.260,1105.000,196.000,34.860,8.675,188.600,41.730,9.380,2.555,378.400,82.320,17.630,5.169,baseline
1425.000,257.600,44.110,12.340,1102.000,195.800,34.530,8.690,185.600,41.880,9.339,2.515,378.300,82.160,17.530,5.164,baseline
1426.000,256.200,45.160,12.350,1104.000,195.200,34.920,8.710,188.000,41.510,9.310,2.531,375.600,82.080,17.580,5.158,baseline
1424.000,257.600,45.850,12.360,1098.000,195.700,35.400,8.751,189.100,41.730,9.383,2.529,377.100,82.410,17.630,5.153,baseline
1426.000,257.300,44.840,12.430,1106.000,196.600,35.640,8.796,185.600,41.560,9.312,2.541,377.200,82.010,17.600,5.194,baseline
1428.000,258.200,46.160,12.410,1109.000,196.800,35.800,8.774,188.200,41.830,9.309,2.530,376.900,82.380,17.690,5.250,baseline
1431.000,259.900,44.950,12.500,1114.000,197.300,34.800,8.846,188.800,41.380,9.347,2.530,377.400,82.240,17.810,5.235,baseline
1434.000,260.900,46.510,12.500,1108.000,198.000,36.030,8.888,187.600,41.750,9.346,2.533,379.500,83.000,17.900,5.268,baseline
1438.000,260.900,46.740,12.510,1110.000,197.000,34.640,8.766,190.800,42.000,9.305,2.528,379.900,82.980,17.750,5.231,baseline
1431.000,256.600,45.460,12.420,1115.000,196.100,35.370,8.813,192.000,41.490,9.336,2.530,375.800,82.070,17.570,5.220,baseline
1427.000,258.900,46.380,12.410,1111.000,196.800,35.160,8.813,186.000,41.550,9.338,2.522,376.900,81.940,17.650,5.207,baseline
1429.000,256.500,46.760,12.380,1104.000,198.100,34.590,8.817,184.400,41.560,9.242,2.527,376.400,81.890,17.570,5.200,baseline
1430.000,258.700,44.860,12.420,1108.000,197.800,35.450,8.794,188.100,41.510,9.331,2.521,375.800,82.010,17.600,5.193,baseline
1431.000,260.500,46.390,12.500,1105.000,197.400,35.050,8.782,183.100,41.470,9.277,2.517,374.400,82.190,17.700,5.228,baseline
1435.000,258.900,43.990,12.500,1114.000,197.300,35.380,8.794,186.700,41.500,9.313,2.538,376.500,81.970,17.750,5.259,baseline
1440.000,260.900,45.860,12.660,1109.000,198.000,35.630,8.833,184.200,40.970,9.261,2.553,377.500,82.480,17.760,5.250,baseline
1443.000,261.400,45.220,12.660,1117.000,198.700,35.300,8.821,181.800,41.520,9.291,2.516,376.400,81.920,17.610,5.187,baseline
1435.000,259.100,44.700,12.330,1112.000,197.800,35.130,8.788,181.600,41.430,9.263,2.508,373.500,81.130,17.540,5.191,baseline
1432.000,259.100,44.270,12.490,1112.000,198.300,34.060,8.759,183.600,41.360,9.280,2.506,374.400,81.410,17.540,5.170,baseline
1432.000,261.000,45.720,12.420,1119.000,197.600,34.530,8.749,181.300,41.300,9.252,2.521,374.900,81.170,17.550,5.141,baseline
1432.000,259.800,45.030,12.430,1110.000,198.200,34.380,8.808,181.800,41.260,9.276,2.518,375.100,81.710,17.640,5.174,baseline
1432.000,258.800,47.190,12.450,1113.000,198.500,34.780,8.816,184.300,41.430,9.266,2.528,375.800,81.460,17.520,5.190,baseline
1434.000,261.600,46.400,12.480,1119.000,197.800,35.110,8.804,184.700,41.520,9.271,2.513,377.200,82.060,17.750,5.214,baseline
1439.000,260.100,45.870,12.550,1115.000,198.300,34.430,8.772,183.300,41.420,9.257,2.511,376.300,81.740,17.490,5.195,baseline
1434.000,259.200,44.800,12.260,1116.000,197.800,35.150,8.753,182.600,41.120,9.217,2.498,371.900,80.820,17.270,5.098,baseline
1426.000,255.900,45.220,12.330,1109.000,197.400,34.250,8.743,184.900,41.280,9.102,2.498,371.200,80.590,17.160,5.135,baseline
1427.000,258.500,43.850,12.320,1115.000,196.800,34.620,8.654,185.300,41.620,9.225,2.486,371.700,80.730,17.310,5.065,baseline
1425.000,258.600,45.340,12.310,1113.000,196.800,34.110,8.672,183.500,40.970,9.119,2.486,373.300,80.980,17.300,5.089,baseline
1418.000,257.000,44.940,12.230,1104.000,195.900,33.210,8.612,183.500,41.010,9.253,2.497,376.700,81.670,17.420,5.130,baseline
1414.000,256.200,44.080,12.270,1103.000,194.200,33.960,8.589,189.200,41.480,9.282,2.513,378.500,81.800,17.460,5.159,baseline
1412.000,257.100,44.790,12.200,1101.000,194.100,33.840,8.578,183.800,41.180,9.244,2.520,376.400,81.280,17.240,5.151,baseline
1404.000,253.200,44.720,12.030,1100.000,192.900,33.870,8.518,182.900,41.000,9.172,2.485,371.900,80.100,17.150,5.063,baseline
1394.000,251.600,43.210,11.820,1094.000,192.600,32.810,8.481,184.900,41.210,9.187,2.486,370.000,79.910,17.030,5.056,baseline
1389.000,250.900,44.030,11.870,1092.000,192.900,33.370,8.427,183.900,41.020,9.163,2.501,369.400,79.900,17.020,5.042,baseline
1387.000,252.200,44.300,11.850,1089.000,193.400,32.950,8.457,185.100,41.000,9.141,2.501,368.500,79.510,16.980,5.004,baseline
1384.000,249.600,44.190,11.810,1090.000,192.400,32.110,8.484,182.800,40.930,9.142,2.477,369.300,79.840,16.870,5.032,baseline
1382.000,250.800,43.300,11.920,1087.000,192.700,33.410,8.500,183.200,40.950,9.109,2.488,369.200,79.950,17.110,5.048,baseline
1385.000,251.300,43.320,12.010,1085.000,192.800,33.570,8.497,183.200,41.080,9.201,2.507,369.200,79.740,17.080,5.053,baseline
1383.000,252.100,42.220,11.820,1090.000,191.500,33.090,8.474,187.300,41.110,9.265,2.493,367.500,79.130,16.840,4.969,baseline
1372.000,248.100,42.050,11.700,1089.000,191.500,33.330,8.449,181.900,40.630,9.171,2.499,364.500,78.460,16.820,4.922,baseline
1369.000,248.600,41.590,11.640,1085.000,192.500,33.630,8.420,181.100,40.870,9.113,2.472,365.800,78.280,16.670,4.902,baseline
1367.000,247.500,42.600,11.720,1085.000,192.600,33.100,8.456,185.400,40.750,9.156,2.507,364.600,78.050,16.630,4.881,baseline
1365.000,249.300,43.370,11.670,1085.000,191.300,32.750,8.478,183.700,41.140,9.061,2.494,363.700,78.070,16.620,4.894,baseline
1363.000,248.900,43.320,11.710,1087.000,190.900,32.810,8.465,182.700,40.890,9.102,2.476,364.100,78.610,16.600,4.913,baseline
1364.000,246.200,43.990,11.670,1089.000,192.200,33.210,8.520,180.300,41.120,9.111,2.477,364.300,78.920,16.630,4.916,baseline
1367.000,247.400,43.570,11.780,1091.000,191.800,32.940,8.563,183.800,40.970,9.195,2.493,365.200,79.060,16.830,4.957,baseline
1368.000,245.400,42.590,11.650,1085.000,191.100,33.570,8.432,182.300,40.860,9.090,2.503,361.700,77.780,16.470,4.844,baseline
1354.000,244.800,40.620,11.610,1078.000,191.000,32.840,8.427,184.400,40.780,9.079,2.476,360.800,77.410,16.230,4.772,baseline
1350.000,244.700,42.060,11.540,1081.000,190.700,34.370,8.472,184.200,40.820,9.074,2.476,358.100,76.870,16.170,4.762,baseline
1346.000,244.800,42.170,11.510,1081.000,190.200,33.290,8.366,183.400,40.560,9.010,2.465,358.500,77.190,16.200,4.789,baseline
1345.000,244.100,41.440,11.410,1079.000,190.500,33.720,8.430,183.800,40.270,9.015,2.467,357.000,76.880,16.370,4.763,baseline
1345.000,243.500,40.750,11.340,1073.000,190.900,33.250,8.399,182.000,40.870,9.088,2.465,360.000,77.520,16.330,4.840,baseline
1349.000,243.900,42.110,11.550,1079.000,190.600,33.850,8.489,184.700,40.490,9.023,2.458,361.000,77.380,16.470,4.785,baseline
1352.000,244.600,42.840,11.680,1083.000,191.400,34.100,8.514,184.800,40.560,9.141,2.483,362.100,77.900,16.600,4.871,baseline
1356.000,245.100,43.180,11.560,1076.000,192.000,34.140,8.431,185.500,40.910,9.075,2.479,360.500,77.440,16.420,4.778,baseline
1348.000,241.600,42.460,11.370,1072.000,190.200,34.040,8.426,185.400,40.290,9.020,2.462,358.200,76.910,16.140,4.768,baseline
1346.000,242.300,42.690,11.370,1072.000,190.500,33.710,8.426,181.800,40.510,9.092,2.465,356.800,76.800,16.190,4.766,baseline
1346.000,243.700,42.320,11.400,1076.000,191.300,34.200,8.460,185.500,40.590,8.945,2.448,357.200,76.580,16.250,4.802,baseline
1346.000,244.300,41.570,11.400,1079.000,190.800,34.070,8.458,181.300,40.370,9.026,2.459,359.100,76.710,16.210,4.764,baseline
1348.000,244.600,40.980,11.400,1087.000,192.100,35.440,8.404,183.100,40.710,9.065,2.479,356.800,77.060,16.360,4.782,baseline
1351.000,244.700,42.970,11.550,1082.000,191.700,34.810,8.524,181.600,40.630,9.114,2.468,360.600,77.370,16.430,4.837,baseline
1353.000,246.000,42.380,11.680,1090.000,191.200,35.340,8.481,180.900,41.050,9.076,2.474,360.200,77.850,16.450,4.834,baseline
1360.000,246.000,42.900,11.690,1086.000,191.700,34.540,8.498,184.600,40.550,9.115,2.464,363.100,78.440,16.490,4.817,baseline
1358.000,246.200,43.790,11.570,1080.000,192.100,34.850,8.507,181.000,40.680,9.084,2.486,360.200,77.250,16.460,4.785,baseline
1353.000,245.000,43.740,11.520,1083.000,191.200,34.150,8.469,184.700,40.750,9.130,2.446,358.900,77.280,16.330,4.784,baseline
1354.000,244.900,43.790,11.580,1082.000,192.100,34.010,8.486,179.000,40.360,9.076,2.472,360.400,77.310,16.490,4.794,baseline
1357.000,245.200,42.290,11.560,1086.000,192.300,34.710,8.468,179.600,40.740,9.061,2.462,360.100,77.540,16.440,4.846,baseline
1359.000,246.300,44.000,11.560,1088.000,192.700,34.670,8.537,183.500,40.820,9.088,2.475,361.700,77.590,16.410,4.848,baseline
1364.000,246.700,43.830,11.780,1090.000,192.100,35.350,8.522,183.300,41.020,9.067,2.465,361.600,78.420,16.610,4.867,baseline
1366.000,247.000,43.750,11.760,1089.000,192.800,35.060,8.543,185.000,41.100,9.140,2.485,363.600,78.400,16.750,4.929,baseline
1371.000,245.500,43.290,11.860,1093.000,192.700,34.730,8.568,179.000,40.960,9.160,2.485,364.300,78.890,16.890,4.921,baseline
1376.000,248.500,43.000,11.820,1094.000,193.000,34.090,8.533,181.100,40.980,9.181,2.517,364.800,78.510,16.590,4.869,baseline
1370.000,248.100,42.790,11.690,1089.000,192.000,34.590,8.563,181.600,40.900,9.117,2.478,363.600,77.910,16.500,4.883,baseline
1371.000,248.700,43.490,11.790,1095.000,193.600,33.950,8.540,181.200,40.650,9.121,2.490,363.100,78.320,16.640,4.944,baseline
1374.000,248.100,41.640,11.760,1095.000,192.600,34.660,8.560,182.200,40.660,9.127,2.495,363.900,78.640,16.710,4.921,baseline
1375.000,247.000,44.070,11.800,1094.000,193.500,34.440,8.526,183.300,40.620,9.208,2.482,364.800,78.800,16.780,4.910,baseline
1378.000,248.800,43.870,11.890,1096.000,193.800,33.680,8.594,182.800,40.710,9.176,2.491,365.900,79.040,16.880,4.982,baseline
1383.000,251.900,44.170,11.930,1100.000,194.200,33.790,8.622,184.100,41.160,9.274,2.517,365.800,79.490,17.050,4.958,baseline
1386.000,251.900,44.350,11.920,1095.000,194.400,34.110,8.605,185.600,41.020,9.251,2.512,369.400,79.790,17.050,5.072,baseline
1390.000,253.700,43.780,12.090,1095.000,194.700,33.600,8.685,180.600,41.450,9.267,2.536,368.400,79.950,16.980,5.022,baseline
1388.000,251.500,42.710,11.910,1097.000,194.400,33.990,8.616,184.800,41.100,9.209,2.537,366.500,79.590,16.940,5.001,baseline
1391.000,252.500,43.840,11.910,1104.000,195.400,34.270,8.680,185.100,41.300,9.270,2.501,370.300,80.080,17.020,5.021,baseline
1395.000,253.300,43.020,12.060,1102.000,195.500,33.720,8.720,184.000,41.380,9.275,2.527,373.600,81.370,17.110,5.082,baseline
1398.000,253.200,44.850,12.170,1102.000,196.300,34.720,8.707,187.400,41.910,9.335,2.532,376.700,81.880,17.240,5.097,baseline
1402.000,252.500,45.700,12.150,1103.000,197.200,34.390,8.820,188.900,42.130,9.445,2.557,378.800,82.240,17.390,5.137,baseline
1409.000,257.100,44.770,12.200,1124.000,197.300,34.300,8.859,188.300,42.170,9.433,2.566,382.000,83.230,17.680,5.140,baseline
1416.000,256.200,44.220,12.280,1122.000,196.700,34.720,8.805,190.600,42.370,9.447,2.576,384.900,83.720,17.830,5.200,baseline
1419.000,256.700,45.430,12.340,1114.000,197.400,34.860,8.813,189.600,42.790,9.530,2.574,386.800,84.390,17.880,5.273,baseline
1419.000,255.500,44.340,12.280,1111.000,197.600,33.960,8.823,187.600,42.870,9.515,2.578,383.300,83.300,17.630,5.173,baseline
1413.000,257.200,44.490,12.160,1111.000,196.900,33.690,8.741,190.100,42.080,9.528,2.582,382.200,83.000,17.640,5.188,baseline
1412.000,255.900,44.930,12.170,1109.000,196.800,33.170,8.818,188.700,42.160,9.511,2.619,382.500,83.300,17.590,5.194,baseline
1414.000,254.600,44.160,12.240,1117.000,196.900,33.750,8.758,192.200,42.340,9.531,2.614,382.100,83.120,17.800,5.194,baseline
1414.000,256.300,44.610,12.250,1111.000,197.600,35.460,8.785,190.900,42.530,9.575,2.606,383.700,83.470,17.800,5.221,baseline
1418.000,255.700,44.730,12.320,1111.000,197.400,35.040,8.797,190.100,42.450,9.596,2.594,383.100,83.500,17.870,5.285,baseline
1420.000,257.900,44.190,12.430,1112.000,197.500,34.340,8.820,186.700,42.560,9.601,2.615,384.100,83.580,17.870,5.296,baseline
1421.000,256.000,44.660,12.440,1111.000,196.300,34.150,8.786,188.900,42.480,9.568,2.605,385.100,84.120,18.020,5.263,baseline
1422.000,256.700,44.660,12.200,1109.000,196.800,34.390,8.790,189.400,42.750,9.615,2.604,383.000,83.230,17.850,5.223,baseline
1419.000,260.200,44.890,12.160,1118.000,196.900,34.250,8.812,189.600,42.270,9.582,2.601,380.000,82.550,17.610,5.182,baseline
1422.000,258.700,45.620,12.200,1118.000,197.800,34.340,8.842,187.600,42.000,9.536,2.595,379.300,81.940,17.740,5.248,baseline
1423.000,258.200,45.780,12.130,1118.000,197.400,34.090,8.841,191.800,42.460,9.559,2.610,378.400,82.660,17.620,5.217,baseline
1425.000,258.500,45.300,12.310,1116.000,197.800,34.640,8.869,189.700,41.850,9.608,2.603,379.900,82.060,17.710,5.223,baseline
1429.000,257.400,45.020,12.420,1123.000,197.800,34.960,8.874,194.700,42.360,9.565,2.605,380.600,82.390,17.760,5.307,baseline
1433.000,259.000,46.410,12.440,1119.000,198.800,34.650,8.919,187.200,42.200,9.534,2.617,380.700,82.960,17.700,5.288,baseline
1438.000,259.700,46.430,12.340,1120.000,198.100,35.280,8.881,188.500,42.520,9.571,2.601,380.800,82.220,17.640,5.220,baseline
1432.000,257.600,44.980,12.310,1121.000,198.800,33.800,8.888,188.300,42.320,9.480,2.574,377.400,81.850,17.600,5.194,baseline
1429.000,259.800,43.460,12.260,1118.000,197.100,34.750,8.832,186.300,41.910,9.471,2.606,376.400,81.710,17.500,5.221,baseline
1430.000,260.600,43.630,12.330,1121.000,198.200,35.590,8.864,185.200,42.000,9.449,2.593,378.200,81.670,17.520,5.206,baseline
1431.000,258.700,44.420,12.270,1125.000,198.000,34.790,8.880,188.700,41.980,9.422,2.580,376.500,81.660,17.570,5.156,baseline
1431.000,260.500,44.630,12.290,1125.000,198.800,34.570,8.863,187.400,42.050,9.518,2.588,378.600,81.820,17.540,5.188,baseline
1435.000,261.500,45.780,12.330,1122.000,198.500,34.830,8.883,189.300,42.020,9.488,2.621,378.000,82.220,17.540,5.240,baseline
1438.000,260.900,46.420,12.340,1128.000,198.100,34.930,8.955,192.600,42.330,9.597,2.618,379.800,82.190,17.530,5.186,baseline
1435.000,260.500,45.230,12.190,1116.000,198.700,34.300,8.866,189.200,41.940,9.489,2.573,373.800,81.060,17.270,5.108,baseline
1429.000,256.600,43.990,12.040,1125.000,198.300,34.040,8.867,188.000,42.270,9.451,2.576,374.300,80.790,17.260,5.132,baseline
1426.000,258.400,44.040,12.080,1120.000,198.300,34.580,8.910,189.700,41.930,9.424,2.603,374.000,80.570,17.130,5.059,baseline
1427.000,257.000,44.070,12.070,1121.000,197.700,34.830,8.862,187.100,41.430,9.531,2.589,373.100,80.120,17.070,5.074,baseline
1426.000,255.700,44.750,12.100,1121.000,197.600,35.050,8.836,190.700,41.770,9.446,2.572,372.700,80.030,17.000,5.070,baseline
1425.000,258.000,44.350,12.100,1125.000,197.600,35.190,8.815,190.100,41.850,9.357,2.571,373.200,80.310,17.280,5.087,baseline
1428.000,258.500,44.350,12.140,1123.000,198.500,34.900,8.918,186.500,41.720,9.385,2.556,372.700,80.320,17.190,5.080,baseline
1425.000,256.800,44.500,12.010,1117.000,197.900,34.490,8.805,188.300,41.610,9.414,2.554,368.900,79.040,16.810,4.968,baseline
1412.000,254.500,43.520,11.890,1116.000,197.100,35.340,8.829,186.500,41.550,9.286,2.551,366.700,78.610,16.750,4.987,baseline
1408.000,253.900,43.340,11.870,1106.000,196.300,34.810,8.809,187.900,41.570,9.274,2.563,364.800,78.460,16.670,4.932,baseline
1404.000,253.100,44.310,11.750,1117.000,196.400,34.440,8.838,191.500,41.200,9.318,2.570,363.900,78.450,16.670,4.914,baseline
1400.000,252.600,42.980,11.830,1111.000,196.700,34.450,8.849,186.300,40.900,9.308,2.552,361.600,78.030,16.620,4.959,baseline
1400.000,253.900,44.250,11.810,1111.000,196.900,33.920,8.871,185.300,41.360,9.367,2.555,364.000,78.210,16.560,4.930,baseline
1402.000,251.900,43.510,11.840,1109.000,197.300,33.620,8.916,187.200,41.220,9.354,2.548,363.200,78.370,16.600,4.970,baseline
1400.000,252.700,43.840,11.790,1103.000,196.800,34.860,8.792,189.000,41.410,9.262,2.557,362.500,77.360,16.470,4.883,baseline
1388.000,249.600,43.060,11.600,1099.000,195.600,34.700,8.822,187.000,40.970,9.200,2.531,358.500,76.770,16.180,4.768,baseline
1377.000,248.200,42.390,11.560,1109.000,195.300,35.090,8.759,187.800,41.080,9.217,2.534,353.900,76.170,16.070,4.769,baseline
1372.000,247.400,42.610,11.460,1096.000,195.100,35.380,8.793,185.500,40.850,9.223,2.529,353.500,75.840,16.080,4.760,baseline
1368.000,245.000,42.000,11.540,1102.000,194.800,34.410,8.758,186.300,40.610,9.202,2.521,353.300,75.670,16.010,4.797,baseline
1365.000,245.200,41.710,11.470,1105.000,195.300,35.230,8.835,185.600,40.690,9.248,2.516,353.900,75.740,16.020,4.736,baseline
1367.000,246.400,42.960,11.490,1108.000,195.200,34.650,8.848,184.800,40.870,9.243,2.521,353.900,75.810,16.130,4.779,baseline
1367.000,244.500,41.050,11.570,1100.000,195.600,34.660,8.861,183.100,40.580,9.237,2.523,355.900,76.510,16.220,4.794,baseline
1368.000,246.700,42.670,11.510,1104.000,196.000,34.710,8.791,186.000,40.950,9.302,2.517,352.800,75.300,15.900,4.711,baseline
1354.000,243.400,42.960,11.360,1102.000,194.200,35.050,8.761,183.800,40.800,9.119,2.519,348.500,74.350,15.710,4.662,baseline
1347.000,240.600,41.570,11.140,1096.000,195.000,34.680,8.794,181.700,40.750,9.129,2.492,347.400,74.220,15.750,4.636,baseline
1341.000,243.400,43.270,11.270,1097.000,193.700,33.930,8.775,184.600,40.660,9.220,2.493,347.200,74.600,15.690,4.636,baseline
1340.000,239.800,41.360,11.210,1100.000,194.500,34.640,8.844,184.500,40.270,9.240,2.509,348.100,74.340,15.770,4.624,baseline
1338.000,240.200,40.590,11.290,1096.000,194.400,34.720,8.784,183.700,40.370,9.094,2.485,348.800,74.130,15.710,4.686,baseline
1340.000,242.500,41.340,11.380,1096.000,195.400,34.710,8.874,182.300,40.830,9.074,2.504,349.100,75.120,15.880,4.713,baseline
1342.000,242.100,41.410,11.410,1103.000,194.600,35.340,8.819,182.700,40.900,9.184,2.509,350.200,74.830,15.910,4.726,baseline
1348.000,242.200,41.700,11.450,1106.000,195.800,34.760,8.870,181.600,40.760,9.156,2.503,350.300,75.510,16.130,4.756,baseline
1350.000,245.300,40.230,11.440,1102.000,194.500,33.820,8.847,182.400,40.490,9.151,2.531,353.000,74.710,15.870,4.633,baseline
1338.000,240.300,42.400,11.260,1100.000,194.200,34.730,8.854,179.500,40.330,9.132,2.503,348.200,74.140,15.680,4.630,baseline
1335.000,238.200,42.060,11.200,1101.000,194.600,34.520,8.850,182.400,40.420,9.178,2.504,347.100,74.300,15.740,4.669,baseline
1332.000,239.000,41.380,11.290,1098.000,195.000,34.510,8.835,180.700,40.410,9.155,2.508,346.700,74.250,15.820,4.686,baseline
1332.000,240.600,41.170,11.260,1104.000,195.400,33.410,8.875,184.200,40.310,9.110,2.505,347.700,74.530,15.790,4.660,baseline
1333.000,240.000,42.060,11.330,1096.000,195.300,34.140,8.918,181.600,40.360,9.128,2.503,347.700,74.520,15.810,4.701,baseline
1336.000,239.300,42.050,11.600,1105.000,195.700,35.180,8.906,181.600,40.580,9.187,2.516,350.600,75.190,15.950,4.729,baseline
1339.000,241.500,41.590,11.410,1102.000,196.100,34.570,8.876,185.100,40.470,9.210,2.524,350.500,75.850,16.030,4.767,baseline
1344.000,241.700,41.440,11.450,1106.000,195.900,35.110,8.871,184.100,40.980,9.273,2.512,352.800,76.040,16.130,4.804,baseline
1347.000,244.000,41.060,11.480,1115.000,196.000,34.690,8.865,184.000,40.950,9.310,2.520,351.300,75.560,16.090,4.753,baseline
1340.000,241.300,41.690,11.320,1096.000,194.800,33.750,8.827,182.300,40.670,9.254,2.497,349.200,75.010,15.960,4.709,baseline
1339.000,242.900,40.550,11.450,1104.000,195.800,34.660,8.867,185.200,40.740,9.182,2.527,350.000,75.420,16.120,4.735,baseline
1342.000,241.500,41.010,11.470,1105.000,196.400,33.970,8.930,181.800,40.620,9.181,2.521,351.300,75.360,16.050,4.774,baseline
1342.000,242.600,41.920,11.530,1107.000,196.000,34.850,8.922,182.000,40.830,9.242,2.533,353.300,75.730,15.970,4.753,baseline
1345.000,243.300,43.110,11.570,1105.000,196.700,33.360,8.909,180.200,40.580,9.163,2.533,353.300,75.800,16.170,4.796,baseline
1351.000,242.200,42.270,11.620,1112.000,197.000,34.390,9.005,187.500,40.900,9.281,2.532,353.700,76.230,16.250,4.820,baseline
1356.000,243.300,42.380,11.760,1107.000,198.000,34.220,8.969,186.900,41.000,9.283,2.529,357.600,76.920,16.420,4.907,baseline
1362.000,245.700,42.600,11.750,1112.000,197.200,34.350,8.960,187.500,41.090,9.216,2.538,357.500,77.030,16.500,4.894,baseline
1366.000,246.500,42.570,11.780,1109.000,196.100,34.750,8.957,185.900,41.300,9.280,2.540,357.300,76.780,16.540,4.855,baseline
1361.000,247.200,42.930,11.700,1111.000,197.000,34.620,8.938,185.700,40.780,9.289,2.545,355.300,76.730,16.330,4.825,baseline
1359.000,245.300,42.380,11.710,1115.000,197.200,34.950,8.894,179.900,41.160,9.235,2.523,357.000,76.710,16.510,4.876,baseline
1362.000,245.100,41.050,11.730,1109.000,197.200,34.830,8.923,182.500,40.980,9.229,2.534,356.800,76.780,16.330,4.835,baseline
1364.000,247.400,42.940,11.640,1114.000,198.300,34.050,8.896,182.800,41.050,9.229,2.529,357.400,77.080,16.460,4.904,baseline
1364.000,247.400,42.390,11.810,1109.000,197.800,33.970,8.940,182.000,41.420,9.238,2.542,358.600,77.340,16.510,4.912,baseline
1369.000,246.600,43.820,11.770,1116.000,198.000,34.230,8.907,185.500,41.090,9.295,2.558,362.100,77.770,16.670,4.927,baseline
1371.000,249.300,45.350,11.910,1113.000,197.500,33.850,8.959,184.600,41.180,9.296,2.561,362.000,78.090,16.730,4.971,baseline
1374.000,247.600,44.470,11.880,1109.000,197.600,34.270,9.012,184.300,41.260,9.355,2.566,360.900,78.040,16.890,5.016,baseline
1378.000,248.400,43.350,11.850,1116.000,198.200,33.950,8.976,183.800,41.360,9.361,2.567,364.000,78.650,16.750,5.001,baseline
1375.000,248.000,44.000,11.790,1106.000,197.300,35.310,8.899,185.200,41.280,9.290,2.550,360.000,78.050,16.660,4.936,baseline
1372.000,248.100,42.550,11.800,1111.000,196.800,33.890,8.833,186.100,41.040,9.346,2.553,360.500,78.200,16.610,4.909,baseline
1374.000,247.900,43.010,11.720,1105.000,195.100,35.020,8.863,186.300,40.900,9.331,2.573,362.900,78.140,16.750,4.949,baseline
1376.000,247.400,43.280,11.760,1105.000,195.500,34.540,8.848,186.400,41.460,9.366,2.550,361.600,77.900,16.860,4.944,baseline
1374.000,249.400,42.740,11.790,1109.000,196.500,34.380,8.829,187.500,41.410,9.356,2.561,362.800,78.590,16.680,4.994,baseline
1376.000,249.900,43.490,11.860,1114.000,197.000,34.210,8.861,186.700,41.590,9.355,2.579,363.300,78.850,16.920,5.022,baseline
1378.000,248.800,44.160,11.840,1098.000,196.400,34.690,8.855,188.000,41.430,9.440,2.579,365.800,78.820,16.910,5.065,baseline
1375.000,248.400,42.360,11.810,1101.000,195.700,34.260,8.774,186.800,41.500,9.454,2.588,366.500,79.650,17.050,5.098,baseline
1375.000,250.000,42.720,11.850,1097.000,194.900,35.140,8.731,187.700,41.900,9.418,2.590,366.100,79.090,16.900,5.018,baseline
1367.000,246.300,41.190,11.700,1093.000,194.700,34.750,8.757,187.300,41.890,9.396,2.588,363.600,78.540,16.710,4.989,baseline
1365.000,245.700,42.580,11.670,1090.000,194.500,34.260,8.719,187.100,41.630,9.362,2.574,362.700,78.320,16.730,4.976,baseline
1373.000,248.400,44.730,11.750,1096.000,195.500,34.740,8.814,186.600,41.530,9.357,2.580,364.200,78.220,16.830,5.004,baseline
1380.000,249.000,42.180,11.720,1105.000,197.200,35.010,8.912,184.900,41.360,9.461,2.587,365.100,78.580,16.790,5.027,baseline
1387.000,249.500,43.230,11.830,1108.000,196.700,35.990,8.893,189.000,41.570,9.411,2.578,365.600,78.850,16.760,4.997,baseline
1392.000,252.100,43.810,11.850,1112.000,197.900,36.210,8.943,189.800,41.750,9.383,2.613,365.800,78.710,16.840,5.036,baseline
1398.000,251.700,43.750,12.070,1118.000,197.800,36.280,8.905,187.400,41.990,9.503,2.618,367.300,79.150,16.970,5.048,baseline
1402.000,254.600,44.230,12.000,1120.000,198.900,35.180,9.042,188.600,42.070,9.396,2.589,368.300,79.490,17.060,5.104,baseline
1406.000,253.600,43.980,12.060,1112.000,198.000,35.650,8.972,189.900,41.630,9.472,2.614,365.700,78.920,16.790,5.041,baseline
1399.000,253.500,42.270,11.790,1118.000,198.300,35.630,8.957,190.100,41.520,9.426,2.572,364.200,77.960,16.770,5.003,baseline
1397.000,251.100,43.680,11.790,1113.000,197.000,36.090,8.981,188.300,41.550,9.390,2.582,364.100,78.120,16.750,4.995,baseline
1395.000,251.200,43.880,11.870,1112.000,196.900,34.850,8.887,187.600,41.540,9.516,2.577,365.600,78.100,16.730,4.986,baseline
1391.000,250.700,43.970,11.740,1106.000,197.000,35.140,8.895,188.400,41.510,9.385,2.597,361.800,77.940,16.690,4.956,baseline
1393.000,252.300,43.180,11.780,1106.000,197.700,35.040,8.864,186.300,41.620,9.447,2.586,362.700,77.760,16.600,4.973,baseline
1390.000,248.700,43.010,11.830,1100.000,197.100,35.500,8.895,186.800,41.680,9.403,2.589,364.300,78.360,16.830,5.013,baseline
1391.000,249.400,43.250,11.820,1099.000,196.300,35.830,8.875,187.400,41.530,9.465,2.592,365.100,78.070,16.840,5.017,baseline
1393.000,251.600,42.760,11.850,1101.000,195.700,34.500,8.832,185.800,41.770,9.485,2.586,364.800,78.240,16.690,4.976,baseline
1382.000,250.100,41.710,11.640,1103.000,195.600,35.630,8.834,188.300,41.320,9.338,2.563,359.700,76.880,16.600,4.903,baseline
1375.000,249.800,43.210,11.630,1099.000,195.100,35.140,8.798,186.600,41.240,9.371,2.576,358.900,77.230,16.440,4.882,baseline
1374.000,247.000,43.470,11.480,1099.000,194.800,34.950,8.824,185.800,41.170,9.333,2.562,360.100,76.850,16.430,4.901,baseline
1370.000,248.400,43.770,11.550,1089.000,194.600,34.970,8.814,185.300,41.290,9.384,2.574,359.700,76.820,16.410,4.882,baseline
1369.000,247.900,44.070,11.560,1098.000,194.500,35.030,8.828,185.300,41.390,9.346,2.589,359.000,76.310,16.530,4.927,baseline
1368.000,248.900,43.580,11.560,1098.000,194.200,34.390,8.802,187.200,41.510,9.315,2.595,358.000,77.250,16.590,4.919,baseline
1370.000,247.500,42.650,11.620,1091.000,194.500,34.150,8.836,182.900,41.540,9.276,2.603,360.500,77.520,16.550,4.951,baseline
1373.000,247.900,42.100,11.660,1091.000,194.000,34.910,8.771,184.900,41.550,9.337,2.582,359.400,76.860,16.450,4.898,baseline
1363.000,244.600,43.500,11.480,1089.000,193.900,34.360,8.800,184.100,41.370,9.335,2.563,356.000,76.170,16.280,4.842,baseline
1359.000,244.700,41.750,11.420,1085.000,193.600,34.730,8.737,183.700,41.180,9.340,2.553,355.600,75.960,16.190,4.844,baseline
1355.000,245.300,41.080,11.410,1089.000,192.900,33.800,8.787,183.700,40.940,9.332,2.566,355.200,75.790,16.260,4.839,baseline
1352.000,242.800,40.980,11.400,1088.000,192.900,33.510,8.772,183.600,41.310,9.333,2.568,355.300,75.710,16.170,4.808,baseline
1350.000,245.400,39.050,11.350,1087.000,192.500,34.530,8.759,182.000,40.870,9.320,2.577,355.900,76.040,16.220,4.873,baseline
1349.000,243.300,42.000,11.490,1084.000,193.100,33.910,8.799,179.300,41.030,9.383,2.592,354.100,76.840,16.390,4.929,baseline
1351.000,243.300,42.790,11.470,1083.000,192.700,33.660,8.806,185.100,41.260,9.378,2.609,356.900,76.520,16.400,4.891,baseline
1349.000,243.300,42.170,11.380,1081.000,192.100,33.900,8.767,184.500,41.100,9.376,2.598,354.600,76.010,16.160,4.797,baseline
1337.000,241.200,41.260,11.250,1081.000,191.400,33.840,8.738,182.500,41.110,9.297,2.578,351.800,74.690,16.060,4.733,baseline
1335.000,238.700,41.370,11.230,1079.000,190.700,34.250,8.718,187.300,40.740,9.313,2.563,350.100,74.690,15.960,4.763,baseline
1331.000,239.100,41.510,11.230,1075.000,191.500,33.570,8.738,183.600,41.330,9.296,2.586,351.700,74.860,15.950,4.723,baseline
1327.000,240.000,41.460,11.210,1071.000,191.600,33.890,8.780,179.900,41.170,9.319,2.586,349.900,75.210,16.070,4.755,baseline
1325.000,239.000,40.370,11.200,1080.000,191.800,33.650,8.771,182.100,41.280,9.301,2.580,351.300,75.200,16.090,4.775,baseline
1325.000,239.000,40.800,11.290,1078.000,191.000,32.620,8.761,184.600,41.540,9.355,2.579,351.500,75.530,16.030,4.797,baseline
1327.000,239.100,40.160,11.340,1078.000,191.900,33.920,8.856,184.300,41.480,9.403,2.597,350.800,75.440,16.040,4.775,baseline
1326.000,237.500,39.970,11.190,1080.000,191.000,34.100,8.726,186.400,41.170,9.376,2.587,347.900,74.370,15.830,4.697,baseline
1313.000,235.100,39.940,11.050,1069.000,189.600,33.530,8.756,180.600,40.960,9.341,2.549,347.500,74.540,15.780,4.687,baseline
1308.000,236.400,40.550,11.040,1072.000,190.200,33.270,8.739,181.700,40.960,9.345,2.572,346.900,74.400,15.770,4.678,baseline
1306.000,236.300,40.860,11.060,1070.000,190.300,33.410,8.787,183.200,41.380,9.294,2.556,346.100,74.360,15.800,4.653,baseline
1303.000,234.500,39.560,11.130,1068.000,189.900,33.460,8.772,181.000,41.070,9.381,2.569,346.800,74.680,15.870,4.706,baseline
1303.000,234.200,41.430,11.110,1071.000,189.900,33.580,8.789,182.800,41.460,9.360,2.588,346.400,74.160,15.880,4.694,baseline
1306.000,234.200,41.180,11.150,1066.000,191.000,33.360,8.830,184.700,41.340,9.375,2.574,348.300,74.870,15.970,4.734,baseline
1309.000,235.100,41.150,11.120,1069.000,191.100,33.120,8.835,181.500,41.290,9.391,2.597,349.200,75.470,16.080,4.744,baseline
1308.000,236.400,39.850,11.040,1072.000,190.500,33.940,8.746,182.900,41.020,9.370,2.573,348.200,74.230,15.820,4.624,baseline
1297.000,232.500,39.210,10.960,1072.000,190.100,33.490,8.733,186.100,40.800,9.374,2.568,345.300,73.960,15.680,4.624,baseline
1293.000,232.000,38.930,11.140,1067.000,191.100,33.640,8.798,181.600,41.070,9.297,2.578,346.100,74.070,15.780,4.615,baseline
1290.000,232.800,39.320,10.940,1071.000,190.500,33.610,8.730,184.800,41.200,9.406,2.591,345.100,73.520,15.670,4.676,baseline
1288.000,231.900,39.660,10.960,1075.000,190.700,33.230,8.832,184.400,41.180,9.381,2.585,345.300,74.200,15.750,4.657,baseline
1290.000,232.700,41.760,10.980,1076.000,191.600,34.220,8.906,184.100,41.240,9.399,2.614,345.400,74.420,15.900,4.654,baseline
1291.000,232.800,40.490,11.130,1071.000,191.700,34.010,8.844,186.500,41.200,9.393,2.611,347.200,74.630,15.960,4.688,baseline
1294.000,232.600,40.230,11.040,1074.000,190.800,33.940,8.852,184.400,41.460,9.477,2.628,350.200,74.910,15.830,4.732,baseline
1298.000,234.300,40.490,11.150,1077.000,191.400,34.400,8.828,186.100,41.600,9.476,2.615,350.200,74.910,15.910,4.666,baseline
1292.000,230.300,41.600,11.000,1076.000,191.200,34.240,8.879,181.300,41.850,9.468,2.628,347.600,74.440,15.730,4.649,baseline
1285.000,229.400,40.140,10.890,1065.000,191.200,34.120,8.905,183.300,41.250,9.441,2.611,345.500,74.030,15.690,4.585,baseline
1282.000,231.500,38.340,10.930,1071.000,191.800,34.250,8.811,181.100,41.490,9.518,2.611,347.000,74.250,15.860,4.624,baseline
1283.000,229.700,39.000,10.910,1074.000,190.700,33.980,8.840,183.000,41.800,9.465,2.607,347.900,74.140,15.660,4.628,baseline
1281.000,231.700,37.910,10.910,1075.000,191.200,35.050,8.916,186.800,41.400,9.489,2.649,346.200,74.440,15.840,4.635,baseline
1285.000,233.000,39.810,10.930,1076.000,191.500,34.350,8.886,183.200,41.700,9.580,2.641,347.100,74.840,15.770,4.684,baseline
1288.000,231.700,39.820,10.950,1076.000,192.500,33.760,8.960,183.600,41.670,9.639,2.649,348.700,75.080,16.050,4.688,baseline
1291.000,233.800,40.020,11.020,1082.000,193.600,35.200,9.024,185.500,41.870,9.669,2.663,351.900,75.160,16.000,4.719,baseline
1299.000,233.900,41.680,11.190,1081.000,194.900,34.350,9.086,186.100,41.880,9.645,2.658,351.100,75.560,16.180,4.775,baseline
1304.000,234.000,40.240,11.040,1082.000,195.000,34.780,8.982,186.000,42.500,9.607,2.675,350.100,75.270,15.970,4.702,baseline
1300.000,234.600,40.210,11.110,1078.000,193.800,35.100,9.032,183.900,41.730,9.610,2.662,349.200,74.770,15.840,4.658,baseline
1299.000,231.500,39.870,11.040,1084.000,194.100,34.000,8.996,185.900,41.930,9.611,2.666,350.200,74.740,15.710,4.649,baseline
1298.000,234.800,39.020,10.940,1082.000,194.400,35.290,8.999,186.100,42.220,9.605,2.647,349.500,74.620,15.950,4.641,baseline
1297.000,231.700,39.090,10.940,1080.000,193.000,34.780,8.963,186.400,42.150,9.629,2.681,349.500,74.780,15.780,4.666,baseline
1293.000,232.200,39.530,11.020,1080.000,192.200,34.530,8.982,186.400,41.900,9.550,2.677,350.100,74.970,15.900,4.673,baseline
1292.000,233.900,38.180,10.970,1076.000,193.600,34.410,9.066,190.200,41.860,9.633,2.694,350.000,75.200,15.950,4.697,baseline
1294.000,233.900,41.160,11.100,1076.000,192.200,33.990,8.974,188.600,42.210,9.611,2.681,352.700,75.260,16.060,4.722,baseline
1293.000,233.200,39.350,11.020,1073.000,194.500,34.910,8.981,189.100,42.180,9.740,2.676,353.800,75.980,16.050,4.749,baseline
1298.000,236.400,39.760,11.090,1080.000,193.000,35.040,9.023,185.400,42.530,9.757,2.703,354.700,76.170,16.250,4.770,baseline
1302.000,234.400,41.690,11.200,1077.000,193.300,34.650,9.028,188.200,42.440,9.730,2.719,355.900,76.260,16.120,4.751,baseline
1299.000,232.900,40.330,11.020,1086.000,193.300,34.610,8.941,191.600,42.390,9.700,2.708,353.400,75.690,15.940,4.727,baseline
1298.000,232.400,40.790,10.940,1077.000,193.700,34.430,8.932,188.300,42.430,9.672,2.682,351.700,75.290,15.990,4.683,baseline
1299.000,232.400,40.870,11.030,1082.000,193.700,34.610,9.079,188.500,42.440,9.696,2.689,353.400,75.260,15.970,4.668,baseline
1302.000,236.700,41.270,11.020,1080.000,194.300,34.900,8.992,190.800,42.310,9.765,2.707,352.700,75.150,15.960,4.689,baseline
1305.000,235.900,40.860,11.030,1082.000,194.000,34.660,9.012,187.200,42.270,9.668,2.691,353.400,75.570,16.000,4.673,baseline
1310.000,236.600,40.820,10.970,1086.000,193.900,35.260,9.038,184.600,42.510,9.747,2.714,352.900,75.310,15.990,4.730,baseline
1317.000,236.300,39.440,11.160,1090.000,195.200,35.100,9.152,189.700,42.480,9.710,2.716,354.500,76.000,16.070,4.727,baseline
1324.000,240.100,39.960,11.260,1094.000,196.600,35.730,9.217,191.400,42.460,9.793,2.697,356.100,75.950,16.070,4.725,baseline
1333.000,238.600,42.310,11.330,1107.000,198.200,35.470,9.314,189.500,42.650,9.789,2.729,356.700,76.510,16.230,4.783,baseline
1346.000,243.500,42.920,11.420,1110.000,198.900,35.040,9.258,191.900,42.710,9.797,2.729,358.000,76.470,16.280,4.767,baseline
1352.000,245.300,41.650,11.440,1107.000,198.500,35.300,9.295,189.700,42.850,9.840,2.731,355.800,75.850,16.200,4.752,baseline
1346.000,242.200,41.790,11.290,1109.000,198.900,35.580,9.311,189.100,42.400,9.767,2.737,354.600,75.650,16.040,4.682,baseline
1344.000,241.400,43.470,11.320,1110.000,199.200,34.550,9.290,187.200,42.680,9.795,2.711,354.100,75.100,15.870,4.677,baseline
1347.000,240.800,41.850,11.340,1107.000,198.900,35.460,9.294,183.900,42.630,9.757,2.709,353.300,75.470,15.840,4.702,baseline
1350.000,243.700,41.330,11.330,1116.000,199.100,35.260,9.314,186.600,42.540,9.746,2.718,351.600,74.880,15.960,4.669,baseline
1353.000,243.100,42.630,11.350,1107.000,199.800,34.950,9.370,189.400,42.300,9.750,2.694,352.500,75.190,15.820,4.683,baseline
1360.000,244.500,43.120,11.450,1115.000,201.200,36.040,9.367,188.200,42.480,9.705,2.718,353.200,75.080,15.930,4.718,baseline
1365.000,244.400,41.430,11.540,1119.000,200.500,36.260,9.439,186.200,42.780,9.737,2.710,354.700,75.710,16.080,4.734,baseline
1368.000,247.900,42.770,11.570,1121.000,200.600,35.510,9.422,183.200,42.480,9.732,2.728,356.800,76.050,16.070,4.768,baseline
1370.000,247.000,43.380,11.660,1121.000,202.100,36.480,9.437,190.900,42.750,9.715,2.725,355.900,76.030,16.090,4.771,baseline
1375.000,248.700,42.850,11.560,1120.000,201.800,35.910,9.447,187.900,42.700,9.722,2.720,354.200,75.380,15.940,4.694,baseline
1369.000,244.600,44.050,11.510,1123.000,201.600,35.890,9.461,189.600,42.540,9.785,2.702,352.600,74.620,15.800,4.602,baseline
1371.000,246.600,42.720,11.460,1124.000,201.200,35.230,9.467,185.900,42.360,9.690,2.707,350.600,74.430,15.730,4.626,baseline
1371.000,246.400,42.760,11.550,1120.000,201.000,35.990,9.466,187.200,42.360,9.722,2.689,349.900,74.540,15.750,4.676,baseline
1370.000,246.700,43.300,11.530,1119.000,201.000,36.160,9.530,186.700,42.480,9.725,2.695,353.500,74.380,15.750,4.643,baseline
1371.000,246.700,41.980,11.490,1121.000,202.600,36.010,9.516,188.100,42.460,9.674,2.690,351.000,74.580,15.800,4.654,baseline
1374.000,248.500,42.690,11.620,1130.000,201.900,36.160,9.549,190.000,42.650,9.723,2.727,351.200,75.000,15.870,4.704,baseline
1376.000,246.800,43.110,11.650,1126.000,201.300,36.250,9.592,187.200,42.800,9.749,2.718,351.300,75.410,15.900,4.655,baseline
1377.000,247.900,42.720,11.650,1126.000,201.600,36.400,9.602,188.000,42.810,9.735,2.723,352.200,75.340,15.940,4.750,baseline
1382.000,248.500,43.390,11.750,1125.000,202.800,36.950,9.598,187.200,42.940,9.748,2.736,352.800,75.690,15.900,4.693,baseline
1385.000,250.000,42.120,11.630,1133.000,203.100,37.000,9.619,186.200,42.720,9.772,2.710,352.000,74.970,15.730,4.652,baseline
1380.000,248.200,42.970,11.570,1135.000,203.200,36.870,9.723,184.000,42.300,9.665,2.690,350.600,74.120,15.510,4.609,baseline
1381.000,246.200,42.870,11.680,1130.000,204.000,36.650,9.690,185.500,42.270,9.678,2.692,348.800,74.150,15.590,4.589,baseline
1382.000,246.600,42.260,11.690,1137.000,204.700,36.530,9.734,187.200,42.450,9.653,2.688,347.600,73.830,15.600,4.539,baseline
1378.000,245.900,43.270,11.620,1136.000,203.300,36.090,9.754,185.900,42.390,9.711,2.674,349.100,74.190,15.760,4.568,baseline
1377.000,244.600,42.490,11.710,1136.000,205.300,36.870,9.764,186.900,42.670,9.737,2.695,349.800,74.390,15.730,4.636,baseline
1381.000,247.100,42.760,11.810,1133.000,204.000,36.510,9.783,188.800,42.620,9.675,2.691,350.300,74.880,15.710,4.658,baseline
1385.000,249.100,43.420,11.840,1143.000,204.700,37.220,9.897,187.600,42.740,9.800,2.725,350.800,75.210,15.750,4.691,baseline
1387.000,250.100,43.830,11.930,1141.000,205.500,37.120,9.889,183.600,42.960,9.805,2.714,351.100,75.430,15.880,4.697,baseline
1391.000,249.200,43.210,12.080,1145.000,206.500,37.390,9.878,187.800,42.650,9.787,2.734,353.100,75.940,15.880,4.684,baseline
1386.000,248.200,41.480,11.710,1144.000,205.200,36.790,9.787,184.200,42.680,9.819,2.683,351.400,74.450,15.710,4.579,baseline
1378.000,249.300,42.610,11.640,1140.000,204.000,37.130,9.817,187.200,42.860,9.781,2.701,350.100,74.350,15.580,4.585,baseline
1373.000,247.300,41.550,11.680,1135.000,205.300,36.060,9.855,186.500,42.580,9.760,2.681,349.100,74.220,15.540,4.586,baseline
1372.000,248.800,42.460,11.650,1133.000,203.400,36.980,9.758,183.400,42.880,9.737,2.726,347.400,74.170,15.610,4.617,baseline
1369.000,244.900,43.030,11.620,1140.000,202.900,36.990,9.766,186.200,42.710,9.761,2.691,347.200,73.830,15.660,4.575,baseline
1365.000,245.800,42.120,11.710,1128.000,204.300,36.310,9.749,187.800,42.780,9.678,2.705,348.700,74.340,15.770,4.612,baseline
1363.000,243.300,42.790,11.580,1136.000,203.800,36.520,9.725,187.300,42.780,9.792,2.727,348.500,74.620,15.700,4.639,baseline
1363.000,243.700,43.210,11.730,1120.000,203.200,36.060,9.784,187.900,42.750,9.813,2.722,349.200,74.920,15.730,4.697,baseline
1366.000,247.100,42.870,11.820,1128.000,203.600,37.170,9.806,187.300,42.500,9.797,2.717,351.700,75.690,15.910,4.679,baseline
1363.000,245.400,43.740,11.680,1130.000,203.100,36.190,9.781,189.700,43.260,9.819,2.717,349.800,74.690,15.760,4.612,baseline
1355.000,242.100,43.150,11.560,1125.000,202.800,36.240,9.720,184.300,42.610,9.743,2.711,348.800,74.310,15.650,4.631,baseline
1349.000,243.800,42.020,11.540,1126.000,201.900,37.040,9.682,184.800,43.200,9.787,2.707,349.500,74.520,15.730,4.597,baseline
1345.000,242.000,42.210,11.530,1123.000,202.600,36.460,9.685,187.900,42.800,9.760,2.722,348.600,74.730,15.810,4.605,baseline
1341.000,242.300,40.750,11.500,1122.000,201.500,36.600,9.685,187.700,42.770,9.784,2.717,349.700,74.480,15.750,4.614,baseline
1338.000,242.500,42.560,11.510,1123.000,202.500,36.540,9.701,179.000,42.750,9.807,2.705,348.400,74.290,15.730,4.610,baseline
1340.000,241.400,41.830,11.630,1127.000,201.700,37.200,9.776,184.600,42.850,9.735,2.722,349.500,75.010,15.890,4.670,baseline
1343.000,242.200,44.240,11.600,1123.000,203.500,36.140,9.780,186.100,42.910,9.819,2.707,350.500,75.140,15.940,4.668,baseline
1346.000,243.200,42.640,11.710,1131.000,202.200,36.860,9.757,183.700,43.160,9.785,2.696,350.700,75.170,15.910,4.709,baseline
1349.000,242.800,43.320,11.470,1117.000,202.000,37.160,9.650,187.100,42.760,9.784,2.697,349.500,74.390,15.730,4.658,baseline
1339.000,239.800,42.320,11.300,1129.000,201.700,36.740,9.610,185.100,42.750,9.676,2.720,347.600,74.060,15.650,4.602,baseline
1335.000,240.500,41.830,11.350,1120.000,202.500,36.600,9.606,188.900,42.720,9.778,2.709,347.700,74.110,15.660,4.618,baseline
1336.000,241.400,41.170,11.370,1120.000,202.300,37.840,9.651,186.200,42.720,9.707,2.716,348.700,74.450,15.740,4.625,baseline
1334.000,240.800,42.010,11.430,1126.000,201.600,36.880,9.622,185.300,42.680,9.703,2.713,349.400,74.320,15.780,4.605,baseline
1334.000,241.300,42.540,11.530,1127.000,201.700,36.710,9.603,186.200,42.710,9.740,2.739,348.800,74.670,15.880,4.701,baseline
1336.000,240.300,43.420,11.400,1121.000,202.100,36.850,9.581,187.300,42.650,9.811,2.717,350.400,74.890,15.890,4.723,baseline
1339.000,242.000,42.360,11.440,1124.000,202.800,36.710,9.599,188.100,42.880,9.731,2.741,351.500,75.520,15.960,4.731,baseline
1343.000,243.600,42.790,11.510,1127.000,203.700,36.410,9.586,186.400,42.780,9.801,2.730,352.300,75.620,16.000,4.740,baseline
1341.000,240.900,42.760,11.330,1116.000,202.700,36.270,9.438,186.200,43.270,9.704,2.736,351.600,75.170,15.920,4.662,baseline
1329.000,235.800,42.410,11.210,1119.000,200.400,35.840,9.463,187.500,43.070,9.754,2.723,352.000,75.140,16.020,4.672,baseline
1325.000,238.700,43.120,11.240,1115.000,200.100,35.890,9.454,186.500,42.970,9.744,2.734,351.700,75.400,15.940,4.696,baseline
1326.000,238.100,41.970,11.270,1114.000,200.600,36.310,9.524,189.500,42.830,9.816,2.728,352.900,75.520,16.010,4.748,baseline
1338.000,241.000,41.260,11.510,1126.000,204.100,37.380,9.688,186.700,43.340,9.808,2.721,353.500,76.140,16.110,4.733,baseline
1351.000,242.600,43.440,11.570,1132.000,205.500,37.570,9.743,193.800,43.250,9.877,2.731,354.000,76.200,16.140,4.812,baseline
1362.000,246.400,43.510,11.760,1139.000,205.500,37.350,9.828,193.100,43.170,9.881,2.754,355.800,76.550,16.340,4.826,baseline
1370.000,247.300,44.590,11.900,1141.000,205.900,37.460,9.868,190.600,43.310,9.872,2.746,358.200,76.850,16.330,4.836,baseline
1371.000,247.700,43.440,11.720,1143.000,206.200,37.750,9.809,191.300,43.210,9.855,2.752,354.700,75.920,16.050,4.722,baseline
1369.000,246.100,43.380,11.680,1144.000,207.400,37.560,9.791,187.800,43.020,9.794,2.737,353.300,75.540,15.920,4.689,baseline
1372.000,248.400,42.950,11.710,1154.000,207.800,37.590,9.838,194.000,42.680,9.799,2.725,353.300,75.710,16.130,4.702,baseline
1378.000,250.100,42.840,11.820,1151.000,207.900,37.540,9.925,188.700,42.830,9.788,2.743,355.600,75.880,16.150,4.800,baseline
1380.000,250.500,44.190,11.870,1154.000,209.200,37.300,9.936,192.600,43.150,9.810,2.753,355.900,76.110,16.100,4.760,baseline
1385.000,250.300,44.770,12.010,1155.000,209.500,37.850,9.911,191.900,43.070,9.878,2.736,356.600,76.610,16.230,4.784,baseline
1391.000,250.900,44.700,12.060,1157.000,210.100,38.320,9.971,192.200,42.810,9.836,2.761,356.900,76.650,16.360,4.855,baseline
1396.000,252.100,44.500,12.120,1161.000,208.900,38.120,9.929,192.100,43.230,9.871,2.750,358.000,76.650,16.250,4.756,baseline
1391.000,250.800,43.090,11.870,1158.000,209.700,37.800,9.937,195.800,43.000,9.864,2.743,354.500,75.870,16.020,4.727,baseline
1386.000,249.700,43.780,11.870,1156.000,209.900,38.170,9.946,190.000,43.390,9.839,2.738,355.000,75.550,16.000,4.743,baseline
1387.000,250.100,43.490,11.960,1157.000,208.700,38.080,9.975,190.800,42.800,9.834,2.738,356.100,75.830,16.160,4.740,baseline
1389.000,251.300,43.140,11.910,1162.000,209.600,37.000,9.941,189.900,42.870,9.780,2.730,354.900,75.680,16.070,4.779,baseline
1390.000,252.300,43.800,11.910,1153.000,208.900,38.560,9.947,194.700,43.340,9.852,2.732,355.200,75.900,16.140,4.797,baseline
1394.000,253.100,43.340,12.020,1157.000,209.600,38.370,9.988,192.700,43.540,9.858,2.763,356.900,76.390,16.210,4.800,baseline
1399.000,253.100,44.470,12.070,1158.000,211.200,38.040,10.070,192.700,43.350,9.913,2.744,358.200,76.740,16.320,4.833,baseline
1397.000,252.400,44.450,11.920,1154.000,209.200,38.610,9.934,191.700,43.510,9.884,2.752,354.100,75.930,16.120,4.735,baseline
1388.000,252.000,43.580,11.810,1156.000,209.200,37.960,9.921,192.400,43.180,9.839,2.742,353.800,75.220,16.070,4.690,baseline
1388.000,250.300,45.050,11.790,1156.000,209.000,38.080,9.934,188.000,43.160,9.814,2.735,353.800,75.170,16.050,4.720,baseline
1388.000,251.600,44.070,11.830,1160.000,210.500,37.810,9.898,189.500,42.740,9.834,2.751,353.300,75.220,16.020,4.749,baseline
1388.000,250.200,44.090,11.990,1151.000,210.700,38.140,9.958,191.800,43.080,9.874,2.744,353.800,75.360,16.020,4.749,baseline
1391.000,251.700,45.100,11.880,1157.000,209.800,37.730,9.933,192.500,42.850,9.834,2.742,354.800,75.680,16.130,4.761,baseline
1395.000,251.900,43.470,11.840,1161.000,209.900,38.180,9.996,193.300,43.250,9.894,2.777,355.400,75.940,16.070,4.785,baseline
1398.000,253.500,44.270,12.080,1161.000,210.600,38.870,9.997,191.700,43.350,9.875,2.777,355.100,76.000,16.150,4.741,baseline
1393.000,249.900,44.080,11.800,1163.000,209.500,37.870,9.939,191.500,42.940,9.840,2.762,350.400,74.910,15.840,4.683,baseline
1387.000,249.400,43.190,11.670,1159.000,209.800,38.470,9.878,195.800,42.690,9.803,2.747,349.100,74.450,15.780,4.630,baseline
1385.000,249.900,42.660,11.670,1158.000,208.300,38.120,9.907,194.900,43.360,9.826,2.750,349.900,74.670,15.860,4.659,baseline
1385.000,249.700,43.960,11.750,1158.000,209.500,37.570,9.938,192.600,43.030,9.819,2.739,351.000,74.630,15.920,4.691,baseline
1385.000,249.400,44.190,11.640,1160.000,209.200,38.100,9.985,189.900,43.070,9.893,2.747,350.300,74.540,15.870,4.678,baseline
1386.000,250.700,45.270,11.800,1156.000,210.500,37.830,10.030,189.500,42.840,9.830,2.782,351.600,75.540,15.890,4.714,baseline
1390.000,250.400,44.650,11.830,1157.000,209.700,38.860,9.997,192.300,43.560,9.993,2.786,352.300,75.520,15.980,4.749,baseline
1393.000,251.200,43.900,11.890,1160.000,210.300,38.250,10.010,192.500,43.460,9.900,2.769,353.900,75.810,16.000,4.702,baseline
1391.000,252.300,44.180,11.660,1156.000,209.100,38.050,9.958,190.700,43.160,9.861,2.764,350.100,74.060,15.770,4.688,baseline
1383.000,247.700,42.410,11.510,1161.000,208.500,38.460,9.909,192.200,42.810,9.832,2.742,348.900,74.010,15.620,4.625,baseline
1380.000,248.400,43.920,11.540,1157.000,209.700,38.240,9.940,191.000,42.770,9.804,2.741,348.700,73.970,15.780,4.639,baseline
1379.000,247.300,42.550,11.510,1156.000,209.100,37.590,9.941,195.000,42.770,9.821,2.737,347.900,73.900,15.660,4.660,baseline
1378.000,248.500,43.610,11.590,1161.000,209.100,38.890,9.975,190.800,43.080,9.849,2.746,349.100,74.110,15.650,4.645,baseline
1379.000,247.100,43.000,11.560,1155.000,209.700,37.810,9.936,190.300,43.000,9.847,2.758,349.500,74.640,15.830,4.670,baseline
1383.000,247.500,44.210,11.630,1157.000,210.400,37.310,10.050,188.600,42.790,9.856,2.765,350.400,74.550,15.920,4.683,baseline
1386.000,249.700,44.420,11.650,1156.000,209.400,38.240,10.010,196.900,43.170,9.859,2.765,352.800,75.330,15.910,4.721,baseline
1387.000,249.500,42.620,11.540,1155.000,209.600,38.320,9.931,193.500,43.190,9.814,2.790,349.400,74.010,15.630,4.588,baseline
1376.000,246.000,43.820,11.400,1148.000,208.700,38.250,9.842,191.500,42.630,9.740,2.756,346.100,73.520,15.450,4.612,baseline
1373.000,245.900,42.650,11.430,1151.000,209.100,37.910,9.877,189.900,42.860,9.758,2.756,345.900,73.140,15.490,4.571,baseline
1371.000,246.900,41.730,11.450,1153.000,207.300,38.690,9.851,189.700,42.660,9.825,2.764,345.000,73.620,15.500,4.588,baseline
1371.000,246.100,42.280,11.320,1149.000,208.900,38.470,9.894,188.100,42.880,9.850,2.749,346.000,73.530,15.530,4.607,baseline
1369.000,245.400,42.170,11.470,1151.000,208.600,38.170,9.943,191.700,42.840,9.895,2.766,347.200,73.870,15.550,4.635,baseline
1373.000,246.000,41.420,11.480,1157.000,209.900,37.310,10.030,189.700,42.810,9.824,2.773,349.200,73.950,15.790,4.625,baseline
1377.000,248.000,42.000,11.620,1156.000,209.400,38.650,9.976,189.400,42.960,9.885,2.761,349.900,74.580,15.860,4.687,baseline
1382.000,249.700,43.920,11.650,1165.000,210.000,37.690,9.968,193.000,43.060,9.950,2.794,352.400,74.830,15.850,4.696,baseline
1377.000,248.400,43.120,11.390,1157.000,208.700,37.890,9.913,190.400,43.410,9.970,2.796,348.200,73.680,15.630,4.608,baseline
1366.000,245.600,42.040,11.330,1150.000,209.100,37.870,9.949,190.600,43.350,9.848,2.754,347.800,73.570,15.540,4.598,baseline
1363.000,244.500,43.580,11.300,1150.000,208.600,38.290,9.918,192.400,42.930,9.840,2.769,346.100,73.750,15.520,4.587,baseline
1362.000,244.400,41.670,11.370,1146.000,209.400,38.060,9.965,190.500,43.410,9.880,2.781,347.100,73.800,15.590,4.580,baseline
1361.000,244.100,41.940,11.390,1154.000,208.900,38.460,9.993,194.300,42.930,9.790,2.770,346.800,73.560,15.570,4.593,baseline
1361.000,245.200,43.390,11.460,1147.000,210.300,37.980,9.962,191.100,43.190,9.940,2.777,348.000,74.470,15.780,4.645,baseline
1364.000,245.800,42.100,11.500,1149.000,208.900,37.850,10.040,193.700,43.310,9.911,2.791,347.400,74.550,15.780,4.679,baseline
1368.000,246.800,40.840,11.640,1159.000,209.900,37.640,10.060,193.200,43.480,9.919,2.807,349.700,74.900,15.790,4.731,baseline
1371.000,246.700,42.100,11.630,1160.000,209.500,37.990,9.999,193.600,43.330,9.958,2.815,350.400,74.840,16.010,4.681,baseline
1366.000,246.100,42.860,11.470,1149.000,208.100,38.220,9.960,193.000,43.560,9.879,2.780,347.900,74.160,15.550,4.587,baseline
1357.000,242.400,42.000,11.290,1147.000,209.200,38.170,9.950,191.000,43.080,9.886,2.780,347.600,74.110,15.560,4.616,baseline
1354.000,242.500,43.020,11.280,1142.000,208.500,38.260,9.984,192.700,42.680,9.887,2.798,347.200,73.870,15.750,4.584,baseline
1352.000,240.900,41.730,11.300,1146.000,208.300,37.600,9.939,193.500,43.040,10.060,2.786,346.800,73.820,15.730,4.621,baseline
1349.000,241.700,43.160,11.380,1148.000,207.500,38.120,9.923,191.600,43.580,9.947,2.793,346.600,73.820,15.560,4.625,baseline
1351.000,242.600,42.410,11.490,1151.000,209.300,37.970,10.000,192.800,43.350,10.000,2.811,349.000,74.060,15.800,4.653,baseline
1354.000,242.800,42.750,11.490,1150.000,208.700,37.990,10.050,189.800,43.430,10.000,2.820,349.000,74.550,15.920,4.666,baseline
1358.000,242.300,42.430,11.580,1150.000,209.200,38.010,10.070,189.500,43.190,10.030,2.831,349.400,74.890,15.900,4.717,baseline
1361.000,244.800,42.800,11.700,1147.000,209.500,38.200,10.090,192.200,43.410,9.965,2.809,352.200,75.430,16.040,4.718,baseline
1363.000,245.400,42.240,11.480,1152.000,208.600,37.880,9.962,194.600,43.410,9.957,2.829,348.700,74.190,15.710,4.649,baseline
1349.000,243.600,40.430,11.410,1146.000,208.600,38.300,10.000,189.500,43.530,9.980,2.787,349.200,74.130,15.700,4.634,baseline
1347.000,243.900,41.500,11.390,1148.000,207.900,37.700,10.010,191.900,43.100,9.939,2.813,347.900,74.140,15.770,4.634,baseline
1347.000,240.900,42.290,11.390,1148.000,208.700,38.180,9.962,192.100,43.600,10.010,2.790,348.100,74.400,15.630,4.645,baseline
1345.000,241.600,42.440,11.390,1143.000,207.300,37.840,10.040,194.500,43.130,10.000,2.807,348.900,73.980,15.740,4.663,baseline
1347.000,241.200,42.580,11.420,1151.000,208.000,38.020,10.020,189.900,43.620,10.010,2.807,348.000,74.440,15.850,4.655,baseline
1349.000,241.500,41.890,11.510,1149.000,209.800,38.030,10.090,193.100,43.500,10.030,2.827,351.400,74.820,15.990,4.683,baseline
1353.000,243.700,43.350,11.510,1152.000,209.600,38.350,10.060,195.200,43.800,10.040,2.836,351.200,75.190,16.000,4.697,baseline
1355.000,243.400,42.800,11.590,1157.000,210.200,38.070,10.100,191.700,43.680,10.100,2.853,352.300,75.190,16.030,4.781,baseline
1361.000,244.200,43.020,11.620,1160.000,209.000,38.250,10.080,193.200,43.680,10.140,2.849,352.600,75.680,16.020,4.734,baseline
1357.000,242.000,43.000,11.500,1148.000,209.000,38.130,10.050,193.100,43.470,10.100,2.829,351.700,74.830,15.900,4.658,baseline
1348.000,242.600,41.380,11.400,1145.000,209.500,38.620,10.010,193.200,43.660,9.982,2.833,348.400,74.710,15.750,4.674,baseline
1347.000,242.400,41.800,11.360,1149.000,208.800,37.330,10.030,189.900,43.510,10.060,2.821,349.900,74.870,15.930,4.632,baseline
1348.000,242.900,42.110,11.360,1148.000,208.500,37.480,10.080,193.900,43.560,10.020,2.843,349.800,74.420,15.890,4.664,baseline
1346.000,242.700,41.780,11.440,1146.000,209.500,37.220,10.070,193.100,43.550,10.080,2.857,349.400,74.930,15.910,4.670,baseline
1350.000,244.800,42.840,11.410,1155.000,208.700,37.770,10.140,193.400,43.560,10.090,2.817,350.800,74.930,16.070,4.680,baseline
1353.000,244.600,43.070,11.510,1149.000,209.500,38.310,10.100,196.400,43.530,10.070,2.855,352.500,75.340,15.990,4.728,baseline
1356.000,243.300,43.000,11.460,1159.000,208.800,38.570,10.170,193.900,43.570,10.080,2.856,353.600,75.600,16.130,4.772,baseline
1361.000,248.300,43.000,11.560,1152.000,210.600,37.380,10.170,192.700,43.930,10.170,2.862,354.700,75.660,16.210,4.750,baseline
1362.000,244.600,43.540,11.550,1152.000,210.100,38.040,10.090,196.300,44.140,10.160,2.855,351.000,75.080,15.950,4.670,baseline
1353.000,243.300,41.820,11.430,1149.000,210.300,38.120,10.070,194.600,43.430,10.070,2.824,353.000,74.850,15.750,4.658,baseline
1352.000,242.900,41.330,11.400,1152.000,209.300,38.470,10.070,192.600,43.570,10.040,2.816,350.900,74.730,15.810,4.705,baseline
1353.000,245.000,41.620,11.370,1155.000,208.500,38.040,10.040,194.600,43.540,10.090,2.835,351.200,74.800,15.840,4.662,baseline
1352.000,243.800,42.470,11.430,1151.000,208.900,38.250,10.050,193.900,43.700,10.070,2.848,351.200,74.710,15.860,4.708,baseline
1353.000,243.800,42.860,11.470,1151.000,209.600,39.110,10.080,195.900,43.970,10.020,2.873,353.400,75.290,15.920,4.716,baseline
1352.000,243.700,43.230,11.370,1148.000,207.500,37.800,10.110,195.100,43.700,10.100,2.870,352.700,75.370,15.970,4.717,baseline
1352.000,243.100,42.500,11.420,1148.000,209.500,38.400,10.070,194.000,44.140,10.120,2.871,354.000,75.500,16.090,4.769,baseline
1354.000,243.800,42.290,11.500,1150.000,209.500,37.970,10.170,194.500,43.940,10.200,2.859,355.300,76.190,16.130,4.757,baseline
1357.000,243.200,43.030,11.480,1149.000,208.400,37.630,10.080,195.400,44.050,10.150,2.854,354.100,75.320,15.710,4.732,baseline
1350.000,243.300,43.470,11.410,1144.000,208.600,38.470,10.020,192.800,43.730,10.030,2.818,352.300,74.860,15.740,4.685,baseline
1350.000,242.000,42.920,11.360,1147.000,208.700,38.110,10.080,194.800,43.520,10.040,2.855,351.500,74.850,15.740,4.646,baseline
1358.000,244.900,42.050,11.380,1148.000,209.200,38.450,10.050,191.100,43.760,9.956,2.847,351.800,74.820,15.660,4.672,baseline
1358.000,243.900,41.420,11.340,1154.000,209.600,39.230,10.020,194.200,43.850,10.050,2.840,352.300,74.860,15.740,4.614,baseline
1365.000,246.600,42.630,11.390,1154.000,211.400,38.500,10.100,193.400,43.890,10.030,2.854,351.400,75.070,15.790,4.641,baseline
1367.000,245.600,41.750,11.500,1158.000,211.100,39.030,10.180,194.700,43.900,10.070,2.854,354.300,75.080,15.960,4.699,baseline
1370.000,246.500,41.770,11.520,1155.000,211.700,38.720,10.190,193.900,43.600,10.090,2.849,353.200,75.560,15.970,4.676,baseline
1375.000,250.700,42.930,11.610,1160.000,212.100,38.240,10.210,197.200,44.010,10.130,2.845,354.300,75.490,15.950,4.696,baseline
1371.000,247.400,43.300,11.480,1150.000,208.700,38.300,10.100,193.600,43.730,10.050,2.844,352.200,74.750,15.610,4.649,baseline
1360.000,244.500,43.230,11.320,1149.000,209.100,38.680,10.000,192.300,43.540,10.030,2.829,349.900,74.680,15.790,4.596,baseline
1355.000,244.500,42.650,11.360,1148.000,209.100,37.430,10.010,193.000,43.600,9.971,2.824,350.800,74.440,15.650,4.654,baseline
1353.000,242.500,41.070,11.330,1146.000,208.100,38.170,9.998,192.500,43.400,10.060,2.829,351.100,74.210,15.740,4.616,baseline
1351.000,241.600,43.230,11.220,1142.000,208.500,37.390,10.020,194.000,43.350,10.100,2.843,351.700,74.600,15.680,4.661,baseline
1350.000,241.600,41.360,11.400,1137.000,208.000,37.790,10.030,193.000,43.750,10.000,2.871,354.400,74.850,15.760,4.698,baseline
1351.000,245.100,42.410,11.410,1145.000,207.900,38.820,10.070,194.400,43.580,10.080,2.835,354.000,75.420,15.830,4.663,baseline
1355.000,244.000,42.380,11.480,1145.000,209.300,38.110,10.090,195.100,44.180,10.060,2.875,355.000,75.130,15.850,4.667,baseline
1356.000,245.500,42.950,11.390,1146.000,207.900,38.320,10.010,191.600,43.840,10.080,2.841,352.100,74.620,15.720,4.655,baseline
1352.000,243.900,41.440,11.320,1145.000,207.600,37.680,9.988,192.100,43.640,10.110,2.834,350.100,74.370,15.580,4.623,baseline
1348.000,242.800,39.790,11.280,1149.000,207.500,37.920,9.997,190.900,43.510,9.994,2.832,349.700,73.830,15.570,4.605,baseline
1348.000,242.200,42.080,11.340,1144.000,206.600,37.470,10.040,191.700,43.720,10.070,2.841,349.600,74.290,15.480,4.563,baseline
1346.000,242.800,41.800,11.260,1140.000,207.300,37.560,10.010,191.300,43.530,10.040,2.850,349.800,74.020,15.690,4.613,baseline
1346.000,242.700,42.890,11.290,1138.000,205.800,37.770,10.020,194.700,43.810,10.090,2.839,350.200,74.410,15.710,4.631,baseline
1347.000,242.800,42.220,11.360,1137.000,206.200,37.220,10.020,190.600,43.760,10.080,2.869,349.100,74.760,15.840,4.615,baseline
1351.000,242.400,42.140,11.490,1137.000,207.200,38.000,10.050,193.000,43.730,10.050,2.844,352.300,74.950,15.790,4.672,baseline
1352.000,242.800,40.950,11.440,1141.000,207.500,37.640,9.976,190.100,43.640,10.070,2.843,351.400,74.830,15.690,4.595,baseline
1345.000,243.300,42.220,11.180,1136.000,206.700,37.300,9.966,188.000,43.330,9.995,2.838,349.700,73.970,15.570,4.542,baseline
1341.000,239.800,41.400,11.160,1143.000,205.600,38.040,9.892,193.900,43.640,10.110,2.835,347.300,73.500,15.550,4.577,baseline
1339.000,239.600,40.940,11.180,1137.000,205.200,37.780,9.872,193.200,43.640,10.030,2.834,348.900,73.660,15.560,4.552,baseline
1340.000,239.100,40.850,11.220,1139.000,205.700,36.870,9.830,193.200,43.370,10.030,2.829,348.100,73.730,15.560,4.542,baseline
1339.000,240.300,41.520,11.170,1142.000,205.700,37.780,9.889,191.900,43.400,9.998,2.851,348.500,74.280,15.670,4.573,baseline
1338.000,241.100,40.250,11.230,1135.000,205.500,36.900,9.944,195.000,43.380,9.997,2.831,349.400,74.410,15.640,4.611,baseline
1340.000,241.300,41.760,11.180,1135.000,205.100,37.130,9.958,192.200,43.550,9.982,2.837,348.700,73.840,15.760,4.598,baseline
1342.000,239.900,41.790,11.290,1132.000,205.100,37.660,9.910,197.700,43.760,10.030,2.829,351.300,74.450,15.620,4.620,baseline
1329.000,237.900,41.680,11.050,1121.000,201.000,35.980,9.602,194.300,43.390,10.000,2.838,346.400,73.970,15.410,4.482,baseline
1301.000,231.800,40.730,10.820,1095.000,196.000,35.380,9.393,195.700,43.110,9.970,2.775,343.700,73.130,15.360,4.501,baseline
1279.000,227.800,40.010,10.690,1080.000,194.000,35.640,9.396,189.700,43.060,9.878,2.778,344.100,72.990,15.180,4.464,baseline
1267.000,227.100,39.480,10.590,1072.000,193.700,35.350,9.289,185.700,42.860,9.895,2.762,341.500,72.680,15.140,4.443,baseline
1267.000,226.000,38.590,10.580,1077.000,194.200,35.130,9.261,194.500,42.580,9.795,2.756,339.800,72.290,15.210,4.461,baseline
1266.000,226.600,39.000,10.510,1067.000,193.100,35.350,9.222,193.800,42.500,9.858,2.762,342.700,72.650,15.300,4.457,baseline
1264.000,228.400,38.730,10.630,1063.000,193.500,35.180,9.218,192.300,42.870,9.860,2.778,344.200,73.190,15.430,4.470,baseline
1268.000,228.000,38.640,10.570,1083.000,195.500,35.830,9.455,194.900,43.050,9.904,2.786,346.200,73.380,15.510,4.531,baseline
1288.000,231.000,39.740,10.900,1095.000,198.800,36.560,9.548,193.900,43.230,9.905,2.788,345.800,74.110,15.600,4.585,baseline
1310.000,235.500,39.840,10.960,1107.000,200.200,37.350,9.466,191.900,43.100,9.993,2.784,346.400,73.550,15.490,4.500,baseline
1305.000,233.600,41.230,10.900,1099.000,199.800,36.340,9.463,193.500,42.780,9.862,2.810,345.200,73.520,15.370,4.500,baseline
1305.000,232.800,42.360,10.890,1108.000,200.300,36.490,9.469,194.400,42.870,9.893,2.783,346.200,73.440,15.460,4.505,baseline
1305.000,235.600,41.550,10.890,1108.000,199.900,37.120,9.518,195.000,43.160,9.884,2.809,347.800,73.780,15.550,4.515,baseline
1306.000,235.600,41.640,10.900,1110.000,201.200,37.020,9.506,195.700,42.960,9.922,2.835,348.500,73.620,15.590,4.541,baseline
1311.000,235.900,41.180,10.890,1113.000,200.600,37.490,9.535,190.500,43.150,9.900,2.796,347.600,73.950,15.770,4.553,baseline
1317.000,235.500,40.650,10.920,1114.000,201.700,36.690,9.575,190.200,43.120,10.010,2.797,349.700,74.560,15.800,4.573,baseline
1324.000,239.300,41.440,11.120,1120.000,202.800,37.470,9.689,192.100,43.300,10.040,2.808,352.700,75.140,15.780,4.629,baseline
1326.000,236.800,40.140,11.140,1115.000,202.300,36.820,9.581,193.200,43.360,10.010,2.810,352.000,75.200,15.790,4.592,baseline
1321.000,235.500,40.190,11.010,1112.000,200.300,37.160,9.498,198.000,43.450,9.876,2.817,352.100,74.740,15.650,4.550,baseline
1323.000,238.400,41.650,11.030,1113.000,200.600,37.170,9.540,195.000,43.500,9.927,2.805,350.900,75.190,15.580,4.590,baseline
1327.000,238.900,40.950,11.060,1121.000,200.900,37.140,9.580,188.800,43.510,9.946,2.801,352.600,75.440,15.810,4.579,baseline
1330.000,237.800,41.290,11.030,1124.000,201.700,37.920,9.523,193.400,43.430,9.938,2.820,354.000,75.130,15.780,4.598,baseline
1332.000,240.200,41.730,11.170,1118.000,203.400,37.360,9.608,198.600,43.450,9.967,2.821,356.700,75.750,15.910,4.628,baseline
1339.000,240.400,41.830,11.170,1123.000,203.200,37.080,9.592,198.700,43.600,10.020,2.826,357.900,76.380,16.130,4.649,baseline
1346.000,241.800,42.980,11.340,1130.000,203.000,37.310,9.642,199.700,43.680,10.050,2.834,360.200,77.160,16.160,4.671,baseline
1351.000,241.900,41.620,11.250,1124.000,203.900,37.410,9.581,198.800,43.980,9.998,2.836,360.100,76.850,16.240,4.694,baseline
1348.000,241.000,42.150,11.150,1133.000,204.300,37.440,9.608,199.200,44.120,10.160,2.828,358.100,76.340,16.080,4.683,baseline
1350.000,242.000,42.080,11.200,1131.000,204.100,37.770,9.549,197.600,43.740,10.080,2.828,359.500,76.190,16.220,4.662,baseline
1354.000,241.000,41.550,11.180,1138.000,204.300,37.400,9.556,194.700,43.620,10.060,2.835,359.200,76.470,16.160,4.711,baseline
1356.000,243.500,41.920,11.200,1138.000,203.800,37.680,9.622,198.200,43.620,10.080,2.827,361.400,76.710,16.240,4.703,baseline
1357.000,243.600,42.810,11.200,1133.000,204.500,37.140,9.516,195.800,43.770,10.060,2.823,360.100,77.230,16.170,4.742,baseline
1356.000,244.100,42.650,11.350,1138.000,204.000,38.090,9.564,199.600,43.990,10.120,2.847,361.700,77.180,16.210,4.754,baseline
1358.000,243.200,43.240,11.350,1131.000,204.300,38.710,9.500,202.000,44.310,10.080,2.848,360.300,76.910,16.100,4.698,baseline
1350.000,241.700,43.120,11.130,1124.000,203.700,36.640,9.549,196.700,43.760,10.060,2.831,358.400,76.550,15.990,4.638,baseline
1346.000,242.400,40.700,11.150,1124.000,202.300,37.820,9.496,195.000,43.850,10.010,2.803,358.500,76.130,15.890,4.640,baseline
1344.000,241.200,42.830,11.110,1120.000,202.500,37.300,9.449,194.800,43.800,10.050,2.792,358.500,76.150,15.990,4.671,baseline
1342.000,241.600,43.810,11.160,1127.000,202.900,36.980,9.508,198.400,43.410,9.927,2.815,357.300,76.250,16.000,4.662,baseline
1345.000,239.800,41.010,11.180,1120.000,202.800,37.660,9.479,197.500,43.420,10.020,2.830,357.300,76.430,15.960,4.693,baseline
1344.000,242.500,40.590,11.250,1128.000,202.400,37.440,9.574,196.900,43.740,10.040,2.803,357.300,76.400,16.090,4.731,baseline
1345.000,243.400,40.390,11.250,1132.000,202.400,37.370,9.608,195.000,43.810,10.060,2.825,358.900,76.860,16.080,4.754,baseline
1348.000,244.700,42.960,11.400,1125.000,203.300,37.630,9.496,195.300,43.800,10.060,2.805,359.400,76.790,16.120,4.739,baseline
1345.000,242.000,41.530,11.220,1121.000,202.700,37.920,9.521,191.500,43.470,9.964,2.794,355.200,75.850,15.820,4.662,baseline
1340.000,241.300,41.470,11.120,1123.000,202.300,37.110,9.488,190.400,43.440,9.973,2.766,354.900,75.410,15.820,4.609,baseline
1336.000,240.000,42.130,11.130,1121.000,202.400,37.170,9.475,192.100,43.500,9.940,2.779,352.800,75.300,15.810,4.595,baseline
1334.000,241.300,40.210,11.050,1116.000,202.900,36.680,9.508,193.600,43.140,9.909,2.763,353.900,75.480,15.760,4.608,baseline
1334.000,240.300,41.280,11.120,1115.000,202.700,37.030,9.566,189.300,43.380,9.923,2.777,354.900,75.030,15.770,4.604,baseline
1336.000,241.000,41.940,11.230,1126.000,202.900,36.900,9.527,195.400,43.320,9.948,2.774,354.500,75.000,15.800,4.613,baseline
1339.000,240.800,41.500,11.240,1120.000,202.200,37.140,9.485,193.100,43.340,9.840,2.782,353.800,75.390,15.890,4.681,baseline
1342.000,239.100,40.700,11.280,1123.000,202.800,37.190,9.558,193.600,43.390,9.932,2.749,355.000,76.110,15.910,4.692,baseline
1347.000,240.900,41.680,11.210,1131.000,203.500,37.690,9.462,191.500,43.110,9.833,2.803,356.100,76.370,16.110,4.706,baseline
1346.000,242.900,41.260,11.150,1126.000,203.000,36.820,9.441,192.200,43.750,9.983,2.792,354.200,75.580,15.960,4.625,baseline
1338.000,241.800,40.880,11.010,1120.000,201.900,36.850,9.478,192.100,43.190,9.870,2.785,351.900,75.200,15.710,4.613,baseline
1337.000,239.900,40.840,10.970,1118.000,202.900,36.460,9.444,194.400,43.200,9.901,2.768,352.000,74.410,15.730,4.589,baseline
1334.000,239.200,40.690,11.020,1121.000,201.500,36.860,9.486,194.400,43.120,9.872,2.767,351.900,74.800,15.860,4.621,baseline
1335.000,239.600,42.230,11.030,1124.000,202.000,36.650,9.497,191.400,43.380,9.849,2.754,351.300,74.930,15.750,4.611,baseline
1336.000,239.100,41.480,11.030,1121.000,202.500,35.750,9.500,191.600,42.960,9.942,2.779,354.300,74.760,15.780,4.661,baseline
1338.000,240.700,41.800,11.140,1125.000,202.700,36.720,9.485,189.900,43.220,9.889,2.774,353.000,75.260,15.990,4.601,baseline
1342.000,242.500,42.240,11.230,1122.000,202.800,36.910,9.517,193.700,43.210,9.911,2.791,354.600,75.700,15.970,4.718,baseline
1346.000,242.500,42.830,11.320,1121.000,203.000,36.780,9.480,193.700,43.030,9.938,2.799,355.400,75.840,16.040,4.717,baseline
1350.000,242.300,41.290,11.390,1124.000,203.600,36.860,9.528,193.300,43.450,9.989,2.807,358.300,76.580,16.130,4.759,baseline
1352.000,243.600,40.890,11.220,1129.000,203.800,37.620,9.487,190.500,43.400,9.980,2.792,355.900,75.810,15.900,4.674,baseline
1345.000,241.000,41.590,11.260,1125.000,203.000,37.280,9.444,195.600,42.980,9.884,2.773,354.300,75.550,15.910,4.670,baseline
1345.000,244.300,41.590,11.240,1125.000,203.200,36.760,9.458,193.400,43.290,9.875,2.782,355.000,75.910,15.930,4.673,baseline
1348.000,243.100,41.340,11.150,1131.000,203.600,37.510,9.523,195.400,43.100,9.889,2.744,356.500,75.850,15.960,4.684,baseline
1351.000,242.800,40.470,11.230,1134.000,203.400,36.620,9.541,193.900,43.470,9.950,2.766,357.400,76.140,16.140,4.661,baseline
1352.000,243.400,41.260,11.370,1132.000,204.600,37.420,9.545,194.000,43.450,9.949,2.787,356.400,76.640,16.120,4.715,baseline
1358.000,244.600,42.900,11.390,1132.000,203.500,37.420,9.567,196.100,43.400,9.942,2.770,358.900,76.730,16.230,4.760,baseline
1361.000,243.500,43.780,11.450,1137.000,204.600,38.150,9.626,196.400,43.120,9.899,2.811,361.000,77.310,16.370,4.796,baseline
1366.000,245.900,43.730,11.570,1133.000,205.000,36.760,9.585,197.000,43.770,9.970,2.803,362.000,77.830,16.520,4.844,baseline
1372.000,246.800,44.380,11.560,1144.000,204.900,37.960,9.543,196.500,43.590,9.999,2.824,363.000,77.860,16.460,4.811,baseline
1370.000,245.900,43.800,11.360,1137.000,206.000,38.710,9.638,195.300,43.600,9.980,2.811,360.700,77.190,16.340,4.787,baseline
1371.000,245.700,44.070,11.540,1135.000,205.200,38.790,9.557,196.900,43.360,9.952,2.800,361.200,77.290,16.410,4.762,baseline
1373.000,247.500,42.730,11.480,1142.000,206.800,38.990,9.682,194.700,43.410,10.040,2.796,362.100,77.760,16.380,4.782,baseline
1378.000,248.500,41.510,11.560,1140.000,206.400,39.110,9.692,192.100,43.990,10.040,2.785,363.100,77.760,16.370,4.834,baseline
1383.000,247.400,43.080,11.590,1144.000,206.600,39.400,9.719,191.500,43.760,10.000,2.799,362.900,77.660,16.630,4.819,baseline
1388.000,251.000,43.250,11.780,1150.000,207.400,39.210,9.789,192.600,43.670,10.010,2.835,365.300,78.090,16.560,4.885,baseline
1393.000,252.800,43.740,11.750,1156.000,208.000,38.720,9.826,192.800,43.950,10.020,2.828,367.200,79.250,16.760,4.904,baseline
1400.000,252.600,44.920,11.860,1155.000,207.500,38.830,9.854,193.200,43.860,10.080,2.837,368.500,79.630,16.720,4.937,baseline
1404.000,255.000,44.810,11.970,1163.000,208.900,38.750,9.843,192.400,44.080,10.070,2.827,368.600,79.690,16.840,4.952,baseline
1407.000,253.200,44.400,11.910,1149.000,208.400,39.320,9.785,189.800,43.700,10.100,2.827,367.500,78.810,16.750,4.884,baseline
1404.000,251.800,44.840,11.680,1151.000,209.000,38.610,9.829,191.400,43.980,10.030,2.821,366.500,79.050,16.700,4.874,baseline
1408.000,253.900,45.970,11.750,1154.000,209.700,38.880,9.833,191.500,43.760,10.080,2.810,367.200,79.600,16.760,4.931,baseline
1409.000,251.200,43.650,11.810,1158.000,210.100,39.570,9.800,195.100,44.610,10.100,2.856,368.500,79.260,16.790,4.922,baseline
1412.000,254.000,44.130,11.910,1157.000,210.100,39.330,9.836,193.400,44.410,10.180,2.848,368.900,79.530,16.820,4.987,baseline
1414.000,255.700,45.800,11.990,1160.000,209.900,39.870,9.876,197.600,44.060,10.060,2.839,369.400,79.670,16.840,4.952,baseline
1417.000,255.100,45.310,11.980,1156.000,210.300,39.580,10.020,196.200,44.260,10.170,2.844,369.500,79.930,17.060,5.007,baseline
1421.000,255.600,45.000,12.030,1160.000,210.300,39.180,9.992,192.500,44.400,10.190,2.854,372.400,80.620,17.230,5.035,baseline
1424.000,257.900,45.250,12.180,1166.000,210.700,38.830,9.914,196.000,44.160,10.160,2.855,371.000,80.300,17.050,5.043,baseline
1421.000,253.500,44.540,12.030,1164.000,211.100,38.390,9.929,194.800,43.940,10.130,2.840,370.800,79.760,16.870,4.948,baseline
1420.000,258.300,46.350,11.910,1167.000,211.500,38.430,9.922,195.400,43.800,10.160,2.848,369.300,79.780,16.920,4.952,baseline
1420.000,254.600,44.540,11.950,1164.000,211.800,38.690,10.020,192.900,44.200,10.070,2.866,370.100,79.860,16.980,5.005,baseline
1422.000,256.400,45.460,12.060,1167.000,211.200,38.280,9.924,195.000,44.200,10.180,2.864,371.600,79.750,16.920,5.007,baseline
1421.000,255.700,45.730,12.000,1160.000,210.500,38.570,9.979,193.500,44.040,10.160,2.853,372.500,79.910,17.000,5.014,baseline
1425.000,255.600,45.090,12.070,1162.000,211.600,38.730,9.963,195.000,44.220,10.150,2.871,372.900,80.310,17.100,5.050,baseline
1427.000,257.300,45.100,12.130,1170.000,212.500,38.980,9.992,192.200,44.380,10.190,2.868,372.100,80.850,17.110,5.070,baseline
1429.000,255.800,45.590,12.140,1170.000,211.500,39.670,9.979,197.900,44.490,10.140,2.867,374.000,80.440,17.040,5.056,baseline
1427.000,258.300,43.890,12.060,1166.000,210.400,39.490,9.933,195.200,44.100,10.130,2.856,370.000,80.000,17.060,4.994,baseline
1422.000,256.000,44.000,11.880,1165.000,211.600,38.900,9.890,195.900,44.010,10.150,2.825,371.400,80.100,16.950,5.018,baseline
1422.000,256.900,45.640,11.990,1166.000,211.200,38.400,9.972,197.300,44.060,10.150,2.870,370.500,79.790,16.970,4.983,baseline
1422.000,255.700,44.410,11.890,1165.000,211.200,38.830,9.925,195.200,44.370,10.140,2.849,369.500,79.750,17.000,5.027,baseline
1420.000,256.900,44.770,11.960,1161.000,211.500,37.500,9.938,198.600,44.490,10.120,2.851,369.800,79.930,17.000,5.009,baseline
1418.000,254.500,44.560,11.890,1165.000,210.400,38.130,9.949,195.500,43.860,10.120,2.876,370.500,79.890,16.980,5.037,baseline
1419.000,254.400,45.490,11.950,1163.000,210.800,37.460,9.872,196.400,44.430,10.120,2.870,371.100,79.980,17.080,5.047,baseline
1421.000,257.000,44.350,12.010,1163.000,210.800,39.090,9.932,197.000,44.180,10.210,2.867,370.500,80.290,17.080,5.041,baseline
1415.000,254.500,43.930,11.800,1156.000,210.000,38.690,9.825,196.300,44.400,10.180,2.851,368.500,79.450,16.920,4.967,baseline
1409.000,253.900,43.540,11.710,1155.000,209.000,37.840,9.842,199.100,44.290,10.120,2.852,367.900,79.310,16.820,4.967,baseline
1410.000,253.100,41.420,11.730,1159.000,208.600,38.040,9.829,197.300,43.830,10.070,2.843,366.900,78.920,16.790,4.960,baseline
1409.000,252.700,44.470,11.780,1163.000,210.300,37.870,9.869,200.900,43.680,10.150,2.837,367.100,79.050,16.750,4.968,baseline
1409.000,252.600,44.260,11.740,1158.000,209.600,38.950,9.900,199.400,43.960,10.130,2.822,367.400,78.870,16.700,4.954,baseline
1410.000,254.500,43.720,11.790,1158.000,209.800,39.510,9.904,195.200,43.910,9.999,2.826,367.500,78.790,16.760,4.998,baseline
1409.000,254.300,44.890,11.790,1152.000,209.400,38.440,9.780,194.200,44.060,10.050,2.820,366.400,79.100,16.940,4.947,baseline
1413.000,253.200,44.670,11.760,1157.000,208.600,39.090,9.865,195.000,43.740,10.080,2.822,366.000,78.770,16.740,4.958,baseline
1405.000,252.000,44.870,11.710,1159.000,208.700,38.210,9.914,193.700,43.670,10.000,2.806,363.500,78.140,16.580,4.895,baseline
1402.000,252.400,44.350,11.610,1151.000,208.200,38.630,9.829,194.200,43.330,9.967,2.798,363.400,78.230,16.550,4.914,baseline
1398.000,248.600,44.010,11.660,1152.000,208.700,38.620,9.788,197.000,43.540,9.990,2.800,362.700,78.190,16.530,4.904,baseline
1397.000,250.200,43.030,11.620,1149.000,208.000,38.650,9.788,192.000,43.230,10.020,2.794,361.900,78.100,16.550,4.886,baseline
1395.000,249.300,42.820,11.640,1152.000,208.100,39.200,9.823,195.800,43.250,9.968,2.821,362.000,78.040,16.580,4.928,baseline
1397.000,250.000,42.000,11.660,1148.000,208.300,39.380,9.732,195.800,43.170,9.979,2.773,362.100,78.230,16.640,4.894,baseline
1399.000,251.100,43.080,11.700,1157.000,208.600,38.520,9.817,196.000,43.400,9.988,2.808,364.000,78.250,16.520,4.899,baseline
1396.000,250.700,43.540,11.660,1149.000,209.000,38.790,9.803,197.700,43.310,9.941,2.748,360.800,77.270,16.430,4.831,baseline
1387.000,248.800,43.020,11.540,1146.000,208.000,38.840,9.760,193.000,42.920,9.854,2.744,359.900,76.700,16.320,4.796,baseline
1387.000,248.400,42.360,11.520,1147.000,208.200,38.470,9.742,191.900,43.200,9.911,2.761,359.200,76.650,16.330,4.792,baseline
1383.000,250.400,43.070,11.540,1151.000,208.000,37.920,9.780,188.900,43.040,9.900,2.754,357.800,76.640,16.270,4.836,baseline
1382.000,247.700,43.870,11.490,1145.000,207.400,38.410,9.796,191.200,42.880,9.809,2.771,357.700,76.630,16.330,4.842,baseline
1382.000,249.100,43.750,11.610,1153.000,207.600,37.770,9.757,192.800,43.060,9.823,2.742,356.700,76.880,16.360,4.806,baseline
1381.000,248.000,44.200,11.590,1143.000,206.800,37.610,9.796,190.000,42.980,9.832,2.747,358.200,76.990,16.410,4.789,baseline
1381.000,248.200,42.440,11.530,1142.000,206.700,37.630,9.715,191.600,43.010,9.775,2.703,356.300,76.090,16.200,4.781,baseline
1370.000,246.800,43.120,11.430,1137.000,205.900,37.560,9.709,189.500,42.590,9.758,2.717,352.300,75.520,16.040,4.711,baseline
1365.000,243.600,42.690,11.460,1137.000,206.700,38.040,9.694,190.700,42.260,9.761,2.727,352.300,75.700,16.020,4.764,baseline
1361.000,245.300,41.730,11.430,1136.000,205.600,37.770,9.705,191.300,42.490,9.794,2.690,351.500,75.650,16.070,4.710,baseline
1358.000,243.900,41.900,11.480,1143.000,205.400,38.060,9.642,191.500,42.600,9.642,2.692,350.700,75.580,16.200,4.740,baseline
1358.000,244.800,41.850,11.510,1134.000,205.000,37.540,9.696,189.100,42.700,9.677,2.691,351.800,76.100,16.110,4.730,baseline
1358.000,243.100,40.140,11.510,1142.000,205.700,38.000,9.733,185.500,42.610,9.703,2.686,354.300,76.080,16.230,4.771,baseline
1358.000,246.300,42.690,11.450,1130.000,204.800,37.470,9.673,190.500,42.340,9.714,2.700,353.200,75.460,15.950,4.723,baseline
1348.000,239.800,42.680,11.340,1137.000,204.400,37.190,9.641,189.500,42.030,9.645,2.691,351.200,75.420,15.940,4.642,baseline
1341.000,240.700,42.530,11.330,1132.000,204.200,38.080,9.581,185.100,42.300,9.586,2.651,348.500,75.130,15.860,4.640,baseline
1337.000,241.300,42.550,11.290,1138.000,203.500,37.630,9.598,187.300,42.090,9.591,2.667,347.300,74.830,15.870,4.660,baseline
1334.000,239.300,42.460,11.310,1130.000,204.600,36.840,9.588,188.200,42.220,9.583,2.658,347.800,74.700,15.830,4.651,baseline
1332.000,239.900,42.760,11.370,1128.000,203.800,37.130,9.605,185.800,42.210,9.536,2.665,348.000,74.850,15.860,4.660,baseline
1333.000,239.400,41.150,11.420,1126.000,204.400,37.700,9.671,186.600,42.250,9.609,2.664,349.400,75.350,15.970,4.664,baseline
1336.000,242.000,41.940,11.310,1125.000,204.500,37.580,9.632,188.100,42.290,9.618,2.682,350.900,75.810,16.140,4.723,baseline
1337.000,242.900,41.820,11.510,1128.000,204.200,37.300,9.556,187.700,42.060,9.656,2.684,351.600,75.810,16.120,4.659,baseline
1333.000,240.100,40.330,11.320,1129.000,203.700,37.230,9.616,188.100,42.080,9.622,2.655,349.200,74.910,15.910,4.656,baseline
1327.000,240.500,40.000,11.330,1126.000,204.000,36.600,9.592,187.000,42.190,9.538,2.658,347.900,74.930,15.780,4.629,baseline
1324.000,240.200,42.340,11.320,1126.000,202.800,37.120,9.534,183.900,42.030,9.605,2.667,346.800,74.950,15.800,4.614,baseline
1325.000,239.500,41.010,11.290,1126.000,203.600,36.830,9.564,185.400,41.740,9.533,2.661,347.700,74.530,15.740,4.651,baseline
1323.000,239.900,40.380,11.230,1129.000,203.700,37.180,9.591,186.700,41.960,9.589,2.679,348.400,75.010,15.950,4.619,baseline
1326.000,240.400,42.360,11.360,1130.000,203.100,36.720,9.562,189.300,42.040,9.628,2.650,348.800,75.360,15.970,4.684,baseline
1330.000,240.300,41.980,11.510,1132.000,204.300,37.490,9.566,187.500,42.250,9.678,2.688,350.200,75.650,15.950,4.691,baseline
1335.000,242.300,43.080,11.460,1128.000,204.500,37.090,9.649,189.100,42.420,9.649,2.674,351.200,75.920,16.080,4.719,baseline
1338.000,241.900,42.440,11.510,1140.000,204.500,37.330,9.647,190.400,42.390,9.678,2.700,352.000,76.270,16.280,4.762,baseline
1343.000,244.000,41.270,11.570,1133.000,204.800,37.800,9.624,187.200,42.650,9.692,2.702,355.200,76.300,16.220,4.740,baseline
1340.000,241.700,40.940,11.320,1133.000,203.900,37.970,9.620,190.600,42.210,9.661,2.686,352.800,75.980,16.070,4.695,baseline
1341.000,242.700,42.890,11.310,1137.000,204.200,37.430,9.624,193.000,42.050,9.708,2.675,352.300,75.960,16.040,4.708,baseline
1342.000,242.100,41.540,11.410,1136.000,204.800,38.120,9.640,190.400,42.660,9.638,2.684,350.900,76.080,16.130,4.705,baseline
1342.000,242.400,42.290,11.550,1141.000,204.700,38.000,9.658,191.200,42.170,9.631,2.675,352.400,76.270,16.060,4.741,baseline
1345.000,244.300,43.520,11.510,1136.000,204.300,38.440,9.618,189.500,42.910,9.712,2.662,353.500,76.040,16.180,4.728,baseline
1348.000,245.600,43.890,11.630,1137.000,206.100,37.940,9.652,190.800,42.110,9.664,2.707,356.000,76.400,16.200,4.740,baseline
1353.000,242.600,43.890,11.570,1136.000,206.400,38.910,9.638,189.700,42.710,9.740,2.681,354.500,76.730,16.260,4.775,baseline
1358.000,244.700,44.290,11.680,1141.000,207.600,38.320,9.677,188.700,42.550,9.748,2.729,355.600,77.240,16.370,4.795,baseline
1363.000,246.800,43.050,11.770,1139.000,207.400,39.140,9.689,194.700,42.720,9.757,2.720,357.200,77.490,16.500,4.838,baseline
1367.000,246.600,42.600,11.790,1146.000,207.200,38.430,9.704,195.300,42.760,9.801,2.724,359.400,77.570,16.510,4.837,baseline
1369.000,247.100,43.510,11.640,1145.000,206.900,38.310,9.642,192.400,42.690,9.709,2.694,357.200,76.610,16.270,4.795,baseline
1367.000,246.800,43.520,11.730,1144.000,207.200,38.850,9.626,192.700,42.880,9.724,2.715,356.300,76.610,16.270,4.756,baseline
1368.000,248.200,42.620,11.720,1148.000,206.900,39.040,9.688,195.100,42.380,9.753,2.693,357.000,76.920,16.280,4.759,baseline
1370.000,250.200,43.600,11.760,1151.000,207.900,39.250,9.675,194.800,42.560,9.744,2.717,356.500,77.160,16.250,4.779,baseline
1373.000,247.800,41.870,11.740,1145.000,206.900,37.610,9.658,192.400,42.500,9.734,2.712,357.000,77.010,16.380,4.778,baseline
1376.000,248.700,43.930,11.690,1153.000,206.100,38.360,9.698,191.600,42.780,9.751,2.708,357.300,77.260,16.340,4.801,baseline
1380.000,249.600,44.170,11.790,1147.000,207.700,38.320,9.692,189.400,43.020,9.751,2.714,358.000,77.530,16.410,4.818,baseline
1383.000,249.200,44.180,11.770,1152.000,208.100,37.930,9.710,188.900,42.830,9.804,2.715,360.800,77.600,16.450,4.886,baseline
1387.000,252.600,43.360,11.910,1155.000,208.000,38.100,9.714,194.300,42.670,9.772,2.728,359.700,78.010,16.520,4.883,baseline
1392.000,253.200,44.660,11.880,1146.000,208.600,38.370,9.787,191.200,43.100,9.787,2.724,361.300,78.140,16.540,4.897,baseline
1394.000,253.200,44.540,11.760,1156.000,207.300,39.730,9.735,191.200,42.990,9.771,2.744,360.500,77.710,16.500,4.872,baseline
1390.000,251.700,44.490,11.800,1149.000,209.000,38.200,9.629,192.400,43.010,9.793,2.702,359.100,77.270,16.390,4.839,baseline
1392.000,250.600,43.860,11.710,1148.000,207.500,37.780,9.712,193.900,43.060,9.784,2.695,358.000,77.120,16.320,4.804,baseline
1392.000,251.300,43.250,11.810,1157.000,208.000,37.890,9.707,194.600,42.750,9.701,2.699,359.400,76.920,16.460,4.815,baseline
1393.000,251.600,43.760,11.790,1159.000,209.400,37.620,9.708,193.000,42.820,9.710,2.709,358.100,76.870,16.410,4.846,baseline
1396.000,250.900,45.730,11.810,1156.000,208.700,37.980,9.774,192.100,42.920,9.819,2.722,359.600,77.470,16.440,4.843,baseline
1399.000,252.600,43.700,11.820,1158.000,208.200,37.860,9.794,191.500,43.090,9.820,2.711,360.400,77.090,16.530,4.897,baseline
1400.000,251.600,44.610,11.830,1159.000,209.200,38.100,9.773,191.300,42.930,9.812,2.716,360.500,77.360,16.460,4.870,baseline
1401.000,253.000,44.780,11.820,1155.000,209.500,37.380,9.809,189.100,43.070,9.763,2.736,362.100,77.890,16.590,4.876,baseline
1405.000,254.300,43.580,11.890,1162.000,209.800,37.250,9.817,192.300,43.230,9.890,2.747,361.500,78.280,16.650,4.942,baseline
1405.000,253.200,44.250,11.780,1161.000,208.800,37.270,9.638,190.400,42.870,9.813,2.716,359.800,77.700,16.430,4.849,baseline
1399.000,249.900,45.620,11.750,1153.000,208.200,38.290,9.701,185.300,43.170,9.733,2.709,358.600,76.860,16.410,4.815,baseline
1398.000,249.900,42.600,11.730,1159.000,207.700,37.650,9.761,193.100,43.240,9.701,2.707,358.500,77.050,16.280,4.806,baseline
1398.000,251.300,43.880,11.680,1153.000,208.600,38.060,9.760,188.300,42.980,9.708,2.723,357.200,76.870,16.320,4.824,baseline
1398.000,250.800,43.010,11.820,1161.000,208.300,38.710,9.769,192.500,43.030,9.774,2.719,356.500,76.760,16.380,4.835,baseline
1399.000,250.400,42.930,11.780,1157.000,208.900,38.010,9.714,188.600,43.140,9.803,2.687,358.800,76.490,16.390,4.853,baseline
1402.000,252.100,42.370,11.760,1161.000,208.700,38.610,9.782,190.700,43.010,9.733,2.723,358.800,76.910,16.280,4.861,baseline
1402.000,250.600,44.910,11.820,1166.000,208.200,37.560,9.768,192.200,42.560,9.784,2.703,359.200,77.450,16.480,4.868,baseline
1406.000,253.000,45.000,11.980,1165.000,209.100,38.160,9.845,190.300,43.410,9.715,2.719,359.700,77.520,16.460,4.916,baseline
1407.000,254.000,44.550,11.850,1164.000,208.500,37.990,9.789,193.800,42.880,9.759,2.721,359.500,77.470,16.250,4.883,baseline
1405.000,251.900,43.610,11.680,1163.000,208.600,38.810,9.795,195.500,42.590,9.749,2.686,357.000,76.950,16.270,4.846,baseline
1400.000,252.200,44.880,11.700,1159.000,209.700,38.550,9.768,194.900,42.530,9.662,2.697,356.100,76.450,16.240,4.798,baseline
1399.000,249.800,44.080,11.750,1163.000,209.400,38.980,9.773,193.400,42.930,9.718,2.679,355.900,76.590,16.160,4.788,baseline
1397.000,252.700,44.800,11.720,1161.000,208.800,38.230,9.737,193.100,42.690,9.662,2.680,354.300,76.610,16.220,4.785,baseline
1396.000,250.700,44.580,11.720,1156.000,208.000,38.870,9.746,194.300,42.640,9.714,2.695,355.700,76.290,16.170,4.785,baseline
1397.000,251.500,44.710,11.780,1153.000,207.400,38.570,9.705,192.200,42.690,9.635,2.678,356.000,76.570,16.180,4.790,baseline
1399.000,251.600,44.510,11.740,1157.000,209.600,39.690,9.817,191.700,42.430,9.635,2.703,356.700,76.990,16.200,4.805,baseline
1400.000,251.800,43.000,11.820,1162.000,209.200,38.570,9.760,192.200,42.650,9.659,2.695,356.800,77.020,16.320,4.897,baseline
1401.000,253.100,43.110,11.960,1160.000,208.900,39.220,9.793,192.000,42.760,9.652,2.706,358.600,77.330,16.300,4.815,baseline
1399.000,251.500,43.460,11.700,1157.000,208.500,39.050,9.726,189.900,42.790,9.657,2.692,356.600,76.180,16.090,4.719,baseline
1390.000,249.100,43.860,11.700,1150.000,208.500,38.720,9.762,192.600,42.290,9.559,2.683,354.100,75.930,16.100,4.719,baseline
1386.000,249.100,43.940,11.800,1156.000,207.700,38.920,9.737,191.300,42.470,9.594,2.666,353.300,75.930,16.130,4.747,baseline
1384.000,248.000,44.240,11.690,1156.000,208.600,38.080,9.629,193.300,42.280,9.573,2.685,353.300,76.210,15.980,4.710,baseline
1382.000,247.400,44.200,11.630,1151.000,207.200,38.900,9.671,192.900,42.530,9.620,2.661,353.200,76.310,15.950,4.720,baseline
1384.000,248.200,43.580,11.720,1148.000,207.300,38.780,9.739,192.500,42.360,9.560,2.679,354.400,76.130,16.080,4.795,baseline
1385.000,247.900,43.960,11.750,1154.000,208.500,38.910,9.766,191.900,42.700,9.635,2.677,355.700,76.580,16.230,4.749,baseline
1387.000,248.200,43.180,11.870,1148.000,209.000,38.890,9.793,190.100,42.690,9.659,2.693,355.500,76.590,16.330,4.851,baseline
1388.000,250.800,43.670,11.910,1157.000,207.400,38.730,9.731,190.700,42.650,9.733,2.678,358.400,76.860,16.260,4.792,baseline
1385.000,248.300,43.470,11.710,1148.000,207.100,38.650,9.720,190.400,42.720,9.627,2.678,353.800,76.030,16.060,4.731,baseline
1375.000,245.900,42.520,11.720,1151.000,206.200,37.970,9.659,188.300,42.290,9.613,2.672,353.000,75.930,16.050,4.728,baseline
1372.000,247.300,43.350,11.720,1144.000,206.500,38.860,9.618,192.600,42.190,9.586,2.697,353.200,76.000,16.000,4.740,baseline
1370.000,247.600,43.680,11.700,1150.000,206.500,38.130,9.665,189.500,42.460,9.612,2.672,353.100,75.910,16.090,4.743,baseline
1370.000,246.300,42.230,11.740,1147.000,207.000,37.610,9.693,189.600,42.470,9.638,2.690,354.100,76.080,16.170,4.718,baseline
1368.000,246.700,43.670,11.760,1149.000,207.100,37.910,9.676,188.200,42.120,9.666,2.676,354.500,76.310,16.260,4.730,baseline
1370.000,245.500,42.670,11.770,1144.000,207.700,37.140,9.657,190.800,42.890,9.633,2.701,355.700,76.520,16.240,4.755,baseline
1376.000,246.100,42.990,11.940,1146.000,207.600,37.720,9.688,191.800,42.670,9.682,2.695,358.400,76.550,16.290,4.809,baseline
1378.000,246.500,43.130,11.870,1147.000,207.600,37.640,9.632,193.100,42.630,9.666,2.698,356.500,76.800,16.230,4.767,baseline
1367.000,245.900,42.440,11.680,1143.000,206.900,37.120,9.618,191.100,42.620,9.701,2.672,353.500,76.130,16.100,4.700,baseline
1362.000,245.200,41.780,11.810,1143.000,205.600,37.900,9.583,188.400,42.680,9.707,2.685,353.000,75.940,16.120,4.752,baseline
1363.000,244.500,42.700,11.660,1141.000,206.300,37.070,9.687,188.300,42.940,9.684,2.688,354.000,76.070,16.050,4.775,baseline
1361.000,245.200,42.870,11.730,1141.000,205.800,38.160,9.641,188.400,43.060,9.701,2.685,354.400,76.080,16.250,4.743,baseline
1362.000,245.600,42.920,11.760,1140.000,206.500,37.300,9.696,185.300,42.880,9.753,2.675,354.000,76.650,16.300,4.796,baseline
1364.000,247.200,42.560,11.750,1148.000,206.900,37.190,9.688,189.600,42.660,9.801,2.687,356.000,76.880,16.330,4.806,baseline
1366.000,246.700,43.680,11.890,1149.000,207.100,37.660,9.660,191.100,42.840,9.721,2.701,358.500,77.090,16.350,4.840,baseline
1370.000,246.600,44.430,11.940,1153.000,207.500,38.070,9.694,192.800,42.970,9.799,2.734,358.300,76.880,16.430,4.800,baseline
1365.000,243.700,43.490,11.670,1144.000,205.800,37.640,9.669,190.100,43.000,9.718,2.701,356.200,76.600,16.160,4.772,baseline
1359.000,245.900,41.730,11.700,1136.000,206.600,37.430,9.626,190.200,42.760,9.776,2.695,355.700,76.420,16.200,4.760,baseline
1360.000,244.800,42.650,11.720,1142.000,206.900,37.820,9.614,192.300,42.990,9.740,2.697,355.400,76.570,16.210,4.766,baseline
1360.000,243.400,43.620,11.720,1143.000,206.900,37.580,9.627,191.600,42.830,9.728,2.709,355.000,76.360,16.280,4.789,baseline
1360.000,244.700,43.740,11.830,1143.000,206.100,37.200,9.632,190.900,42.660,9.699,2.695,354.900,77.000,16.370,4.760,baseline
1365.000,245.500,42.450,11.850,1145.000,207.100,37.820,9.665,193.200,43.000,9.829,2.710,356.100,76.880,16.420,4.829,baseline
1368.000,249.300,42.640,11.940,1154.000,206.500,38.380,9.713,195.100,42.930,9.789,2.699,357.400,77.040,16.590,4.824,baseline
1372.000,247.600,42.800,11.920,1145.000,208.600,38.210,9.713,192.000,43.030,9.846,2.724,359.100,77.550,16.530,4.878,baseline
1374.000,245.800,43.490,11.880,1149.000,207.600,37.780,9.630,189.900,42.960,9.763,2.721,356.400,76.640,16.350,4.789,baseline
1367.000,246.600,42.860,11.810,1146.000,207.200,38.330,9.664,191.900,42.790,9.784,2.711,356.200,76.570,16.290,4.761,baseline
1366.000,244.700,43.270,11.770,1148.000,207.200,37.500,9.648,190.500,42.790,9.725,2.698,357.000,76.940,16.440,4.803,baseline
1368.000,249.100,42.830,11.800,1145.000,207.700,37.510,9.638,191.900,42.760,9.768,2.717,355.100,76.830,16.220,4.799,baseline
1370.000,246.300,43.820,11.880,1152.000,207.500,37.870,9.738,191.700,42.840,9.697,2.705,357.200,76.950,16.400,4.841,baseline
1374.000,248.700,43.420,11.820,1156.000,207.000,38.740,9.656,192.300,42.550,9.794,2.714,358.000,77.150,16.530,4.843,baseline
1378.000,250.200,44.070,11.960,1152.000,208.800,38.680,9.723,190.800,42.820,9.844,2.714,358.300,77.500,16.490,4.866,baseline
1380.000,250.600,42.350,12.070,1154.000,207.700,38.270,9.800,192.200,42.800,9.803,2.736,360.400,78.040,16.580,4.837,baseline
1382.000,251.200,43.440,11.940,1151.000,208.200,38.370,9.685,194.100,42.760,9.825,2.709,357.600,76.970,16.240,4.841,baseline
1374.000,250.100,43.760,11.860,1150.000,209.100,38.000,9.676,194.600,42.830,9.777,2.715,356.700,76.640,16.280,4.750,baseline
1376.000,248.400,43.390,11.860,1156.000,208.600,37.860,9.681,188.400,42.740,9.815,2.724,357.900,76.740,16.420,4.829,baseline
1377.000,248.400,44.190,11.850,1149.000,208.200,38.090,9.679,194.000,42.690,9.755,2.715,358.100,76.500,16.450,4.792,baseline
1379.000,250.300,42.180,11.780,1150.000,208.100,38.300,9.623,191.100,42.940,9.757,2.727,357.100,76.980,16.360,4.817,baseline
1381.000,250.100,44.070,11.890,1147.000,208.600,38.150,9.755,190.200,43.000,9.796,2.730,358.000,77.260,16.440,4.846,baseline
1384.000,250.400,43.820,11.930,1156.000,208.000,36.620,9.796,194.700,42.850,9.849,2.720,359.800,77.380,16.310,4.863,baseline
1387.000,250.400,44.210,12.010,1148.000,208.500,38.080,9.721,192.700,42.960,9.869,2.749,361.100,77.430,16.370,4.828,baseline
1384.000,250.400,43.230,11.810,1149.000,208.200,38.150,9.681,189.100,42.860,9.809,2.718,358.300,76.440,16.330,4.812,baseline
1379.000,248.800,42.060,11.770,1153.000,208.900,37.100,9.711,187.500,42.910,9.721,2.716,360.300,76.450,16.180,4.754,baseline
1381.000,249.600,43.600,11.740,1149.000,208.300,38.270,9.647,192.400,43.010,9.672,2.732,356.900,76.420,16.170,4.754,baseline
1381.000,250.400,43.280,11.820,1155.000,208.800,38.060,9.678,190.500,42.740,9.829,2.737,359.000,76.540,16.200,4.781,baseline
1383.000,249.700,43.280,11.790,1147.000,209.000,37.530,9.660,191.400,42.630,9.749,2.715,358.300,76.540,16.210,4.826,baseline
1383.000,249.500,44.450,11.750,1153.000,208.400,37.520,9.742,190.000,42.970,9.819,2.728,358.800,76.570,16.250,4.780,baseline
1385.000,250.300,43.820,11.790,1146.000,208.500,37.130,9.796,188.800,42.850,9.802,2.736,358.600,76.750,16.430,4.810,baseline
1390.000,253.600,43.810,11.870,1150.000,209.000,37.020,9.738,191.200,42.860,9.836,2.735,359.100,76.670,16.310,4.788,baseline
1388.000,250.400,43.820,11.750,1154.000,207.400,38.140,9.696,190.000,43.020,9.745,2.729,357.000,75.820,16.030,4.725,baseline
1384.000,250.100,43.040,11.670,1150.000,207.800,38.110,9.656,192.900,42.420,9.694,2.718,356.400,75.790,15.990,4.715,baseline
1383.000,248.000,41.380,11.650,1158.000,208.300,37.490,9.700,188.900,42.800,9.675,2.712,357.400,75.300,16.080,4.697,baseline
1383.000,248.400,43.320,11.620,1160.000,208.500,38.030,9.712,191.100,42.660,9.748,2.717,355.900,75.460,15.860,4.673,baseline
1384.000,248.900,42.750,11.630,1151.000,207.900,38.440,9.722,193.300,42.640,9.802,2.734,356.700,75.330,15.920,4.675,baseline
1385.000,249.000,43.780,11.670,1144.000,208.600,37.970,9.669,191.600,42.650,9.783,2.731,356.500,75.630,15.960,4.694,baseline
1387.000,253.000,43.820,11.710,1149.000,207.800,37.680,9.726,189.800,42.730,9.761,2.729,357.300,76.160,16.060,4.729,baseline
1389.000,250.100,42.610,11.750,1155.000,208.500,38.430,9.793,192.600,43.270,9.777,2.738,358.000,76.010,16.110,4.740,baseline
1391.000,250.600,44.010,11.670,1159.000,208.100,38.260,9.744,194.200,43.150,9.843,2.743,356.700,75.630,15.870,4.699,baseline
1385.000,248.500,42.480,11.590,1150.000,208.100,38.210,9.707,190.500,42.250,9.793,2.742,353.900,75.260,15.720,4.661,baseline
1384.000,248.600,42.970,11.550,1149.000,207.700,38.350,9.728,189.500,42.680,9.751,2.732,354.000,75.440,15.680,4.609,baseline
1381.000,246.300,43.190,11.510,1155.000,207.800,37.820,9.710,193.100,42.880,9.752,2.722,354.300,74.970,15.720,4.594,baseline
1382.000,248.800,42.710,11.440,1151.000,208.000,37.370,9.729,191.100,42.910,9.748,2.734,353.400,74.980,15.860,4.608,baseline
1381.000,247.200,43.800,11.650,1152.000,207.300,38.010,9.718,191.400,42.760,9.815,2.738,354.600,74.890,15.730,4.660,baseline
1381.000,249.200,43.340,11.540,1152.000,209.200,38.420,9.758,191.800,42.790,9.832,2.761,355.000,75.250,15.920,4.656,baseline
1382.000,249.200,42.880,11.600,1153.000,208.300,37.820,9.787,194.300,43.130,9.870,2.743,354.500,75.470,15.890,4.674,baseline
1385.000,249.500,42.930,11.600,1147.000,208.100,37.770,9.831,191.400,42.970,9.814,2.765,356.100,75.270,16.090,4.624,baseline
1387.000,249.500,42.860,11.670,1149.000,207.600,38.840,9.825,190.400,43.360,9.897,2.768,357.200,75.970,15.990,4.680,baseline
1385.000,251.900,42.780,11.510,1152.000,206.900,38.030,9.776,192.500,42.920,9.838,2.762,353.900,75.040,15.780,4.622,baseline
1378.000,246.500,42.120,11.450,1148.000,207.100,37.770,9.783,194.600,42.620,9.778,2.756,352.800,74.920,15.790,4.569,baseline
1373.000,247.400,43.650,11.550,1145.000,205.900,38.600,9.739,190.700,42.870,9.883,2.765,353.900,74.900,15.620,4.602,baseline
1374.000,247.900,41.820,11.460,1146.000,207.100,38.100,9.793,191.800,42.860,9.766,2.758,353.600,74.760,15.660,4.573,baseline
1372.000,246.800,42.040,11.520,1144.000,207.200,37.220,9.791,194.300,42.580,9.878,2.761,354.300,74.680,15.700,4.559,baseline
1371.000,244.900,43.670,11.500,1143.000,207.200,37.510,9.817,189.600,42.880,9.916,2.757,354.100,75.080,15.820,4.599,baseline
1373.000,245.600,42.760,11.540,1147.000,207.200,37.950,9.787,189.600,43.250,9.957,2.779,353.500,74.810,15.820,4.662,baseline
1372.000,246.500,42.880,11.520,1144.000,208.500,38.690,9.882,193.900,43.120,9.928,2.813,354.900,75.120,15.870,4.655,baseline
1374.000,247.300,42.170,11.600,1145.000,207.100,39.280,9.838,188.400,43.360,9.954,2.804,355.600,75.380,16.040,4.677,baseline
1378.000,248.100,43.040,11.720,1147.000,207.200,38.580,9.862,192.000,43.240,9.894,2.786,356.200,75.350,15.830,4.640,baseline
1373.000,245.100,41.520,11.460,1137.000,206.300,38.020,9.815,193.100,43.120,9.908,2.786,353.800,74.700,15.650,4.562,baseline
1364.000,242.900,42.250,11.460,1145.000,206.600,37.840,9.792,191.600,43.090,9.885,2.764,354.100,74.490,15.760,4.578,baseline
1364.000,244.800,42.480,11.430,1136.000,206.100,37.920,9.809,190.600,43.200,9.852,2.788,351.900,74.350,15.760,4.592,baseline
1360.000,243.400,41.550,11.400,1142.000,206.300,37.690,9.762,194.500,42.950,9.915,2.788,351.200,74.800,15.590,4.560,baseline
1358.000,242.600,41.750,11.490,1142.000,205.700,37.480,9.814,188.300,43.070,9.863,2.788,350.300,74.510,15.710,4.611,baseline
1359.000,242.900,41.800,11.450,1142.000,206.300,37.720,9.840,190.300,43.220,9.902,2.789,352.000,74.920,15.720,4.626,baseline
1360.000,243.300,43.700,11.420,1136.000,207.400,37.400,9.846,189.900,43.160,9.938,2.801,352.000,75.020,15.890,4.638,baseline
1362.000,244.500,43.200,11.680,1144.000,206.200,37.820,9.853,192.900,43.390,9.965,2.806,352.300,75.650,16.000,4.646,baseline
1362.000,243.100,42.630,11.620,1144.000,206.700,38.170,9.897,193.700,43.540,10.040,2.799,354.100,75.520,15.860,4.650,baseline
1365.000,243.300,43.640,11.620,1145.000,207.400,37.830,9.866,194.300,43.670,9.985,2.813,354.300,75.200,15.900,4.608,baseline
1360.000,243.000,42.170,11.420,1144.000,206.700,38.490,9.825,192.800,43.190,9.989,2.791,350.300,74.490,15.600,4.560,baseline
1355.000,242.400,41.760,11.470,1142.000,206.900,37.680,9.849,197.900,43.170,9.922,2.811,350.200,74.300,15.660,4.557,baseline
1355.000,241.500,42.790,11.370,1141.000,207.400,38.450,9.852,193.100,43.460,9.975,2.792,349.700,74.540,15.650,4.570,baseline
1351.000,242.600,41.130,11.390,1144.000,206.500,38.540,9.861,192.000,42.940,9.899,2.799,348.200,74.460,15.550,4.600,baseline
1351.000,243.100,40.820,11.470,1145.000,206.900,38.680,9.858,192.700,43.490,9.992,2.815,349.000,74.720,15.670,4.607,baseline
1350.000,244.400,42.120,11.390,1146.000,207.500,38.850,9.872,193.300,43.290,9.961,2.811,350.800,74.480,15.810,4.594,baseline
1352.000,242.600,42.950,11.550,1145.000,206.200,38.440,9.881,195.800,43.260,9.931,2.825,349.600,74.740,15.800,4.605,baseline
1354.000,243.100,42.850,11.480,1144.000,207.900,38.410,9.890,193.000,43.260,9.980,2.794,351.100,74.910,15.780,4.631,baseline
1355.000,244.500,43.350,11.550,1140.000,208.700,38.640,9.896,194.700,43.460,10.030,2.838,350.600,75.060,15.690,4.599,baseline
1353.000,241.700,42.550,11.380,1143.000,207.100,38.390,9.799,193.300,43.310,9.975,2.819,348.700,74.210,15.590,4.552,baseline
1346.000,240.600,43.260,11.440,1141.000,207.500,39.400,9.749,193.300,42.990,9.883,2.793,347.900,74.360,15.570,4.534,baseline
1344.000,240.300,42.230,11.240,1137.000,206.100,39.400,9.783,194.000,43.190,9.929,2.806,347.000,73.980,15.510,4.527,baseline
1342.000,241.600,42.460,11.350,1138.000,206.300,39.110,9.769,191.400,43.240,9.945,2.807,347.800,73.850,15.610,4.525,baseline
1341.000,240.700,42.740,11.320,1142.000,206.200,39.680,9.792,194.000,43.260,9.871,2.797,348.200,74.010,15.550,4.534,baseline
1341.000,239.700,41.340,11.460,1135.000,205.400,38.760,9.874,194.200,43.440,9.922,2.802,348.100,74.290,15.530,4.569,baseline
1342.000,239.800,42.180,11.370,1139.000,206.000,39.320,9.912,194.000,43.490,9.902,2.811,348.100,74.610,15.670,4.563,baseline
1345.000,241.400,42.190,11.510,1138.000,207.000,39.140,9.862,196.100,43.460,9.985,2.826,351.400,74.720,15.820,4.595,baseline
1347.000,243.700,42.320,11.550,1142.000,207.000,39.190,9.851,197.200,43.320,10.040,2.799,351.900,74.950,15.780,4.652,baseline
1349.000,241.900,41.170,11.480,1138.000,207.000,38.430,9.851,192.000,43.450,10.040,2.825,351.300,74.710,15.670,4.593,baseline
1344.000,241.400,42.720,11.420,1137.000,207.800,38.410,9.911,193.800,43.130,9.926,2.819,348.200,74.180,15.530,4.533,baseline
1345.000,241.000,41.770,11.440,1145.000,207.300,37.730,9.846,197.000,43.190,9.959,2.806,349.000,73.870,15.550,4.525,baseline
1345.000,243.200,42.260,11.420,1145.000,207.600,38.510,9.848,191.500,43.540,9.908,2.809,347.600,74.110,15.540,4.540,baseline
1347.000,242.900,43.410,11.430,1149.000,207.400,38.410,9.919,193.000,43.140,9.937,2.802,348.500,73.800,15.520,4.563,baseline
1348.000,243.300,42.130,11.490,1147.000,208.300,38.930,9.842,194.100,42.850,9.952,2.799,349.100,74.300,15.570,4.593,baseline
1351.000,244.300,42.150,11.490,1150.000,208.500,38.830,9.938,190.600,43.110,9.988,2.819,349.600,74.670,15.680,4.634,baseline
1354.000,243.100,41.480,11.480,1149.000,208.300,38.750,9.949,195.500,43.390,9.902,2.807,350.800,74.550,15.650,4.645,baseline
1358.000,244.100,43.350,11.590,1150.000,208.600,38.850,9.943,194.100,43.680,9.976,2.815,352.500,74.680,15.810,4.644,baseline
1365.000,245.600,42.860,11.690,1156.000,208.800,38.660,9.967,188.900,43.520,9.949,2.804,351.900,74.650,15.840,4.611,baseline
1362.000,243.900,42.850,11.590,1157.000,208.300,39.270,9.969,192.600,43.180,9.871,2.791,350.100,74.050,15.580,4.588,baseline
1360.000,244.200,41.870,11.470,1156.000,209.700,38.550,9.984,189.900,42.990,9.888,2.798,350.400,74.450,15.540,4.571,baseline
1362.000,243.700,42.540,11.560,1158.000,208.700,38.510,10.060,191.700,43.210,9.951,2.788,349.900,74.140,15.620,4.587,baseline
1362.000,244.800,42.910,11.720,1152.000,211.100,38.410,10.030,196.200,42.950,9.938,2.792,350.800,74.070,15.670,4.574,baseline
1361.000,243.500,43.560,11.620,1159.000,209.200,38.690,10.080,193.800,43.270,9.847,2.820,351.800,74.450,15.640,4.613,baseline
1368.000,245.600,43.820,11.690,1154.000,210.100,38.820,10.060,189.200,43.050,9.880,2.777,352.100,74.700,15.770,4.638,baseline
1371.000,246.200,42.200,11.730,1156.000,211.800,38.600,10.040,192.400,43.420,9.930,2.800,353.500,74.870,15.830,4.645,baseline
1373.000,246.900,42.970,11.820,1157.000,209.900,38.640,10.040,192.100,43.180,9.912,2.796,354.600,75.190,15.910,4.689,baseline
1374.000,249.000,41.850,11.730,1160.000,211.300,39.430,10.040,192.000,43.220,9.948,2.789,352.000,74.740,15.740,4.626,baseline
1367.000,246.300,43.060,11.690,1155.000,210.100,38.930,9.992,192.300,43.180,9.879,2.767,352.200,74.650,15.550,4.580,baseline
1367.000,246.300,44.670,11.640,1158.000,209.600,38.660,10.060,190.800,43.160,9.874,2.773,351.100,74.500,15.550,4.572,baseline
1369.000,246.300,43.470,11.640,1161.000,210.900,39.130,10.000,192.200,43.060,9.876,2.746,352.900,74.570,15.570,4.595,baseline
1370.000,247.400,42.670,11.620,1162.000,210.100,38.970,10.000,193.800,43.000,9.809,2.763,351.700,74.760,15.750,4.609,baseline
1372.000,247.300,44.210,11.760,1161.000,210.500,38.550,10.080,191.500,43.120,9.855,2.771,353.600,74.690,15.820,4.608,baseline
1376.000,249.400,42.410,11.800,1163.000,210.800,38.310,10.070,190.800,43.110,9.866,2.786,354.700,75.280,15.770,4.638,baseline
1380.000,246.600,43.960,11.860,1163.000,210.800,37.940,10.040,190.300,43.140,9.926,2.777,355.300,75.390,15.830,4.631,baseline
1382.000,249.900,43.980,11.880,1159.000,211.500,39.020,10.000,194.100,42.880,9.898,2.783,357.600,75.830,15.840,4.699,baseline
1383.000,249.000,42.990,11.760,1164.000,210.700,38.800,9.983,194.000,42.920,9.828,2.772,353.300,74.540,15.760,4.633,baseline
1376.000,249.000,42.710,11.600,1154.000,210.300,38.500,10.030,189.800,43.050,9.882,2.764,353.300,74.810,15.770,4.629,baseline
1377.000,249.200,42.470,11.790,1155.000,210.400,38.780,10.020,195.500,42.900,9.819,2.759,352.200,74.860,15.720,4.580,baseline
1379.000,248.300,42.890,11.690,1160.000,210.200,38.240,10.040,193.100,43.140,9.856,2.760,352.100,75.070,15.710,4.628,baseline
1380.000,246.900,43.800,11.700,1170.000,211.200,38.530,10.060,189.500,42.890,9.831,2.766,352.800,74.940,15.670,4.609,baseline
1380.000,248.100,43.510,11.800,1163.000,210.300,39.030,10.090,191.000,43.020,9.871,2.747,353.100,74.890,15.760,4.627,baseline
1383.000,248.000,43.660,11.800,1161.000,211.300,38.740,10.130,192.000,42.740,9.847,2.749,354.300,75.110,15.760,4.643,baseline
1385.000,249.500,44.830,11.930,1169.000,212.200,39.700,10.140,193.500,43.060,9.922,2.729,355.500,75.230,15.920,4.664,baseline
1389.000,251.100,43.400,11.980,1169.000,211.500,39.620,10.140,194.900,43.040,9.804,2.757,358.000,75.780,15.910,4.708,baseline
1391.000,250.600,43.860,11.930,1166.000,211.500,39.030,10.110,195.900,43.060,9.873,2.775,356.900,75.500,15.740,4.621,baseline
1384.000,251.300,44.080,11.850,1163.000,210.600,39.470,10.130,194.300,42.900,9.865,2.755,356.600,75.180,15.780,4.606,baseline
1384.000,250.300,44.350,11.890,1158.000,211.000,39.430,10.100,192.400,43.360,9.818,2.760,355.100,75.180,15.860,4.664,baseline
1384.000,249.600,41.900,11.920,1162.000,210.800,40.030,10.070,190.900,42.830,9.836,2.758,354.200,75.330,15.880,4.650,baseline
1383.000,248.300,43.250,11.890,1160.000,210.100,40.500,10.080,191.600,43.150,9.883,2.739,355.200,75.270,15.800,4.629,baseline
1386.000,248.000,42.080,11.890,1162.000,211.100,39.000,10.100,190.700,43.190,9.834,2.743,355.700,75.750,15.760,4.630,baseline
1389.000,251.400,43.320,11.960,1167.000,210.800,39.890,10.070,195.000,42.910,9.827,2.760,356.100,75.870,16.030,4.654,baseline
1393.000,250.900,42.930,11.990,1158.000,210.800,40.240,10.150,193.400,43.250,9.852,2.731,358.300,76.240,16.000,4.678,baseline
1394.000,251.300,44.970,12.000,1165.000,211.200,38.480,10.150,195.200,43.250,9.828,2.767,359.400,76.590,15.980,4.731,baseline
1398.000,252.200,45.470,12.140,1166.000,211.700,38.760,10.180,193.300,43.290,9.948,2.777,360.000,76.770,16.110,4.674,baseline
1394.000,249.100,43.810,11.930,1165.000,210.300,39.140,10.070,192.100,43.100,9.816,2.742,358.900,75.960,15.940,4.651,baseline
1390.000,250.000,45.590,12.020,1166.000,211.200,38.940,10.070,191.600,43.390,9.820,2.734,357.400,75.840,15.960,4.646,baseline
1390.000,249.600,43.450,11.920,1159.000,210.900,38.500,10.050,191.900,43.160,9.780,2.735,357.600,76.110,16.020,4.670,baseline
1391.000,250.800,44.140,11.880,1164.000,211.100,39.130,10.100,196.400,43.280,9.805,2.732,359.300,76.300,15.870,4.648,baseline
1391.000,250.000,43.800,12.010,1162.000,210.500,38.880,10.080,193.300,43.260,9.784,2.725,358.800,76.120,15.920,4.699,baseline
1392.000,252.000,44.540,12.020,1162.000,211.300,39.380,10.060,192.200,43.380,9.813,2.758,359.700,76.460,16.120,4.756,baseline
1394.000,249.900,43.030,11.980,1167.000,210.600,38.900,10.030,192.700,43.080,9.836,2.751,359.300,76.420,16.210,4.739,baseline
1396.000,253.700,43.830,12.140,1167.000,211.100,38.960,10.140,196.200,43.050,9.937,2.762,360.900,76.630,16.250,4.789,baseline
1397.000,253.500,43.560,12.250,1165.000,211.800,39.090,10.050,190.700,43.230,9.895,2.778,361.200,77.120,16.340,4.718,baseline
1395.000,250.400,44.140,11.970,1164.000,210.100,38.730,10.040,192.700,43.230,9.845,2.752,358.300,76.100,16.090,4.702,baseline
1391.000,251.300,43.650,11.890,1153.000,209.900,38.830,10.070,192.300,42.930,9.863,2.753,358.200,76.080,16.140,4.691,baseline
1389.000,249.500,44.580,11.950,1160.000,209.900,38.700,10.060,190.100,43.070,9.819,2.753,359.200,76.600,16.040,4.736,baseline
1387.000,249.400,42.830,11.880,1159.000,210.200,38.400,10.030,189.700,43.110,9.900,2.742,358.500,76.310,16.120,4.727,baseline
1387.000,249.200,44.820,11.980,1160.000,209.900,38.800,9.981,189.800,43.120,9.888,2.744,360.000,76.360,16.210,4.703,baseline
1387.000,249.800,42.910,12.050,1158.000,209.600,38.420,9.999,195.200,43.220,9.870,2.741,359.700,76.600,16.320,4.770,baseline
1390.000,250.500,42.170,11.920,1156.000,210.000,38.060,10.020,196.500,42.860,9.843,2.756,360.300,76.530,16.360,4.779,baseline
1394.000,251.400,43.750,12.020,1161.000,210.400,38.530,10.080,194.300,42.970,9.879,2.765,359.900,76.940,16.310,4.808,baseline
1395.000,250.100,43.340,12.090,1158.000,210.100,37.580,10.020,195.100,43.410,9.880,2.759,360.200,76.770,16.280,4.760,baseline
1388.000,249.800,42.900,11.910,1161.000,210.900,38.760,9.954,195.400,42.820,9.879,2.746,358.200,76.230,15.990,4.716,baseline
1384.000,249.800,42.040,11.810,1157.000,209.500,39.170,9.939,194.600,43.240,9.767,2.734,357.400,75.980,16.150,4.733,baseline
1383.000,250.300,43.280,11.870,1159.000,209.100,38.170,9.941,196.000,43.140,9.784,2.752,357.400,76.300,16.110,4.735,baseline
1384.000,248.100,42.860,11.860,1160.000,210.100,38.530,10.030,193.300,43.030,9.819,2.749,357.500,76.130,16.010,4.734,baseline
1387.000,251.000,43.920,11.920,1156.000,210.100,38.550,10.060,194.200,43.090,9.774,2.738,357.000,76.220,16.090,4.746,baseline
1390.000,247.900,44.500,11.930,1161.000,211.200,39.020,9.996,194.600,42.860,9.859,2.753,357.300,76.410,16.090,4.763,baseline
1388.000,249.300,44.610,12.030,1161.000,209.900,38.840,10.050,194.500,43.270,9.802,2.742,360.800,76.770,16.170,4.771,baseline
1391.000,250.600,44.380,12.070,1167.000,211.400,38.800,10.080,193.700,43.160,9.864,2.762,359.800,76.810,16.290,4.768,baseline
1395.000,250.600,43.420,12.030,1158.000,211.000,39.040,9.999,193.600,43.070,9.909,2.764,359.500,76.630,16.140,4.745,baseline
1387.000,249.400,43.650,11.890,1161.000,210.000,39.000,9.937,191.100,43.170,9.764,2.763,357.100,75.840,16.080,4.635,baseline
1382.000,247.100,43.920,11.850,1157.000,209.600,39.560,9.944,194.400,43.160,9.776,2.751,357.400,76.020,16.010,4.670,baseline
1382.000,249.700,42.690,11.770,1161.000,209.900,38.650,9.981,190.500,43.030,9.804,2.726,354.900,76.070,15.940,4.710,baseline
1383.000,248.000,43.000,11.830,1159.000,210.100,40.140,9.986,191.700,42.570,9.712,2.747,355.700,75.760,15.890,4.712,baseline
1382.000,247.100,43.490,11.780,1163.000,210.100,39.360,9.936,193.200,42.640,9.779,2.725,354.700,75.460,15.920,4.686,baseline
1383.000,248.900,42.810,11.870,1157.000,209.400,38.910,9.980,194.600,42.660,9.760,2.736,355.100,76.110,16.080,4.731,baseline
1384.000,248.200,43.670,11.850,1152.000,210.200,38.560,10.020,196.000,43.040,9.799,2.732,356.200,76.080,16.040,4.694,baseline
1387.000,248.300,44.000,11.930,1157.000,210.000,38.550,10.040,193.900,42.750,9.793,2.734,356.900,76.590,16.000,4.761,baseline
1390.000,250.200,43.860,11.900,1158.000,209.500,38.510,10.010,191.900,43.140,9.787,2.734,356.200,75.950,15.950,4.680,baseline
1382.000,246.400,42.840,11.740,1159.000,208.500,38.210,9.909,192.100,42.630,9.680,2.732,354.100,75.000,15.890,4.690,baseline
1377.000,247.400,42.080,11.700,1155.000,209.500,38.530,9.915,195.000,42.610,9.775,2.713,355.300,74.950,15.860,4.629,baseline
1375.000,245.700,42.550,11.750,1158.000,209.000,38.750,9.923,190.800,43.010,9.673,2.738,353.600,75.370,15.780,4.621,baseline
1376.000,246.100,42.290,11.710,1161.000,209.500,38.370,9.873,191.800,42.760,9.744,2.712,351.800,74.860,15.740,4.627,baseline
1374.000,245.500,42.260,11.760,1157.000,208.800,38.280,9.967,187.200,43.030,9.749,2.724,354.000,74.890,15.800,4.644,baseline
1376.000,246.900,41.810,11.710,1162.000,210.000,39.110,9.979,188.000,42.620,9.671,2.715,355.400,75.080,15.940,4.656,baseline
