A-DC1,A-DC2,A-DC3,A-DC4,A-DC5,A-DC6,A-DC7,A-DC8,B-DC1,B-DC2,B-DC3,B-DC4,B-DC5,B-DC6,B-DC7,B-DC8,condition
1451.000,285.500,66.000,22.540,1575.000,281.900,62.310,18.160,87.290,18.270,4.585,2.099,147.000,36.700,9.169,4.288,baseline
1461.000,286.400,64.620,22.780,1579.000,281.700,61.930,18.230,87.470,18.150,4.682,2.087,147.700,37.230,9.085,4.338,baseline
1470.000,286.900,65.010,22.410,1577.000,279.900,60.710,18.000,84.720,17.900,4.636,2.064,147.200,36.420,9.071,4.234,baseline
1432.000,276.800,63.330,22.140,1560.000,278.300,61.350,17.990,88.080,17.970,4.657,2.075,147.100,36.570,8.897,4.227,baseline
1431.000,280.100,64.450,22.070,1567.000,278.800,61.810,18.100,84.630,18.190,4.641,2.078,146.500,36.280,8.852,4.225,baseline
1439.000,283.000,63.760,22.200,1568.000,279.300,61.430,18.040,87.710,18.460,4.670,2.075,146.800,36.660,9.063,4.297,baseline
1435.000,280.600,63.420,22.290,1560.000,278.900,61.890,18.040,84.350,17.950,4.599,2.060,145.900,36.720,8.933,4.281,baseline
1440.000,281.600,62.480,22.380,1563.000,279.900,61.090,18.080,88.430,17.900,4.629,2.069,146.700,36.490,9.062,4.261,baseline
1449.000,285.600,64.340,22.570,1570.000,281.100,62.060,18.220,90.530,17.880,4.695,2.102,145.700,36.850,8.996,4.278,baseline
1457.000,286.100,64.940,22.610,1574.000,282.300,61.900,18.250,84.550,18.040,4.696,2.065,148.200,36.740,9.199,4.261,baseline
1467.000,288.300,65.410,22.840,1586.000,283.200,61.660,18.250,83.490,18.370,4.642,2.106,147.300,37.200,9.037,4.311,baseline
1453.000,284.600,64.110,22.280,1569.000,278.800,61.710,18.100,87.370,18.440,4.635,2.061,146.700,36.610,9.035,4.236,baseline
1432.000,277.700,65.760,22.260,1561.000,279.500,61.990,18.050,86.250,18.220,4.631,2.101,147.900,36.460,9.080,4.242,baseline
1439.000,282.000,63.580,22.380,1561.000,279.700,62.250,18.090,84.470,18.180,4.686,2.088,148.200,36.680,9.074,4.229,baseline
1442.000,282.400,65.500,22.350,1569.000,280.000,61.170,18.120,85.930,18.410,4.697,2.103,147.900,36.490,9.028,4.273,baseline
1439.000,282.400,64.380,22.430,1574.000,279.300,61.330,18.180,83.230,18.260,4.643,2.062,147.100,36.400,8.924,4.332,baseline
1446.000,285.300,64.650,22.640,1566.000,280.800,62.650,18.220,88.200,18.700,4.659,2.086,148.100,36.800,9.190,4.346,baseline
1457.000,287.200,65.370,22.750,1577.000,282.400,62.410,18.300,89.320,18.250,4.736,2.072,147.700,36.950,9.140,4.326,baseline
1467.000,287.000,64.590,22.930,1577.000,283.200,62.680,18.420,85.220,18.200,4.670,2.118,148.600,37.000,9.236,4.338,baseline
1476.000,291.000,65.780,23.190,1582.000,283.600,62.720,18.300,83.530,18.430,4.774,2.104,148.100,37.250,9.145,4.321,baseline
1459.000,288.600,63.780,22.540,1566.000,280.600,61.800,18.070,85.470,18.520,4.662,2.100,146.800,36.910,9.032,4.244,baseline
1442.000,283.800,65.460,22.360,1565.000,281.100,62.430,18.140,86.350,18.570,4.649,2.098,147.500,36.700,9.085,4.323,baseline
1451.000,285.400,65.400,22.580,1574.000,281.600,62.150,18.130,85.240,18.210,4.670,2.117,147.700,37.070,9.051,4.320,baseline
1453.000,286.100,65.060,22.340,1574.000,281.200,61.760,18.070,88.860,18.260,4.718,2.102,148.900,36.950,9.178,4.354,baseline
1449.000,285.600,63.860,22.500,1570.000,281.100,61.060,18.270,85.710,18.440,4.726,2.127,148.400,36.800,9.049,4.322,baseline
1458.000,288.300,64.960,22.810,1578.000,282.800,62.440,18.360,87.220,18.240,4.724,2.095,149.900,36.910,9.203,4.298,baseline
1466.000,288.900,68.650,22.870,1576.000,284.300,61.570,18.470,83.680,18.260,4.745,2.144,149.500,37.410,9.281,4.391,baseline
1475.000,291.200,65.800,23.200,1583.000,284.100,63.020,18.410,86.450,18.430,4.691,2.108,150.000,37.500,9.234,4.360,baseline
1473.000,287.200,64.230,22.670,1572.000,282.300,61.700,18.280,86.100,18.150,4.732,2.095,148.800,37.070,9.158,4.350,baseline
1448.000,284.500,64.760,22.670,1569.000,282.700,62.540,18.270,87.560,18.380,4.669,2.089,149.200,36.970,9.254,4.352,baseline
1455.000,287.300,64.600,22.870,1580.000,282.900,62.260,18.370,91.630,18.610,4.738,2.108,148.500,37.290,9.165,4.401,baseline
1462.000,289.400,64.430,22.790,1576.000,281.100,62.600,18.320,88.880,18.270,4.706,2.120,147.200,37.090,9.263,4.375,baseline
1459.000,288.400,65.890,22.720,1575.000,282.100,61.890,18.350,88.010,18.450,4.708,2.124,149.100,37.080,9.254,4.355,baseline
1463.000,289.000,66.750,23.080,1573.000,282.600,62.950,18.280,86.400,18.790,4.698,2.107,148.400,37.610,9.234,4.371,baseline
1473.000,291.100,67.230,23.110,1585.000,284.500,63.140,18.480,86.430,18.280,4.752,2.116,149.800,37.540,9.347,4.404,baseline
1483.000,293.200,68.300,23.300,1586.000,284.800,62.560,18.490,91.190,18.400,4.688,2.136,150.100,37.310,9.476,4.440,baseline
1471.000,289.400,65.160,22.750,1570.000,280.800,62.790,18.290,88.170,18.290,4.737,2.096,150.300,36.950,9.220,4.382,baseline
1451.000,285.000,67.690,22.690,1572.000,282.700,62.940,18.280,88.420,18.190,4.811,2.075,147.800,37.100,9.021,4.355,baseline
1457.000,286.700,65.900,22.830,1571.000,282.000,62.330,18.240,86.110,18.620,4.706,2.100,149.400,37.070,9.251,4.346,baseline
1459.000,287.200,67.030,22.780,1575.000,282.000,62.710,18.240,87.460,18.410,4.632,2.117,148.000,37.210,9.149,4.352,baseline
1455.000,287.000,65.920,22.760,1567.000,281.800,62.900,18.340,85.450,18.310,4.781,2.137,147.900,37.100,9.171,4.350,baseline
1462.000,289.700,65.160,22.910,1580.000,282.000,62.440,18.370,89.620,18.060,4.744,2.113,148.200,37.120,9.228,4.411,baseline
1471.000,289.300,66.030,23.020,1583.000,282.700,63.160,18.400,87.190,18.480,4.770,2.150,148.400,37.230,9.216,4.419,baseline
1481.000,292.400,67.030,23.300,1585.000,284.200,62.410,18.550,86.350,18.170,4.782,2.127,149.400,37.230,9.287,4.415,baseline
1485.000,291.900,65.440,22.960,1582.000,282.400,62.160,18.210,87.690,19.020,4.741,2.110,150.500,37.470,9.216,4.345,baseline
1452.000,285.900,64.920,22.660,1573.000,280.200,62.190,18.240,86.060,18.580,4.738,2.119,148.800,36.770,9.117,4.359,baseline
1452.000,285.100,65.770,22.690,1572.000,281.100,62.150,18.360,84.440,18.380,4.713,2.103,149.000,36.950,9.309,4.334,baseline
1455.000,285.300,67.370,22.730,1565.000,281.800,61.860,18.170,85.480,18.300,4.696,2.085,147.000,37.450,9.263,4.311,baseline
1451.000,283.700,65.330,22.600,1562.000,281.100,62.360,18.270,88.640,18.200,4.754,2.087,146.900,36.760,9.082,4.306,baseline
1455.000,284.200,66.070,22.800,1570.000,281.200,62.510,18.290,86.800,18.510,4.765,2.095,147.600,36.930,9.049,4.357,baseline
1464.000,289.600,65.790,22.940,1569.000,282.400,63.170,18.370,90.050,18.390,4.752,2.102,149.100,36.580,9.182,4.317,baseline
1472.000,291.500,65.600,23.130,1576.000,282.900,63.240,18.510,84.090,18.630,4.702,2.116,148.900,37.320,9.136,4.380,baseline
1482.000,293.600,66.540,23.280,1578.000,284.400,62.670,18.380,88.890,18.360,4.682,2.120,150.300,37.070,9.181,4.372,baseline
1468.000,286.300,65.300,22.670,1564.000,281.200,61.760,18.260,87.830,18.270,4.757,2.100,148.100,36.720,9.091,4.352,baseline
1449.000,283.300,64.140,22.490,1557.000,280.500,61.810,18.220,82.840,18.200,4.667,2.097,147.200,37.040,9.057,4.323,baseline
1452.000,286.400,64.730,22.680,1561.000,282.200,62.840,18.250,88.160,18.400,4.680,2.082,147.200,36.920,9.161,4.345,baseline
1454.000,285.000,65.350,22.640,1560.000,279.700,61.880,18.110,87.340,18.110,4.692,2.105,146.400,36.630,9.209,4.270,baseline
1451.000,286.300,64.760,22.690,1568.000,280.600,62.010,18.300,89.470,18.060,4.673,2.098,146.700,36.350,9.100,4.300,baseline
1458.000,287.300,66.350,22.930,1561.000,281.500,62.350,18.340,83.380,18.240,4.699,2.109,147.100,36.620,9.018,4.355,baseline
1469.000,289.400,66.690,22.980,1577.000,282.600,62.460,18.410,86.970,18.240,4.728,2.087,148.000,36.730,9.168,4.359,baseline
1477.000,291.100,67.420,23.140,1578.000,284.200,62.440,18.470,92.850,18.570,4.745,2.117,146.000,37.100,9.185,4.295,baseline
1486.000,294.700,65.950,23.390,1587.000,283.200,63.520,18.460,87.380,18.110,4.775,2.125,148.000,36.880,9.376,4.358,baseline
1475.000,289.300,65.270,22.870,1567.000,281.900,62.280,18.140,86.200,18.120,4.698,2.103,147.200,36.820,9.044,4.271,baseline
1455.000,284.600,63.540,22.730,1566.000,279.900,61.890,18.290,87.880,18.220,4.710,2.096,147.300,36.620,9.084,4.260,baseline
1462.000,287.800,65.970,22.930,1566.000,281.900,62.450,18.400,82.940,18.270,4.709,2.114,144.600,36.820,9.047,4.344,baseline
1464.000,288.600,66.280,22.870,1562.000,281.100,62.450,18.330,87.880,18.580,4.717,2.104,146.000,36.310,9.036,4.285,baseline
1462.000,287.300,65.650,22.960,1575.000,281.500,62.140,18.380,84.850,18.310,4.658,2.112,146.900,37.120,9.056,4.302,baseline
1468.000,289.800,65.150,23.010,1579.000,282.900,62.810,18.440,83.420,18.330,4.631,2.103,146.700,36.790,9.202,4.347,baseline
1476.000,292.000,68.040,23.150,1582.000,283.100,62.780,18.490,87.410,18.360,4.787,2.085,148.400,36.810,9.194,4.420,baseline
1483.000,292.400,67.660,23.290,1587.000,283.800,62.270,18.510,82.240,17.850,4.683,2.089,148.800,36.990,9.124,4.379,baseline
1484.000,289.800,68.050,23.110,1576.000,282.100,62.060,18.170,86.740,17.870,4.755,2.119,147.200,37.040,9.110,4.281,baseline
1462.000,288.700,65.640,22.650,1567.000,280.500,61.710,18.210,84.610,18.150,4.729,2.083,147.700,36.360,9.036,4.255,baseline
1466.000,286.000,65.270,23.000,1575.000,281.800,61.670,18.300,88.640,18.150,4.776,2.113,147.100,36.590,9.049,4.396,baseline
1473.000,288.600,65.790,22.900,1581.000,282.700,62.330,18.310,89.660,18.160,4.730,2.097,147.800,36.990,9.019,4.278,baseline
1469.000,289.600,66.730,23.050,1572.000,281.800,62.520,18.350,87.240,17.970,4.680,2.109,147.100,36.770,9.022,4.302,baseline
1477.000,292.200,65.180,23.240,1578.000,283.000,62.690,18.460,85.310,18.300,4.702,2.117,146.200,37.200,9.142,4.350,baseline
1486.000,293.400,67.100,23.290,1585.000,283.500,63.400,18.590,88.900,18.290,4.722,2.092,147.600,37.210,9.247,4.407,baseline
1493.000,297.500,67.730,23.550,1586.000,285.200,62.840,18.540,88.880,18.260,4.700,2.120,147.900,37.150,9.186,4.401,baseline
1502.000,295.900,66.740,23.280,1588.000,283.400,61.920,18.430,86.480,18.360,4.682,2.114,148.300,37.010,9.126,4.344,baseline
1472.000,288.500,66.190,22.940,1576.000,282.300,62.480,18.340,83.190,18.530,4.711,2.104,148.100,36.970,9.137,4.326,baseline
1469.000,291.600,65.930,23.090,1574.000,282.400,62.450,18.460,84.260,18.160,4.748,2.112,147.600,36.810,9.045,4.323,baseline
1475.000,290.700,67.860,23.180,1576.000,283.500,62.140,18.370,85.730,18.310,4.650,2.081,149.300,36.960,9.134,4.352,baseline
1473.000,288.500,67.030,23.050,1564.000,282.600,61.900,18.350,84.100,18.180,4.732,2.118,146.700,37.200,9.192,4.285,baseline
1474.000,290.400,67.100,23.170,1575.000,283.200,62.520,18.450,88.870,18.430,4.715,2.132,146.700,37.110,9.116,4.374,baseline
1483.000,295.000,65.820,23.430,1580.000,284.900,63.490,18.450,87.100,18.180,4.709,2.114,150.200,36.990,9.283,4.343,baseline
1492.000,294.400,67.920,23.430,1588.000,284.100,63.760,18.590,89.160,18.600,4.725,2.099,148.500,37.290,9.137,4.382,baseline
1500.000,298.500,68.200,23.600,1589.000,285.800,63.480,18.620,88.250,18.420,4.756,2.136,149.700,37.230,9.258,4.420,baseline
1489.000,293.400,66.820,23.110,1572.000,283.700,62.890,18.330,84.090,18.560,4.683,2.112,148.900,36.900,9.096,4.357,baseline
1469.000,289.000,65.300,22.940,1569.000,282.400,62.260,18.430,84.090,18.240,4.746,2.110,147.800,36.750,9.272,4.340,baseline
1473.000,293.000,66.000,23.160,1573.000,283.800,62.080,18.420,85.800,18.290,4.738,2.105,147.700,36.800,9.134,4.354,baseline
1476.000,291.900,66.310,23.020,1575.000,283.700,62.860,18.390,91.500,18.350,4.656,2.099,147.900,37.190,9.214,4.312,baseline
1472.000,290.300,65.710,23.060,1567.000,283.700,63.260,18.490,90.720,18.330,4.717,2.101,148.800,37.080,9.134,4.355,baseline
1478.000,291.700,65.880,23.260,1574.000,283.700,61.220,18.520,86.610,18.230,4.713,2.136,147.200,37.170,9.171,4.337,baseline
1486.000,294.400,68.360,23.440,1586.000,286.000,62.220,18.520,83.840,17.960,4.724,2.120,148.700,36.890,9.198,4.416,baseline
1494.000,295.600,67.100,23.530,1582.000,285.100,62.890,18.690,85.490,18.430,4.718,2.138,149.300,36.970,9.352,4.401,baseline
1502.000,298.400,67.330,23.690,1590.000,285.900,63.060,18.480,86.450,18.130,4.725,2.124,149.900,37.710,9.178,4.392,baseline
1484.000,293.400,66.540,23.160,1578.000,282.800,62.560,18.360,88.290,18.230,4.666,2.114,148.400,36.980,9.178,4.335,baseline
1469.000,290.000,65.320,23.150,1576.000,282.200,62.970,18.490,87.360,18.050,4.707,2.086,147.700,36.720,9.163,4.362,baseline
1474.000,292.300,65.480,23.240,1579.000,281.900,62.800,18.490,86.770,18.200,4.742,2.122,149.600,37.010,9.171,4.361,baseline
1474.000,292.700,67.380,23.190,1578.000,283.400,62.750,18.430,86.770,18.490,4.689,2.119,149.000,36.840,9.114,4.390,baseline
1473.000,291.000,66.230,23.210,1574.000,283.400,62.780,18.540,85.420,18.210,4.718,2.126,148.900,37.120,9.220,4.376,baseline
1479.000,293.100,67.500,23.500,1580.000,283.700,62.750,18.650,87.710,18.150,4.731,2.120,149.000,37.120,9.303,4.367,baseline
1488.000,295.500,68.740,23.590,1583.000,284.800,63.760,18.640,82.990,18.230,4.693,2.119,149.600,37.160,9.245,4.382,baseline
1496.000,296.500,67.960,23.760,1584.000,285.800,62.850,18.720,85.950,18.260,4.756,2.127,150.200,37.220,9.366,4.409,baseline
1504.000,298.200,68.540,23.660,1592.000,285.900,63.090,18.560,87.900,18.230,4.732,2.137,149.900,37.390,9.374,4.373,baseline
1481.000,290.800,67.750,23.200,1572.000,283.700,62.390,18.530,88.320,18.160,4.706,2.115,148.100,37.420,9.099,4.338,baseline
1473.000,291.200,65.950,23.270,1577.000,283.900,62.930,18.440,87.900,18.580,4.718,2.122,149.800,36.980,9.357,4.406,baseline
1481.000,291.800,68.500,23.530,1571.000,283.800,63.460,18.530,85.550,18.440,4.696,2.125,147.400,37.540,9.176,4.384,baseline
1477.000,290.900,66.020,23.190,1578.000,283.400,62.570,18.500,85.090,18.210,4.767,2.165,149.500,37.070,9.314,4.334,baseline
1479.000,293.500,66.760,23.260,1584.000,282.500,63.840,18.520,85.520,18.130,4.731,2.142,147.900,37.280,9.308,4.392,baseline
1486.000,292.600,68.010,23.430,1585.000,284.200,63.390,18.580,86.470,18.010,4.659,2.134,148.900,37.480,9.426,4.401,baseline
1494.000,296.100,66.230,23.690,1585.000,284.300,63.340,18.690,86.590,18.190,4.757,2.117,150.300,37.620,9.319,4.389,baseline
1502.000,297.400,66.820,23.750,1592.000,285.300,63.810,18.650,86.590,18.270,4.843,2.150,149.900,37.530,9.184,4.406,baseline
1490.000,292.800,68.200,23.250,1580.000,282.700,62.600,18.450,87.270,18.360,4.722,2.147,148.700,36.690,9.245,4.371,baseline
1471.000,289.700,66.020,23.190,1571.000,282.800,62.230,18.430,84.870,18.230,4.626,2.111,147.800,37.200,9.189,4.317,baseline
1474.000,291.900,68.100,23.270,1578.000,282.600,62.160,18.460,85.870,18.070,4.678,2.130,149.400,37.440,9.230,4.359,baseline
1478.000,291.400,68.290,23.230,1571.000,282.900,62.060,18.450,86.520,18.230,4.692,2.152,148.100,36.940,9.176,4.357,baseline
1476.000,292.900,67.340,23.360,1570.000,283.400,62.360,18.440,87.070,18.410,4.735,2.097,149.100,36.750,9.279,4.444,baseline
1481.000,290.900,66.800,23.520,1581.000,283.300,62.150,18.560,87.270,18.100,4.757,2.131,150.000,37.250,9.347,4.437,baseline
1488.000,295.200,68.020,23.650,1586.000,284.300,63.660,18.560,85.010,18.360,4.791,2.110,149.500,37.230,9.249,4.405,baseline
1496.000,296.300,67.700,23.800,1588.000,285.500,63.740,18.630,85.060,18.250,4.722,2.113,150.700,37.770,9.252,4.413,baseline
1503.000,296.200,67.940,23.580,1587.000,283.800,63.040,18.430,85.240,18.610,4.704,2.125,149.700,37.230,9.308,4.422,baseline
1475.000,289.700,65.470,23.070,1570.000,281.500,62.140,18.360,90.140,18.250,4.723,2.110,148.700,37.070,9.161,4.379,baseline
1470.000,290.100,65.150,23.090,1572.000,281.900,62.260,18.380,86.510,18.250,4.740,2.110,148.100,36.900,9.104,4.397,baseline
1473.000,292.200,67.780,23.110,1568.000,281.100,63.000,18.400,86.380,18.260,4.724,2.108,150.400,37.100,9.213,4.415,baseline
1471.000,290.900,66.040,23.000,1570.000,281.900,62.090,18.460,88.360,18.080,4.681,2.145,147.800,36.810,9.173,4.387,baseline
1472.000,291.800,66.960,23.110,1577.000,281.800,61.850,18.380,86.570,18.240,4.681,2.107,147.000,37.040,9.168,4.419,baseline
1479.000,292.400,67.360,23.240,1573.000,282.500,63.420,18.490,82.540,18.030,4.754,2.106,149.200,36.780,9.133,4.408,baseline
1487.000,294.700,67.130,23.560,1585.000,284.200,63.390,18.460,83.490,18.340,4.739,2.120,148.400,37.230,9.225,4.463,baseline
1494.000,295.800,68.390,23.750,1590.000,285.300,63.350,18.500,85.290,18.170,4.743,2.128,149.900,37.040,9.197,4.412,baseline
1494.000,294.400,66.050,23.310,1575.000,282.300,62.550,18.310,85.120,18.230,4.686,2.118,148.300,37.530,9.032,4.346,baseline
1468.000,289.000,65.320,22.990,1570.000,280.700,62.690,18.310,86.360,17.870,4.695,2.094,148.200,37.140,9.208,4.372,baseline
1468.000,289.500,65.810,23.170,1579.000,281.400,63.020,18.350,85.290,18.020,4.686,2.122,148.500,37.050,9.100,4.366,baseline
1474.000,290.400,67.330,23.030,1572.000,280.400,63.130,18.310,85.210,18.390,4.718,2.117,147.000,36.790,9.208,4.385,baseline
1469.000,291.100,66.500,23.040,1570.000,281.300,62.100,18.320,83.370,18.260,4.599,2.088,148.200,36.910,9.095,4.363,baseline
1473.000,290.900,67.470,23.200,1573.000,282.000,62.920,18.370,86.230,17.990,4.645,2.096,148.300,37.210,9.144,4.361,baseline
1481.000,294.100,67.500,23.400,1588.000,282.100,62.610,18.520,87.000,17.910,4.635,2.124,148.500,37.110,9.282,4.409,baseline
1490.000,295.000,67.390,23.490,1579.000,284.100,62.870,18.450,81.740,18.050,4.651,2.106,148.500,36.970,9.264,4.433,baseline
1497.000,296.200,68.340,23.740,1590.000,285.700,63.940,18.540,87.910,18.190,4.716,2.118,148.800,37.450,9.255,4.445,baseline
1493.000,292.300,67.170,23.310,1579.000,282.400,61.550,18.360,87.830,18.160,4.717,2.081,148.200,36.830,9.176,4.368,baseline
1469.000,289.500,65.830,23.110,1571.000,281.500,61.860,18.420,86.140,18.120,4.619,2.091,148.000,37.030,9.253,4.329,baseline
1475.000,290.100,68.900,23.270,1578.000,283.300,63.030,18.430,84.300,17.840,4.754,2.088,148.400,37.070,9.223,4.325,baseline
1480.000,291.000,67.070,23.280,1576.000,281.400,63.790,18.350,85.350,18.150,4.710,2.098,148.900,36.770,9.143,4.354,baseline
1473.000,290.900,66.560,23.270,1570.000,281.200,63.820,18.410,86.570,18.050,4.722,2.091,148.500,37.190,9.142,4.405,baseline
1479.000,291.200,67.730,23.350,1580.000,282.700,63.440,18.490,85.770,18.210,4.749,2.105,150.800,36.980,9.285,4.356,baseline
1488.000,293.400,67.910,23.420,1582.000,282.900,63.120,18.480,87.310,18.100,4.609,2.096,149.500,37.100,9.282,4.445,baseline
1494.000,295.100,68.600,23.680,1585.000,284.000,63.920,18.570,86.670,18.290,4.671,2.097,150.400,37.790,9.345,4.518,baseline
1501.000,297.900,68.390,23.600,1582.000,284.100,61.970,18.450,86.870,18.620,4.715,2.091,149.200,37.360,9.253,4.429,baseline
1480.000,289.400,66.270,23.140,1575.000,281.300,62.950,18.360,87.970,18.000,4.603,2.105,148.000,37.250,9.146,4.374,baseline
1472.000,289.000,68.740,23.180,1572.000,281.900,62.630,18.390,86.150,18.410,4.688,2.084,148.300,36.840,9.255,4.360,baseline
1485.000,292.000,67.360,23.400,1573.000,281.700,62.530,18.430,87.630,18.110,4.649,2.113,147.600,37.140,9.225,4.407,baseline
1482.000,292.900,66.680,23.390,1578.000,283.300,63.500,18.460,87.990,18.440,4.701,2.116,149.000,37.130,9.239,4.407,baseline
1483.000,292.300,67.590,23.430,1582.000,283.600,63.430,18.430,86.560,18.040,4.683,2.106,149.000,37.070,9.205,4.399,baseline
1492.000,294.100,67.180,23.560,1585.000,283.800,63.160,18.590,85.740,18.300,4.734,2.081,150.000,37.510,9.142,4.435,baseline
1501.000,295.300,67.320,23.860,1585.000,285.200,62.710,18.590,84.810,18.430,4.740,2.154,149.500,37.480,9.425,4.415,baseline
1510.000,298.400,68.510,23.880,1597.000,286.000,64.210,18.510,85.960,18.250,4.796,2.119,149.700,37.730,9.415,4.451,baseline
1496.000,293.600,65.000,23.360,1584.000,282.300,62.210,18.310,88.000,18.030,4.730,2.088,150.900,37.000,9.234,4.435,baseline
1475.000,289.100,65.420,23.190,1577.000,282.300,62.710,18.400,86.010,18.250,4.676,2.073,147.900,37.500,9.244,4.398,baseline
1479.000,290.900,67.600,23.350,1571.000,283.500,61.890,18.460,88.450,18.280,4.695,2.091,148.100,37.540,9.165,4.364,baseline
1483.000,294.500,67.700,23.310,1570.000,282.300,62.090,18.340,85.260,18.400,4.620,2.099,148.700,36.970,9.334,4.403,baseline
1477.000,292.900,65.810,23.310,1573.000,281.400,62.620,18.420,90.030,18.260,4.686,2.096,148.400,37.270,9.264,4.442,baseline
1484.000,293.600,67.600,23.450,1581.000,283.600,62.480,18.450,86.390,17.910,4.671,2.080,149.600,36.930,9.178,4.471,baseline
1492.000,297.600,68.010,23.590,1578.000,284.700,63.330,18.550,89.880,17.990,4.675,2.115,149.800,37.480,9.283,4.410,baseline
1499.000,296.100,68.030,23.710,1584.000,284.800,63.600,18.530,83.560,18.340,4.709,2.112,149.700,37.610,9.418,4.415,baseline
1507.000,296.700,68.480,23.560,1575.000,283.000,62.100,18.360,86.200,17.900,4.692,2.092,149.200,37.580,9.321,4.402,baseline
1475.000,290.100,66.470,23.010,1570.000,282.100,62.010,18.170,87.250,18.320,4.666,2.123,149.800,36.820,9.127,4.385,baseline
1473.000,290.800,65.270,23.100,1573.000,281.700,62.160,18.220,86.010,18.440,4.665,2.105,149.400,37.180,9.238,4.401,baseline
1477.000,291.000,66.030,23.130,1574.000,281.600,62.530,18.260,86.090,18.320,4.711,2.077,148.400,37.460,9.335,4.428,baseline
1474.000,291.400,67.000,23.070,1565.000,281.900,62.980,18.210,86.790,18.150,4.680,2.091,150.400,37.300,9.260,4.409,baseline
1476.000,291.400,65.550,23.230,1576.000,282.100,62.460,18.320,83.610,18.100,4.762,2.115,149.600,37.820,9.158,4.461,baseline
1483.000,292.900,66.500,23.390,1571.000,283.900,62.410,18.280,84.860,17.980,4.699,2.127,149.500,37.190,9.384,4.414,baseline
1492.000,295.500,66.120,23.490,1584.000,284.000,63.330,18.420,81.700,18.180,4.739,2.120,151.300,37.830,9.389,4.475,baseline
1500.000,294.900,69.120,23.720,1586.000,285.200,62.240,18.430,84.860,18.120,4.715,2.099,150.900,37.890,9.401,4.473,baseline
1486.000,294.000,65.230,23.190,1569.000,281.400,62.570,18.200,88.610,18.330,4.652,2.103,149.200,37.230,9.267,4.372,baseline
1467.000,289.800,66.900,23.130,1562.000,281.800,61.500,18.260,87.250,18.200,4.707,2.098,149.900,37.190,9.282,4.422,baseline
1475.000,290.900,68.080,23.260,1573.000,282.100,62.560,18.300,86.700,17.980,4.675,2.114,150.300,37.460,9.291,4.415,baseline
1476.000,291.500,66.160,23.260,1571.000,281.400,61.470,18.200,86.830,18.410,4.747,2.127,150.000,37.350,9.388,4.387,baseline
1473.000,289.800,66.950,23.150,1573.000,281.400,62.890,18.280,86.000,18.280,4.665,2.139,150.100,37.210,9.447,4.415,baseline
1480.000,292.700,67.120,23.440,1575.000,283.700,63.370,18.330,88.470,18.310,4.678,2.093,149.600,37.560,9.243,4.390,baseline
1488.000,295.500,66.400,23.520,1578.000,284.000,63.950,18.480,88.280,18.040,4.672,2.130,150.500,37.560,9.331,4.486,baseline
1495.000,294.200,69.130,23.660,1582.000,285.100,63.450,18.430,87.650,18.210,4.679,2.120,150.400,37.990,9.391,4.483,baseline
1501.000,296.900,67.360,23.350,1576.000,282.800,62.310,18.340,86.260,18.110,4.678,2.121,150.900,37.400,9.212,4.464,baseline
1475.000,291.600,67.140,23.040,1571.000,282.600,62.480,18.220,89.160,17.930,4.630,2.076,150.200,36.860,9.358,4.411,baseline
1474.000,290.100,66.730,23.340,1573.000,282.300,62.760,18.350,88.460,18.330,4.617,2.090,149.800,37.520,9.371,4.414,baseline
1482.000,293.700,66.070,23.290,1572.000,282.300,62.290,18.320,85.690,18.080,4.671,2.098,150.300,37.600,9.261,4.379,baseline
1476.000,291.000,66.910,23.400,1578.000,281.700,62.590,18.300,84.090,17.990,4.725,2.100,148.600,37.080,9.277,4.470,baseline
1481.000,291.200,68.190,23.410,1573.000,282.800,61.610,18.380,82.100,17.770,4.674,2.108,149.100,37.210,9.320,4.487,baseline
1488.000,294.300,66.210,23.530,1579.000,283.700,63.490,18.380,86.040,18.030,4.717,2.098,149.700,37.820,9.289,4.527,baseline
1497.000,295.200,66.680,23.640,1581.000,284.900,64.080,18.380,85.740,18.180,4.674,2.143,150.500,37.920,9.469,4.454,baseline
1502.000,296.100,67.540,23.470,1581.000,281.500,63.350,18.240,83.130,18.120,4.693,2.144,149.500,37.230,9.480,4.418,baseline
1474.000,292.000,66.370,23.100,1570.000,281.800,62.570,18.220,84.730,18.290,4.649,2.104,149.200,37.530,9.112,4.452,baseline
1475.000,293.300,66.340,23.010,1573.000,281.400,62.860,18.160,86.310,18.160,4.632,2.107,148.600,37.370,9.310,4.398,baseline
1480.000,291.600,65.930,23.060,1570.000,281.800,62.010,18.220,87.680,18.330,4.760,2.116,150.600,37.720,9.360,4.509,baseline
1476.000,291.700,65.400,23.070,1576.000,281.100,62.520,18.190,85.260,18.210,4.769,2.106,149.900,37.510,9.450,4.443,baseline
1481.000,295.100,68.060,23.200,1564.000,282.600,63.050,18.250,88.300,18.050,4.633,2.128,151.000,37.570,9.429,4.475,baseline
1488.000,291.700,68.060,23.250,1573.000,284.200,62.530,18.320,85.080,17.960,4.726,2.087,150.100,37.510,9.442,4.492,baseline
1495.000,297.100,66.420,23.560,1586.000,284.100,63.110,18.380,85.180,18.050,4.807,2.127,152.100,37.630,9.489,4.527,baseline
1502.000,293.500,68.270,23.420,1582.000,282.500,62.650,18.320,87.760,18.260,4.739,2.126,150.900,37.470,9.475,4.443,baseline
1473.000,289.600,66.190,22.990,1569.000,281.800,61.190,18.310,85.830,18.260,4.732,2.115,149.400,37.440,9.442,4.419,baseline
1468.000,289.500,66.680,23.080,1569.000,280.600,61.630,18.210,90.690,18.350,4.714,2.107,149.600,37.290,9.296,4.457,baseline
1472.000,290.400,65.440,23.090,1573.000,281.500,62.560,18.250,87.270,18.070,4.589,2.129,149.600,37.450,9.307,4.449,baseline
1468.000,288.600,66.830,23.030,1564.000,281.300,62.760,18.280,84.420,18.420,4.679,2.086,148.900,37.260,9.445,4.390,baseline
1471.000,289.400,66.570,23.100,1565.000,280.100,63.680,18.270,84.620,18.230,4.642,2.080,149.000,37.330,9.255,4.388,baseline
1477.000,292.700,66.520,23.210,1575.000,282.200,62.850,18.340,88.440,18.130,4.713,2.105,149.700,37.100,9.406,4.420,baseline
1484.000,291.700,66.760,23.360,1576.000,282.500,62.180,18.420,88.930,18.300,4.751,2.129,151.000,37.650,9.433,4.487,baseline
1490.000,295.900,67.750,23.570,1584.000,283.100,62.710,18.460,86.790,18.630,4.685,2.124,150.200,37.700,9.443,4.499,baseline
1480.000,290.500,67.130,23.060,1566.000,280.500,62.180,18.250,88.300,18.100,4.657,2.127,149.200,37.550,9.264,4.428,baseline
1460.000,286.600,67.500,22.960,1562.000,280.900,62.130,18.270,84.700,18.180,4.668,2.090,149.200,37.410,9.355,4.421,baseline
1462.000,287.800,67.470,22.930,1565.000,280.200,61.740,18.210,87.770,18.220,4.608,2.114,148.700,37.370,9.240,4.382,baseline
1463.000,288.000,65.370,22.860,1554.000,280.600,61.500,18.080,86.340,18.440,4.619,2.102,149.000,37.020,9.213,4.390,baseline
1461.000,288.600,65.250,23.040,1563.000,279.800,62.310,18.200,85.870,18.060,4.655,2.130,148.700,37.200,9.270,4.423,baseline
1466.000,289.900,66.250,23.050,1566.000,280.800,62.430,18.330,88.290,17.890,4.700,2.075,149.800,37.250,9.280,4.444,baseline
1474.000,292.800,66.140,23.300,1573.000,281.000,62.590,18.350,88.410,17.760,4.709,2.097,149.100,37.730,9.372,4.417,baseline
1481.000,293.400,66.960,23.290,1579.000,281.000,62.530,18.410,88.460,18.070,4.661,2.115,149.700,37.480,9.351,4.422,baseline
1489.000,295.900,67.550,23.400,1579.000,282.900,63.180,18.330,89.340,18.270,4.721,2.088,150.800,37.760,9.350,4.462,baseline
1470.000,290.000,66.940,23.010,1565.000,279.300,61.680,18.140,86.960,17.810,4.695,2.111,150.100,37.150,9.242,4.465,baseline
1459.000,289.100,66.310,22.960,1564.000,280.900,62.570,18.190,84.220,17.760,4.689,2.080,149.600,37.400,9.236,4.410,baseline
1463.000,289.700,66.590,23.140,1564.000,279.400,61.790,18.290,86.820,17.830,4.699,2.105,149.300,37.340,9.446,4.417,baseline
1464.000,287.200,66.580,22.970,1560.000,280.600,62.130,18.240,86.010,18.060,4.631,2.107,149.500,37.250,9.274,4.432,baseline
1462.000,289.800,66.270,23.060,1565.000,280.700,61.760,18.190,84.150,17.960,4.665,2.082,149.600,37.490,9.424,4.493,baseline
1471.000,289.200,66.890,23.230,1572.000,282.400,62.260,18.290,84.710,18.020,4.666,2.101,149.500,37.150,9.207,4.377,baseline
1477.000,290.900,67.610,23.280,1576.000,281.700,62.220,18.380,87.090,18.300,4.722,2.100,150.300,37.300,9.359,4.496,baseline
1483.000,291.600,66.840,23.540,1576.000,282.600,62.860,18.450,85.580,17.880,4.643,2.099,150.500,37.630,9.401,4.497,baseline
1492.000,295.600,68.600,23.550,1576.000,282.300,62.430,18.280,85.420,17.860,4.671,2.095,149.900,37.640,9.352,4.447,baseline
1473.000,290.400,66.320,22.880,1569.000,280.400,62.940,18.060,84.250,17.910,4.654,2.100,149.200,37.400,9.179,4.425,baseline
1463.000,288.700,66.540,22.800,1563.000,279.400,62.610,18.100,88.160,17.920,4.638,2.096,150.500,37.330,9.205,4.380,baseline
1469.000,290.800,66.270,23.230,1565.000,280.600,62.550,18.240,86.840,17.970,4.685,2.101,148.900,37.490,9.377,4.461,baseline
1468.000,288.700,64.750,23.050,1564.000,280.400,62.190,18.210,87.170,17.850,4.595,2.105,149.000,37.610,9.407,4.417,baseline
1469.000,290.100,67.990,23.080,1573.000,280.900,62.690,18.370,85.280,18.110,4.704,2.102,149.300,37.450,9.375,4.401,baseline
1478.000,291.300,67.290,23.420,1580.000,282.700,62.180,18.390,85.440,18.330,4.669,2.118,149.600,37.510,9.296,4.501,baseline
1488.000,294.100,69.170,23.550,1579.000,283.200,62.530,18.520,83.450,18.060,4.678,2.105,152.100,37.650,9.340,4.525,baseline
1496.000,293.800,69.070,23.610,1587.000,283.500,63.740,18.550,86.750,17.520,4.751,2.117,150.700,37.780,9.499,4.456,baseline
1504.000,296.000,68.070,23.820,1589.000,284.300,62.510,18.350,84.020,18.060,4.691,2.111,151.500,37.760,9.425,4.434,baseline
1480.000,291.300,66.800,23.170,1572.000,281.000,62.540,18.260,87.820,17.870,4.676,2.091,149.500,37.380,9.282,4.465,baseline
1470.000,290.700,67.640,23.040,1572.000,280.700,63.350,18.360,88.220,18.020,4.665,2.106,150.400,37.590,9.240,4.416,baseline
1474.000,290.200,65.640,23.280,1576.000,282.000,62.390,18.230,86.000,18.080,4.674,2.110,148.800,37.360,9.388,4.412,baseline
1473.000,290.300,65.960,23.210,1567.000,281.200,63.470,18.320,87.520,18.020,4.667,2.102,150.700,37.500,9.390,4.411,baseline
1472.000,290.700,66.920,23.120,1578.000,281.400,62.350,18.420,87.420,17.980,4.638,2.106,149.200,37.320,9.334,4.457,baseline
1480.000,293.800,67.400,23.460,1575.000,283.300,62.820,18.390,86.970,17.900,4.605,2.097,150.900,37.740,9.389,4.477,baseline
1490.000,294.900,68.500,23.420,1586.000,283.600,63.180,18.440,84.920,18.120,4.687,2.136,150.300,37.730,9.353,4.508,baseline
1498.000,294.900,68.640,23.750,1588.000,284.200,63.020,18.520,86.820,18.020,4.660,2.100,149.700,37.750,9.582,4.504,baseline
1506.000,297.900,69.220,23.740,1592.000,284.300,63.240,18.270,84.910,17.950,4.622,2.098,153.300,37.800,9.495,4.482,baseline
1481.000,290.700,67.470,23.060,1570.000,281.900,62.910,18.220,87.800,18.030,4.668,2.105,150.600,37.430,9.364,4.469,baseline
1471.000,291.300,67.590,23.130,1567.000,281.500,62.730,18.230,88.010,18.120,4.616,2.120,149.700,37.560,9.311,4.454,baseline
1475.000,290.400,67.700,23.320,1567.000,281.600,62.580,18.300,85.370,18.060,4.717,2.102,151.000,37.520,9.481,4.480,baseline
1475.000,292.700,67.690,23.070,1570.000,282.000,62.610,18.280,81.390,17.900,4.659,2.107,150.000,37.670,9.253,4.451,baseline
1474.000,291.900,64.830,23.230,1577.000,281.400,63.220,18.340,86.850,17.960,4.677,2.134,148.500,37.960,9.332,4.457,baseline
1484.000,292.300,67.430,23.480,1572.000,282.400,63.930,18.430,90.150,17.810,4.666,2.101,150.800,37.730,9.449,4.526,baseline
1492.000,293.600,69.540,23.610,1581.000,284.700,63.350,18.440,85.700,18.120,4.604,2.096,150.100,38.090,9.638,4.528,baseline
1500.000,297.200,68.020,23.860,1585.000,285.100,62.910,18.510,86.790,18.110,4.704,2.105,151.900,37.760,9.378,4.580,baseline
1510.000,300.100,68.740,23.960,1595.000,285.600,63.460,18.390,86.940,18.210,4.625,2.116,151.700,38.250,9.580,4.530,baseline
1488.000,293.200,67.930,23.210,1575.000,281.500,62.160,18.300,88.860,18.180,4.697,2.111,148.800,37.610,9.498,4.424,baseline
1473.000,293.100,67.500,23.270,1581.000,281.900,63.240,18.390,86.610,18.220,4.622,2.111,149.700,37.750,9.329,4.474,baseline
1481.000,292.900,69.960,23.470,1582.000,282.400,62.960,18.440,86.130,18.020,4.645,2.104,151.100,38.000,9.478,4.534,baseline
1480.000,293.000,67.700,23.230,1580.000,282.200,62.340,18.230,88.260,18.140,4.669,2.106,150.500,37.290,9.352,4.491,baseline
1478.000,292.300,66.660,23.390,1587.000,283.000,63.020,18.270,83.190,18.030,4.635,2.102,151.700,37.490,9.391,4.495,baseline
1485.000,295.100,67.820,23.430,1587.000,283.300,63.350,18.400,84.010,17.700,4.615,2.088,150.500,37.560,9.525,4.460,baseline
1493.000,295.300,68.070,23.580,1580.000,284.700,63.710,18.380,81.560,17.910,4.665,2.115,150.800,37.540,9.331,4.502,baseline
1501.000,298.900,67.710,23.780,1588.000,284.300,63.660,18.590,87.470,18.040,4.659,2.105,150.200,38.050,9.459,4.570,baseline
1511.000,298.500,68.460,23.800,1589.000,284.100,63.080,18.340,87.250,17.580,4.718,2.120,150.600,37.810,9.414,4.485,baseline
1483.000,292.300,66.770,23.190,1573.000,281.100,61.720,18.260,84.070,17.860,4.607,2.109,150.000,37.530,9.254,4.517,baseline
1475.000,293.000,67.190,23.250,1577.000,282.200,62.610,18.290,88.890,17.840,4.618,2.082,150.000,37.840,9.361,4.473,baseline
1485.000,293.400,68.270,23.480,1569.000,282.600,62.810,18.320,86.760,17.970,4.652,2.112,150.500,37.660,9.345,4.494,baseline
1481.000,293.500,67.720,23.290,1573.000,283.200,62.680,18.350,85.910,17.930,4.597,2.095,150.100,37.750,9.431,4.524,baseline
1482.000,292.700,67.620,23.350,1580.000,283.500,62.400,18.370,83.540,17.860,4.650,2.072,149.600,37.910,9.475,4.481,baseline
1491.000,294.000,66.540,23.600,1581.000,283.900,63.060,18.440,85.520,17.880,4.634,2.094,152.800,37.720,9.352,4.456,baseline
1501.000,294.900,67.270,23.800,1585.000,284.500,63.250,18.530,87.470,18.170,4.679,2.108,150.500,37.990,9.459,4.549,baseline
1511.000,298.100,70.030,23.990,1592.000,285.500,63.470,18.590,83.690,17.620,4.641,2.122,151.500,38.180,9.535,4.495,baseline
1514.000,299.600,68.490,23.620,1582.000,283.100,62.250,18.360,87.050,18.170,4.756,2.096,152.400,37.820,9.427,4.471,baseline
1477.000,292.200,66.730,23.150,1577.000,281.900,62.290,18.290,84.330,17.850,4.599,2.102,151.700,37.930,9.175,4.434,baseline
1476.000,292.800,67.890,23.260,1569.000,281.500,64.110,18.480,83.920,18.070,4.643,2.124,151.000,37.800,9.538,4.483,baseline
1480.000,292.500,66.810,23.340,1573.000,281.900,62.540,18.330,88.050,17.960,4.605,2.101,149.300,37.700,9.271,4.487,baseline
1475.000,291.900,66.530,23.410,1575.000,282.000,62.330,18.380,85.800,17.930,4.592,2.101,150.500,37.740,9.267,4.470,baseline
1478.000,292.500,67.610,23.390,1571.000,282.200,62.650,18.350,84.580,18.200,4.669,2.100,149.900,37.730,9.433,4.504,baseline
1487.000,296.200,68.800,23.540,1581.000,283.700,63.130,18.460,89.590,17.940,4.628,2.099,150.000,37.540,9.328,4.466,baseline
1496.000,297.300,67.820,23.730,1579.000,283.400,63.070,18.470,85.890,18.090,4.545,2.108,150.300,37.670,9.474,4.553,baseline
1503.000,296.700,70.750,24.040,1593.000,284.600,63.070,18.480,84.670,18.010,4.729,2.117,150.200,38.000,9.457,4.542,baseline
1493.000,295.800,67.180,23.280,1569.000,280.900,62.760,18.270,86.410,18.000,4.712,2.093,150.400,37.730,9.322,4.491,baseline
1467.000,289.300,67.870,23.150,1570.000,280.700,62.190,18.240,90.670,17.850,4.567,2.080,150.900,37.410,9.401,4.499,baseline
1469.000,290.900,67.190,23.280,1566.000,281.000,62.860,18.230,84.820,17.950,4.601,2.066,149.400,37.660,9.323,4.494,baseline
1474.000,291.400,65.130,23.270,1563.000,280.300,62.120,18.250,86.270,17.920,4.586,2.124,149.400,37.800,9.427,4.456,baseline
1467.000,288.800,65.120,23.290,1570.000,280.800,62.380,18.260,91.380,17.700,4.614,2.105,150.500,37.270,9.380,4.493,baseline
1474.000,290.900,66.660,23.340,1566.000,281.400,62.840,18.300,84.190,17.890,4.642,2.106,149.500,37.370,9.417,4.521,baseline
1483.000,297.000,65.460,23.570,1577.000,282.200,63.290,18.420,86.620,18.460,4.705,2.060,150.200,37.400,9.408,4.501,baseline
1492.000,295.900,69.170,23.690,1582.000,284.000,63.510,18.370,83.800,17.910,4.620,2.109,150.100,37.680,9.447,4.443,baseline
1500.000,297.000,69.440,23.740,1587.000,283.900,62.340,18.280,87.310,17.820,4.694,2.063,151.200,37.550,9.410,4.541,baseline
1479.000,290.800,67.870,23.200,1564.000,280.600,61.910,18.110,85.490,18.070,4.684,2.068,150.300,37.380,9.266,4.499,baseline
1464.000,290.100,68.620,23.070,1566.000,280.400,61.960,18.220,86.260,17.940,4.616,2.083,150.100,37.470,9.403,4.445,baseline
1470.000,290.700,67.030,23.260,1566.000,281.000,61.780,18.190,87.050,17.890,4.588,2.089,149.900,37.390,9.366,4.398,baseline
1468.000,292.600,66.880,23.040,1564.000,280.100,63.000,18.210,83.710,17.510,4.584,2.085,150.100,37.440,9.354,4.420,baseline
1467.000,291.700,65.640,23.090,1557.000,280.700,62.870,18.180,81.200,17.830,4.596,2.083,149.400,37.680,9.407,4.468,baseline
1472.000,292.700,65.440,23.300,1566.000,281.800,62.510,18.310,88.070,17.870,4.614,2.087,150.300,37.110,9.376,4.506,baseline
1481.000,292.300,66.250,23.460,1571.000,281.600,63.300,18.370,84.580,17.500,4.576,2.062,150.100,37.370,9.421,4.471,baseline
1487.000,295.200,66.650,23.590,1571.000,282.700,62.890,18.450,87.400,17.540,4.603,2.093,150.000,37.560,9.351,4.512,baseline
1494.000,296.500,65.350,23.510,1572.000,281.800,62.660,18.270,83.080,17.830,4.662,2.097,149.000,37.420,9.278,4.443,baseline
1464.000,288.900,65.480,22.940,1556.000,279.200,62.540,18.160,86.490,17.810,4.557,2.070,149.500,37.580,9.310,4.419,baseline
1461.000,290.800,66.070,23.090,1563.000,280.400,61.740,18.260,88.460,17.730,4.596,2.064,148.700,37.370,9.323,4.441,baseline
1470.000,289.600,65.830,23.170,1567.000,280.300,61.760,18.090,85.270,18.020,4.593,2.061,149.600,37.590,9.495,4.439,baseline
1464.000,287.300,66.390,23.040,1569.000,279.100,62.210,18.190,84.650,17.920,4.537,2.077,149.700,37.430,9.319,4.402,baseline
1466.000,290.300,68.700,23.130,1562.000,279.800,61.910,18.210,85.050,17.670,4.593,2.073,148.600,37.520,9.298,4.436,baseline
1474.000,292.700,67.700,23.360,1563.000,281.200,62.970,18.280,88.780,17.930,4.669,2.084,150.700,37.430,9.462,4.439,baseline
1482.000,293.100,69.530,23.440,1569.000,282.500,63.380,18.300,88.780,17.760,4.656,2.081,149.500,37.740,9.347,4.467,baseline
1489.000,294.200,67.120,23.640,1576.000,282.100,62.840,18.240,83.540,17.920,4.587,2.099,150.300,37.850,9.353,4.508,baseline
1475.000,291.000,64.210,22.840,1561.000,278.200,62.510,17.950,87.670,17.790,4.515,2.096,147.700,37.170,9.304,4.443,baseline
1452.000,286.200,65.280,22.790,1551.000,278.800,62.460,18.030,85.210,17.790,4.563,2.072,149.600,37.050,9.313,4.413,baseline
1455.000,287.500,64.470,22.830,1561.000,278.900,62.150,17.930,85.230,17.580,4.583,2.084,150.500,37.360,9.276,4.447,baseline
1455.000,289.100,64.380,22.610,1561.000,278.400,61.510,17.920,86.320,18.030,4.577,2.086,149.200,37.540,9.281,4.445,baseline
1449.000,288.500,67.470,22.780,1559.000,278.600,61.010,18.060,86.970,17.830,4.626,2.089,150.400,37.030,9.339,4.479,baseline
1455.000,288.500,65.900,22.990,1556.000,279.500,62.000,18.090,88.110,17.650,4.613,2.075,150.400,37.780,9.250,4.465,baseline
1462.000,288.600,67.250,23.010,1567.000,280.900,61.640,18.100,87.780,17.960,4.634,2.097,149.000,37.690,9.390,4.434,baseline
1470.000,290.600,66.090,23.110,1567.000,280.500,61.590,18.060,88.840,17.950,4.564,2.079,150.100,37.310,9.403,4.452,baseline
1479.000,292.100,66.350,23.180,1574.000,281.200,62.630,18.000,85.340,17.860,4.696,2.109,150.700,37.590,9.292,4.469,baseline
1451.000,287.200,63.740,22.580,1545.000,277.100,61.730,17.760,84.800,17.940,4.659,2.074,148.300,37.350,9.302,4.380,baseline
1440.000,283.400,65.530,22.370,1547.000,278.000,60.990,17.830,82.930,17.890,4.586,2.073,150.100,37.370,9.255,4.406,baseline
1442.000,286.400,65.110,22.610,1549.000,277.700,61.760,17.810,89.610,17.860,4.607,2.114,148.400,37.120,9.315,4.446,baseline
1440.000,283.800,64.510,22.340,1543.000,277.900,60.810,17.800,82.030,17.660,4.657,2.070,149.000,36.990,9.338,4.403,baseline
1438.000,284.100,63.400,22.520,1550.000,277.700,61.470,17.870,88.130,17.720,4.608,2.098,150.300,37.500,9.263,4.391,baseline
1446.000,286.100,63.470,22.480,1562.000,277.800,61.940,17.940,85.200,17.920,4.634,2.096,147.600,37.170,9.246,4.435,baseline
1453.000,288.900,65.790,22.680,1561.000,280.500,62.020,17.960,84.890,17.800,4.614,2.073,148.800,37.280,9.373,4.503,baseline
1462.000,288.700,66.700,22.930,1563.000,280.900,61.890,17.980,84.010,17.720,4.653,2.106,150.700,37.670,9.351,4.451,baseline
1468.000,290.300,67.990,22.800,1564.000,281.300,62.450,17.860,86.930,18.030,4.624,2.115,149.100,37.810,9.429,4.481,baseline
1442.000,282.700,65.270,22.220,1545.000,276.500,61.010,17.860,85.540,18.030,4.626,2.063,148.800,37.730,9.280,4.386,baseline
1432.000,282.200,64.300,22.410,1543.000,277.700,60.790,17.850,86.460,17.930,4.603,2.064,149.200,36.880,9.097,4.466,baseline
1435.000,283.900,64.660,22.430,1554.000,278.000,61.430,17.800,86.460,17.770,4.592,2.103,149.200,37.330,9.290,4.455,baseline
1432.000,283.000,63.430,22.350,1543.000,277.100,60.980,17.720,87.340,17.840,4.622,2.064,149.600,37.000,9.335,4.389,baseline
1433.000,284.700,64.570,22.330,1542.000,277.000,61.500,17.870,78.820,17.840,4.576,2.111,149.700,37.140,9.102,4.445,baseline
1440.000,284.400,64.420,22.660,1552.000,278.000,62.020,17.990,82.370,17.800,4.519,2.089,149.700,37.640,9.323,4.452,baseline
1449.000,287.500,64.100,22.820,1559.000,279.500,61.920,18.020,84.920,17.690,4.654,2.109,150.100,37.440,9.412,4.430,baseline
1457.000,289.200,64.640,23.040,1555.000,280.500,62.890,18.230,82.520,17.930,4.522,2.107,152.000,37.350,9.392,4.469,baseline
1464.000,290.900,66.560,23.070,1572.000,280.400,61.510,18.170,83.920,17.870,4.633,2.086,149.000,37.260,9.328,4.457,baseline
1445.000,284.800,63.300,22.590,1550.000,277.500,60.360,17.950,86.610,17.760,4.614,2.077,149.300,37.010,9.226,4.419,baseline
1431.000,283.700,64.390,22.570,1546.000,277.700,61.180,18.040,89.250,17.840,4.580,2.072,148.900,37.300,9.182,4.437,baseline
1439.000,283.200,65.780,22.660,1551.000,278.400,61.180,18.040,86.070,17.910,4.563,2.076,149.100,37.380,9.261,4.399,baseline
1437.000,283.400,65.740,22.510,1539.000,276.600,61.150,18.020,86.180,17.840,4.519,2.087,150.400,37.390,9.275,4.448,baseline
1434.000,282.300,66.230,22.600,1552.000,277.400,62.850,18.070,85.330,17.910,4.666,2.068,150.100,37.380,9.305,4.418,baseline
1442.000,283.600,64.330,22.840,1554.000,279.200,62.150,18.050,85.090,17.980,4.672,2.089,150.300,37.150,9.195,4.481,baseline
1449.000,286.300,64.400,22.900,1559.000,279.900,61.330,18.140,85.740,17.990,4.583,2.083,148.800,37.490,9.183,4.449,baseline
1458.000,287.400,67.120,23.040,1556.000,280.300,62.450,18.160,86.550,17.700,4.558,2.110,152.700,37.710,9.355,4.490,baseline
1463.000,288.500,66.010,22.990,1557.000,278.500,61.460,17.980,88.310,17.790,4.558,2.097,150.800,37.250,9.297,4.423,baseline
1436.000,282.100,64.420,22.420,1547.000,277.100,61.890,17.930,83.680,17.790,4.604,2.104,149.100,36.990,9.176,4.404,baseline
1433.000,284.100,64.360,22.520,1545.000,277.600,61.750,18.100,82.780,18.180,4.587,2.115,149.900,37.450,9.269,4.480,baseline
1439.000,284.000,65.410,22.620,1556.000,277.400,60.800,18.010,85.840,17.970,4.614,2.102,149.800,37.570,9.356,4.478,baseline
1435.000,283.000,65.650,22.580,1550.000,278.200,61.840,18.030,87.020,18.120,4.606,2.118,150.700,37.310,9.319,4.446,baseline
1437.000,284.200,66.800,22.820,1559.000,278.200,62.080,18.100,87.190,17.730,4.621,2.120,149.500,37.240,9.404,4.442,baseline
1449.000,284.900,65.550,22.900,1555.000,279.000,61.310,18.190,86.630,17.850,4.613,2.074,149.800,37.700,9.358,4.464,baseline
1455.000,289.200,65.860,23.040,1555.000,281.000,63.260,18.280,88.120,17.760,4.563,2.108,149.500,37.460,9.519,4.501,baseline
1463.000,290.400,67.310,23.210,1575.000,281.300,62.610,18.240,86.140,18.110,4.513,2.098,150.700,37.520,9.380,4.536,baseline
1459.000,286.900,65.690,22.820,1552.000,277.900,62.400,18.030,84.010,18.130,4.641,2.118,149.800,37.540,9.183,4.476,baseline
1429.000,282.200,64.080,22.550,1544.000,277.200,61.250,18.050,83.670,17.980,4.628,2.100,148.400,37.460,9.286,4.438,baseline
1430.000,282.200,64.720,22.520,1544.000,278.000,61.700,18.010,81.810,17.920,4.704,2.067,149.800,37.280,9.345,4.455,baseline
1432.000,284.900,62.760,22.640,1544.000,278.400,61.130,18.020,86.600,17.930,4.603,2.097,149.400,37.360,9.338,4.414,baseline
1429.000,283.500,64.460,22.540,1554.000,277.800,61.070,18.060,87.620,17.910,4.701,2.058,149.000,37.370,9.311,4.390,baseline
1434.000,285.500,65.380,22.620,1553.000,278.200,61.820,18.050,84.780,17.390,4.636,2.082,151.500,37.380,9.380,4.506,baseline
1444.000,285.900,66.060,22.890,1559.000,280.000,62.840,18.230,88.670,17.680,4.582,2.103,150.100,37.440,9.469,4.501,baseline
1453.000,289.400,67.730,22.940,1560.000,280.100,62.300,18.200,85.700,17.910,4.656,2.129,150.700,37.540,9.430,4.524,baseline
1460.000,290.700,68.470,23.200,1563.000,280.100,61.550,18.150,82.440,17.720,4.637,2.096,149.500,37.770,9.423,4.497,baseline
1442.000,284.900,65.170,22.540,1549.000,278.100,61.400,18.030,83.430,17.800,4.623,2.083,150.900,37.260,9.292,4.471,baseline
1425.000,281.100,65.850,22.410,1534.000,277.400,61.160,18.030,85.620,17.800,4.653,2.085,149.100,37.300,9.330,4.464,baseline
1428.000,280.700,63.310,22.750,1539.000,277.900,61.360,18.180,87.860,18.010,4.653,2.090,149.500,37.720,9.375,4.484,baseline
1431.000,282.700,65.040,22.610,1546.000,276.900,62.420,18.050,85.110,17.960,4.592,2.091,150.100,37.190,9.293,4.469,baseline
1429.000,282.000,65.270,22.560,1549.000,278.000,61.670,18.120,87.940,17.850,4.566,2.103,150.100,37.510,9.372,4.459,baseline
1435.000,284.900,63.630,22.760,1550.000,279.500,61.720,18.190,84.330,17.910,4.667,2.107,148.100,37.350,9.437,4.429,baseline
1444.000,286.000,65.390,22.910,1558.000,280.700,62.130,18.260,86.250,18.500,4.510,2.055,150.100,37.340,9.409,4.511,baseline
1454.000,287.600,65.860,23.160,1563.000,280.900,62.580,18.290,88.670,18.080,4.577,2.082,149.900,37.510,9.362,4.544,baseline
1462.000,290.200,66.650,23.290,1564.000,280.900,62.100,18.210,84.780,17.860,4.699,2.095,150.800,37.200,9.409,4.516,baseline
1442.000,283.900,64.970,22.560,1553.000,277.700,61.390,18.070,83.040,17.820,4.509,2.105,149.100,37.180,9.255,4.453,baseline
1427.000,281.400,65.580,22.540,1540.000,277.400,61.440,18.110,82.890,17.830,4.540,2.096,148.300,37.310,9.177,4.448,baseline
1434.000,283.000,65.340,22.840,1549.000,279.200,62.350,18.160,84.850,17.850,4.564,2.084,150.500,37.370,9.268,4.477,baseline
1433.000,280.600,65.510,22.570,1549.000,277.600,62.340,18.110,87.490,17.510,4.572,2.089,149.300,37.390,9.272,4.497,baseline
1430.000,281.800,65.280,22.670,1546.000,279.000,62.030,18.040,83.300,17.530,4.622,2.087,149.800,37.690,9.336,4.445,baseline
1441.000,284.800,65.030,22.870,1555.000,279.700,62.320,18.210,88.700,17.790,4.611,2.094,148.300,37.250,9.260,4.477,baseline
1449.000,285.400,65.440,23.050,1562.000,280.400,62.560,18.300,81.410,17.720,4.642,2.101,149.300,37.210,9.446,4.455,baseline
1455.000,287.700,65.830,23.070,1562.000,280.800,63.550,18.290,84.240,17.730,4.606,2.116,149.700,37.770,9.385,4.495,baseline
1464.000,291.200,67.160,23.240,1561.000,279.500,62.170,18.210,86.590,17.860,4.661,2.114,150.000,37.540,9.437,4.468,baseline
1436.000,282.800,64.890,22.670,1554.000,278.400,61.520,18.070,84.330,17.760,4.563,2.126,149.500,37.120,9.324,4.423,baseline
1432.000,282.700,64.490,22.690,1551.000,278.700,61.370,18.220,85.900,18.020,4.553,2.084,148.300,37.290,9.275,4.473,baseline
1442.000,284.500,64.230,22.940,1553.000,279.500,61.520,18.080,82.390,17.730,4.642,2.112,150.100,37.320,9.261,4.448,baseline
1439.000,286.700,66.700,22.720,1550.000,278.300,61.490,18.080,83.060,17.870,4.511,2.103,148.500,37.370,9.340,4.466,baseline
1440.000,283.900,64.860,22.870,1557.000,279.700,61.470,18.160,88.210,17.760,4.623,2.074,149.000,37.360,9.302,4.455,baseline
1450.000,286.700,66.780,23.010,1564.000,281.100,62.210,18.150,86.400,17.880,4.615,2.083,149.500,37.620,9.383,4.484,baseline
1461.000,289.100,68.500,23.240,1575.000,281.100,62.200,18.380,86.090,17.820,4.672,2.101,150.300,37.730,9.334,4.531,baseline
1471.000,292.800,66.540,23.370,1570.000,282.300,61.750,18.250,87.700,17.590,4.572,2.099,150.200,37.560,9.439,4.532,baseline
1463.000,286.800,65.480,22.840,1550.000,278.200,61.770,18.030,89.670,17.680,4.600,2.118,149.700,37.020,9.290,4.468,baseline
1433.000,282.500,65.800,22.620,1540.000,276.800,61.370,18.030,86.570,17.700,4.593,2.073,149.500,37.380,9.346,4.486,baseline
1434.000,282.800,64.720,22.640,1551.000,278.600,61.940,18.040,81.690,17.690,4.655,2.056,151.000,37.050,9.285,4.410,baseline
1439.000,283.700,66.130,22.600,1550.000,278.700,61.640,18.040,87.600,18.030,4.618,2.087,149.500,37.460,9.239,4.472,baseline
1433.000,284.900,64.990,22.660,1553.000,278.500,62.000,18.090,86.230,17.880,4.620,2.094,149.900,37.300,9.337,4.416,baseline
1439.000,285.800,64.330,22.810,1558.000,279.300,62.500,18.160,86.080,18.110,4.609,2.080,150.300,37.510,9.302,4.534,baseline
1450.000,288.200,66.410,23.060,1562.000,280.200,61.910,18.260,86.770,17.970,4.646,2.085,149.000,37.350,9.294,4.480,baseline
1460.000,289.300,66.580,23.170,1563.000,282.400,62.680,18.260,86.640,18.100,4.564,2.111,150.000,37.520,9.479,4.488,baseline
1470.000,291.200,67.150,23.260,1575.000,281.300,62.820,18.090,88.140,17.730,4.630,2.115,150.300,37.450,9.378,4.505,baseline
1439.000,281.600,65.690,22.400,1551.000,278.400,61.310,17.950,85.030,18.070,4.579,2.108,149.200,37.160,9.223,4.493,baseline
1428.000,282.800,64.040,22.620,1541.000,277.700,60.680,18.050,86.900,17.880,4.580,2.080,149.500,36.870,9.105,4.408,baseline
1434.000,282.800,64.850,22.670,1545.000,278.100,61.800,18.070,85.990,17.670,4.641,2.096,149.700,37.080,9.259,4.499,baseline
1432.000,283.300,64.160,22.610,1552.000,277.600,61.140,18.060,89.970,17.720,4.535,2.064,149.400,37.220,9.183,4.427,baseline
1431.000,282.100,64.290,22.690,1552.000,278.600,60.390,18.100,87.890,17.360,4.610,2.128,148.600,37.240,9.268,4.465,baseline
1440.000,286.400,65.440,22.840,1562.000,279.000,61.710,18.140,85.020,17.720,4.651,2.083,147.700,37.160,9.358,4.508,baseline
1449.000,286.800,66.340,22.950,1565.000,281.200,62.850,18.250,86.660,17.730,4.558,2.083,150.500,37.370,9.440,4.480,baseline
1460.000,291.800,65.450,23.210,1563.000,281.400,62.520,18.280,83.270,17.860,4.600,2.074,151.100,37.210,9.288,4.470,baseline
1469.000,291.700,66.840,23.130,1560.000,279.400,62.570,18.020,83.830,17.650,4.586,2.068,150.100,37.230,9.216,4.457,baseline
1432.000,280.800,64.920,22.560,1549.000,277.200,60.870,17.980,85.840,17.950,4.582,2.070,149.300,37.150,9.195,4.413,baseline
1427.000,283.600,64.950,22.600,1545.000,277.300,61.630,18.030,83.340,17.680,4.652,2.087,149.100,37.220,9.179,4.424,baseline
1435.000,283.200,65.170,22.630,1551.000,278.500,61.040,18.010,85.770,17.840,4.530,2.059,149.500,37.160,9.154,4.403,baseline
1431.000,283.300,64.640,22.540,1547.000,276.600,61.420,18.030,83.830,17.760,4.572,2.099,148.300,37.140,9.167,4.425,baseline
1432.000,283.200,64.850,22.790,1547.000,278.500,61.970,18.140,85.310,17.880,4.611,2.101,148.900,36.960,9.271,4.430,baseline
1442.000,285.600,65.120,22.910,1554.000,278.800,62.660,18.100,82.400,17.620,4.555,2.072,149.100,36.980,9.350,4.443,baseline
1451.000,287.100,65.680,23.010,1553.000,281.300,62.350,18.230,84.780,17.800,4.578,2.093,149.100,37.080,9.194,4.474,baseline
1459.000,288.500,66.680,23.170,1561.000,280.400,62.760,18.330,87.030,17.750,4.536,2.086,149.000,37.660,9.219,4.504,baseline
1465.000,289.500,65.550,22.990,1552.000,278.300,61.060,17.990,83.750,17.620,4.546,2.073,149.800,37.130,9.307,4.438,baseline
1430.000,281.900,63.310,22.510,1544.000,276.800,60.780,18.000,86.920,17.730,4.562,2.086,148.600,37.110,9.126,4.433,baseline
1431.000,282.000,65.360,22.730,1549.000,279.300,61.280,18.050,79.970,17.680,4.534,2.106,149.600,36.940,9.184,4.450,baseline
1440.000,287.700,66.320,22.750,1555.000,277.500,61.750,17.960,89.530,17.520,4.580,2.086,149.500,37.090,9.327,4.457,baseline
1432.000,282.100,65.780,22.610,1544.000,277.700,61.070,18.050,86.650,17.330,4.550,2.061,148.900,37.060,9.133,4.453,baseline
1437.000,282.400,66.470,22.740,1546.000,278.900,61.250,18.070,90.200,17.640,4.596,2.043,150.000,37.160,9.171,4.468,baseline
1447.000,287.000,66.360,22.910,1563.000,278.400,61.970,18.160,86.270,17.900,4.654,2.077,150.500,36.940,9.190,4.410,baseline
1456.000,288.300,65.690,23.080,1562.000,281.400,62.710,18.220,84.970,17.770,4.522,2.083,149.500,37.590,9.195,4.460,baseline
1467.000,291.200,66.050,23.280,1565.000,281.400,62.740,18.060,84.770,18.000,4.561,2.078,149.600,37.710,9.341,4.462,baseline
1445.000,281.500,64.740,22.640,1541.000,276.700,61.780,17.890,85.920,17.770,4.480,2.076,149.300,37.130,9.175,4.427,baseline
1423.000,281.300,64.590,22.350,1547.000,275.800,60.970,17.990,87.490,17.560,4.442,2.070,148.100,36.970,9.159,4.401,baseline
1429.000,281.100,64.830,22.690,1537.000,276.900,61.920,18.020,84.470,17.610,4.690,2.057,150.000,37.350,9.205,4.398,baseline
1431.000,284.000,63.070,22.440,1542.000,276.200,60.930,17.950,85.330,17.670,4.569,2.077,148.300,36.930,9.135,4.395,baseline
1426.000,281.900,64.400,22.420,1544.000,276.700,61.750,18.030,84.850,17.480,4.496,2.052,147.800,37.050,9.319,4.416,baseline
1433.000,283.200,65.990,22.780,1550.000,278.400,60.990,18.050,84.170,17.630,4.535,2.066,149.200,37.200,9.463,4.430,baseline
1444.000,285.800,66.920,22.900,1563.000,280.000,61.950,18.150,82.420,17.600,4.671,2.071,150.300,37.220,9.348,4.443,baseline
1453.000,286.700,66.240,23.050,1563.000,280.400,61.500,18.220,85.830,17.510,4.552,2.078,149.300,37.060,9.350,4.493,baseline
1461.000,287.000,66.280,22.990,1557.000,277.800,61.000,17.990,84.790,17.590,4.560,2.093,148.100,37.160,9.231,4.444,baseline
1424.000,279.200,62.070,22.390,1537.000,275.400,60.170,17.830,86.530,17.590,4.597,2.062,147.800,37.000,9.224,4.371,baseline
1416.000,280.800,64.830,22.310,1540.000,276.700,60.900,17.880,86.130,17.410,4.510,2.062,148.700,36.980,9.262,4.419,baseline
1424.000,280.200,63.170,22.380,1544.000,276.200,61.830,17.850,83.540,17.550,4.571,2.076,148.600,36.740,9.126,4.414,baseline
1418.000,280.200,64.340,22.330,1540.000,275.500,61.880,17.910,88.850,17.320,4.540,2.068,147.900,36.960,9.190,4.409,baseline
1420.000,279.400,64.740,22.400,1542.000,276.300,61.480,17.930,86.480,17.440,4.541,2.052,148.800,36.370,9.311,4.388,baseline
1428.000,281.800,63.710,22.570,1545.000,277.800,62.090,18.010,84.300,17.560,4.561,2.097,148.200,36.950,9.257,4.382,baseline
1438.000,285.100,64.420,22.820,1543.000,278.300,62.000,18.140,83.930,17.560,4.568,2.075,149.600,37.130,9.243,4.479,baseline
1447.000,283.900,66.600,22.990,1555.000,279.800,61.350,18.150,86.810,17.860,4.496,2.087,149.400,37.180,9.181,4.452,baseline
1450.000,286.200,64.770,22.700,1540.000,277.100,61.070,17.820,82.720,17.750,4.544,2.055,148.900,36.700,9.063,4.379,baseline
1413.000,279.500,64.640,22.060,1525.000,274.300,60.900,17.820,88.420,17.720,4.560,2.082,147.900,36.730,9.028,4.400,baseline
1414.000,276.700,64.520,22.350,1532.000,275.300,60.170,17.930,86.120,17.480,4.594,2.045,146.800,37.190,9.130,4.393,baseline
1419.000,278.100,64.450,22.370,1534.000,275.800,61.300,17.910,87.270,17.480,4.512,2.054,146.900,36.830,9.127,4.412,baseline
1414.000,278.900,64.640,22.270,1536.000,274.900,61.570,17.850,81.650,17.440,4.517,2.057,148.500,36.580,9.144,4.336,baseline
1417.000,280.700,62.460,22.370,1543.000,276.200,60.750,17.910,84.920,17.720,4.532,2.058,147.500,36.590,9.050,4.446,baseline
1427.000,281.200,63.140,22.660,1539.000,277.300,61.850,18.060,84.330,17.450,4.538,2.064,147.000,36.840,9.155,4.400,baseline
1437.000,283.200,64.410,22.740,1551.000,277.300,61.970,18.100,84.990,17.570,4.572,2.074,149.300,36.760,9.264,4.435,baseline
1445.000,287.700,66.550,22.900,1552.000,278.700,61.590,18.120,84.700,17.590,4.638,2.102,147.700,36.980,9.300,4.483,baseline
1446.000,284.100,65.470,22.570,1542.000,276.200,61.340,17.870,85.470,17.810,4.516,2.077,148.700,36.940,9.204,4.412,baseline
1413.000,277.300,63.430,22.310,1533.000,274.700,61.180,17.820,86.100,17.410,4.576,2.051,148.700,36.520,9.143,4.396,baseline
1415.000,277.900,65.630,22.270,1544.000,276.700,61.180,17.930,84.880,17.560,4.549,2.057,147.900,36.690,9.070,4.459,baseline
1423.000,281.400,64.310,22.300,1535.000,276.800,60.640,17.880,84.710,18.180,4.545,2.075,148.400,36.520,8.978,4.406,baseline
1414.000,276.500,64.880,22.300,1535.000,274.400,60.500,17.900,85.510,17.750,4.619,2.049,148.400,36.780,9.093,4.404,baseline
1420.000,279.700,65.230,22.390,1542.000,277.900,60.670,17.960,86.840,17.820,4.545,2.055,147.100,36.610,9.090,4.418,baseline
1429.000,282.600,64.640,22.710,1545.000,277.600,61.920,18.090,85.780,17.300,4.657,2.070,148.800,36.820,9.228,4.414,baseline
1437.000,282.300,65.400,22.740,1558.000,278.300,61.750,18.110,84.040,17.780,4.664,2.059,149.300,37.180,9.180,4.512,baseline
1446.000,285.400,64.990,22.850,1549.000,276.500,61.310,17.920,87.650,17.680,4.525,2.056,148.900,36.920,9.154,4.424,baseline
1420.000,277.400,63.560,22.200,1535.000,275.200,61.330,17.760,84.500,17.690,4.555,2.076,148.200,36.960,9.111,4.465,baseline
1406.000,279.400,62.890,22.270,1527.000,274.300,60.520,17.850,86.850,17.500,4.553,2.076,148.900,36.890,9.103,4.359,baseline
1412.000,278.700,63.350,22.320,1533.000,274.900,60.330,17.860,82.790,17.890,4.521,2.077,147.700,36.590,9.357,4.417,baseline
1411.000,278.900,63.960,22.170,1531.000,273.400,61.060,17.900,87.470,17.710,4.550,2.107,148.800,36.890,9.293,4.380,baseline
1411.000,279.000,64.570,22.440,1539.000,276.200,61.010,18.010,84.660,17.420,4.601,2.088,146.500,36.730,9.138,4.385,baseline
1419.000,280.200,64.010,22.420,1538.000,277.400,60.900,18.010,83.990,17.490,4.542,2.096,149.000,36.780,9.277,4.424,baseline
1427.000,281.200,65.280,22.560,1540.000,276.800,61.380,17.960,85.530,17.820,4.523,2.067,150.500,36.920,9.355,4.384,baseline
1438.000,283.800,65.890,22.850,1544.000,278.900,61.510,18.110,84.350,17.520,4.587,2.100,148.200,37.110,9.284,4.426,baseline
1447.000,286.000,65.240,22.730,1547.000,276.900,61.150,17.930,86.030,17.580,4.534,2.072,149.700,37.160,9.118,4.405,baseline
1410.000,278.200,64.210,22.030,1525.000,274.300,60.950,17.810,81.320,17.790,4.514,2.095,147.500,36.830,9.175,4.385,baseline
1402.000,275.800,63.630,22.170,1530.000,274.600,61.200,17.860,81.120,17.900,4.560,2.104,149.100,36.640,9.191,4.420,baseline
1408.000,277.100,63.240,22.140,1532.000,274.500,61.200,17.820,88.780,17.390,4.618,2.091,148.600,36.880,9.272,4.384,baseline
1403.000,276.000,62.660,22.060,1527.000,274.700,60.840,17.770,86.140,17.730,4.613,2.075,149.000,36.700,9.100,4.412,baseline
1404.000,277.300,61.740,22.160,1532.000,274.800,60.690,17.900,82.630,17.660,4.610,2.077,148.500,36.710,8.933,4.437,baseline
1412.000,279.800,62.910,22.370,1534.000,275.900,60.940,17.970,83.950,17.550,4.555,2.065,149.700,36.960,9.236,4.409,baseline
1423.000,283.300,64.420,22.530,1541.000,276.600,61.220,18.020,83.920,17.890,4.615,2.080,150.100,36.960,9.162,4.486,baseline
1430.000,282.600,66.120,22.700,1545.000,278.000,61.270,18.130,87.190,17.410,4.619,2.091,149.700,37.600,9.307,4.477,baseline
1439.000,284.900,65.920,22.550,1538.000,275.600,61.320,17.820,85.980,18.060,4.596,2.107,150.800,37.180,9.187,4.402,baseline
1404.000,275.800,63.700,21.940,1530.000,273.900,60.620,17.800,84.490,18.170,4.532,2.070,149.400,37.100,9.184,4.434,baseline
1398.000,274.300,62.800,22.020,1526.000,275.100,60.850,17.850,84.760,17.820,4.491,2.104,149.400,36.830,9.154,4.395,baseline
1405.000,277.300,65.240,22.050,1524.000,275.300,60.390,17.840,86.230,17.700,4.633,2.085,149.300,36.560,9.246,4.395,baseline
1401.000,275.300,62.770,22.030,1528.000,274.100,60.400,17.800,86.020,17.840,4.576,2.088,148.700,37.080,9.231,4.455,baseline
1403.000,277.500,62.610,22.260,1534.000,274.800,61.750,17.900,86.140,18.080,4.555,2.063,148.700,37.320,9.109,4.459,baseline
1412.000,279.800,64.240,22.400,1540.000,275.600,61.470,18.040,83.040,17.800,4.598,2.084,148.300,37.260,9.224,4.395,baseline
1422.000,279.200,65.100,22.400,1540.000,277.100,61.770,18.070,88.960,17.600,4.599,2.108,150.200,37.130,9.364,4.435,baseline
1431.000,284.000,64.610,22.770,1549.000,278.100,62.760,18.150,86.840,17.900,4.670,2.125,148.900,37.580,9.392,4.522,baseline
1442.000,284.500,65.440,22.610,1546.000,277.500,61.640,17.950,83.550,17.860,4.577,2.095,150.200,36.980,9.243,4.435,baseline
1407.000,275.400,63.100,22.050,1536.000,273.700,60.460,17.770,86.340,18.030,4.561,2.090,148.400,37.180,9.226,4.392,baseline
1400.000,276.300,64.470,22.210,1530.000,275.500,60.980,17.910,84.400,17.830,4.582,2.079,147.600,36.850,9.195,4.414,baseline
1410.000,277.500,64.610,22.260,1532.000,274.700,60.600,17.960,84.740,18.090,4.600,2.080,150.500,37.280,9.213,4.429,baseline
1405.000,277.600,63.120,22.150,1527.000,276.100,60.760,17.850,88.640,17.710,4.688,2.081,148.600,36.980,9.144,4.457,baseline
1405.000,278.200,64.390,22.170,1531.000,275.500,61.730,17.880,83.210,17.830,4.640,2.093,149.600,37.090,9.345,4.448,baseline
1414.000,279.300,65.230,22.510,1539.000,276.600,61.470,18.020,84.290,17.690,4.636,2.062,150.200,37.460,9.246,4.453,baseline
1424.000,283.000,62.320,22.620,1549.000,278.300,61.680,18.120,82.600,17.660,4.622,2.112,148.300,37.530,9.193,4.458,baseline
1434.000,282.400,64.410,22.820,1547.000,278.800,62.150,18.050,87.410,17.910,4.722,2.116,149.600,37.720,9.192,4.453,baseline
1426.000,281.200,63.070,22.210,1534.000,274.100,61.790,17.900,85.340,17.770,4.625,2.101,148.700,37.040,9.140,4.438,baseline
1395.000,273.000,61.830,22.070,1539.000,273.800,60.230,17.820,84.030,17.820,4.531,2.073,148.600,36.880,9.116,4.396,baseline
1400.000,277.000,62.360,22.180,1541.000,274.800,60.710,17.900,86.280,17.760,4.586,2.094,148.600,37.200,9.271,4.435,baseline
1406.000,277.800,64.110,22.030,1526.000,275.200,60.760,17.850,85.010,18.000,4.559,2.098,149.700,37.000,9.124,4.415,baseline
1399.000,275.900,63.900,22.040,1527.000,274.800,59.940,17.870,85.500,17.640,4.558,2.113,148.000,37.330,9.138,4.458,baseline
1405.000,276.600,63.450,22.360,1538.000,275.600,60.600,17.930,88.760,17.740,4.656,2.100,148.900,37.210,9.203,4.426,baseline
1416.000,278.100,64.620,22.430,1542.000,277.300,60.990,18.030,85.180,18.120,4.593,2.116,149.300,37.000,9.208,4.477,baseline
1427.000,280.900,65.790,22.570,1542.000,277.800,61.360,18.090,84.370,17.580,4.639,2.123,149.300,37.250,9.310,4.470,baseline
1436.000,282.300,66.370,22.620,1541.000,277.000,61.350,17.900,83.460,17.610,4.687,2.120,148.700,37.040,9.380,4.438,baseline
1402.000,276.900,64.330,22.070,1526.000,273.500,60.920,17.750,86.440,17.560,4.636,2.088,149.800,36.750,9.113,4.353,baseline
1389.000,273.100,62.610,22.000,1527.000,273.900,60.950,17.750,82.680,17.600,4.627,2.090,148.300,36.500,9.271,4.383,baseline
1392.000,275.200,62.390,21.870,1531.000,274.300,61.260,17.770,86.300,17.760,4.648,2.074,148.600,37.140,9.051,4.411,baseline
1389.000,275.100,61.240,21.920,1518.000,273.400,60.880,17.780,88.250,17.880,4.564,2.061,148.100,36.760,9.156,4.402,baseline
1388.000,275.700,62.100,21.930,1523.000,274.200,60.870,17.790,87.060,17.720,4.626,2.065,148.100,36.860,9.061,4.391,baseline
1397.000,275.900,62.000,22.080,1528.000,275.300,61.260,17.860,85.600,17.730,4.611,2.071,147.600,36.700,9.108,4.380,baseline
1405.000,277.600,63.110,22.270,1541.000,276.300,61.850,18.070,84.750,17.840,4.613,2.073,148.400,36.750,9.160,4.416,baseline
1416.000,278.800,65.200,22.360,1537.000,277.500,62.100,18.020,84.760,17.670,4.617,2.076,148.500,37.080,9.105,4.452,baseline
1419.000,278.800,63.800,22.180,1531.000,275.600,60.460,17.740,86.420,17.730,4.569,2.101,148.100,36.810,9.124,4.404,baseline
1380.000,271.500,61.370,21.660,1518.000,272.200,60.680,17.670,84.540,17.500,4.626,2.066,148.200,36.640,8.895,4.308,baseline
1377.000,271.800,62.320,21.760,1514.000,273.000,60.980,17.740,86.970,17.700,4.594,2.082,146.700,36.720,9.123,4.334,baseline
1383.000,270.900,61.560,21.680,1522.000,273.200,60.210,17.720,84.930,17.510,4.513,2.109,147.500,36.210,8.973,4.374,baseline
1377.000,272.000,61.260,21.750,1518.000,271.800,60.860,17.750,83.700,17.640,4.642,2.058,147.000,36.500,9.075,4.363,baseline
1379.000,272.400,62.820,21.830,1521.000,273.900,61.650,17.760,84.930,17.650,4.603,2.099,146.900,36.520,9.019,4.376,baseline
1390.000,274.700,62.920,22.070,1529.000,274.600,61.480,17.870,83.520,17.690,4.561,2.086,147.900,36.450,9.007,4.407,baseline
1400.000,277.500,62.580,22.160,1533.000,275.100,61.490,17.980,85.820,17.680,4.585,2.084,147.300,36.910,9.086,4.423,baseline
1409.000,277.300,64.080,22.350,1542.000,277.400,61.500,18.100,81.100,17.780,4.579,2.099,147.600,36.330,9.007,4.418,baseline
1409.000,276.300,63.800,21.950,1530.000,273.100,60.060,17.850,82.900,17.780,4.546,2.084,147.400,36.430,8.965,4.364,baseline
1373.000,270.000,63.580,21.620,1512.000,273.300,60.250,17.790,86.210,18.050,4.572,2.055,147.100,36.460,9.048,4.312,baseline
1374.000,271.000,61.110,21.830,1521.000,273.500,60.590,17.840,85.730,17.770,4.483,2.063,146.000,35.990,9.082,4.361,baseline
1382.000,271.500,62.750,21.820,1520.000,273.400,60.810,17.820,86.880,17.410,4.509,2.086,146.300,36.230,9.036,4.361,baseline
1375.000,268.100,62.200,21.720,1514.000,273.200,60.420,17.850,82.800,17.540,4.569,2.062,146.200,36.520,8.933,4.345,baseline
1379.000,273.200,61.110,21.870,1528.000,274.500,60.250,17.840,84.120,17.770,4.563,2.078,145.800,36.070,9.022,4.412,baseline
1390.000,274.400,62.660,22.050,1529.000,275.600,61.760,17.940,82.990,17.900,4.505,2.104,145.700,36.300,9.090,4.331,baseline
1400.000,275.000,63.880,22.140,1534.000,275.500,62.050,18.100,84.780,17.600,4.515,2.109,146.200,36.450,9.133,4.378,baseline
1407.000,276.800,61.810,22.440,1547.000,276.900,60.770,18.000,86.840,17.540,4.611,2.058,147.300,36.280,9.040,4.430,baseline
1395.000,273.600,61.440,21.830,1523.000,272.600,60.060,17.700,86.810,17.860,4.567,2.046,146.900,36.170,9.095,4.374,baseline
1372.000,271.300,62.440,21.720,1516.000,272.800,60.550,17.760,86.910,17.500,4.589,2.081,146.600,35.960,8.945,4.371,baseline
1381.000,273.300,61.300,22.090,1521.000,274.700,61.020,17.950,86.280,17.540,4.569,2.090,146.900,36.190,8.886,4.343,baseline
1385.000,272.200,62.420,21.840,1521.000,273.800,60.640,17.780,87.690,17.760,4.582,2.071,146.300,36.240,8.980,4.405,baseline
1380.000,272.500,61.900,21.870,1522.000,273.500,59.590,17.940,83.620,18.030,4.552,2.093,147.300,36.430,9.024,4.327,baseline
1390.000,275.100,62.580,22.090,1530.000,275.900,60.800,17.980,88.420,17.900,4.548,2.077,146.500,36.220,9.127,4.353,baseline
1398.000,276.000,64.660,22.250,1538.000,277.000,61.640,18.020,84.760,17.640,4.548,2.067,147.900,36.370,9.058,4.387,baseline
1409.000,279.200,65.130,22.500,1544.000,278.200,61.920,18.100,83.380,17.480,4.586,2.075,146.400,36.600,9.088,4.487,baseline
1419.000,280.000,63.260,22.220,1530.000,275.800,60.390,17.840,85.680,18.180,4.588,2.102,146.900,36.810,8.929,4.349,baseline
1374.000,271.100,63.360,21.610,1520.000,273.800,61.380,17.780,82.280,17.820,4.602,2.062,146.200,36.720,8.994,4.370,baseline
1371.000,271.800,62.300,21.780,1518.000,274.100,61.210,17.870,90.760,17.520,4.570,2.066,146.100,36.510,9.006,4.390,baseline
1377.000,273.900,61.080,21.840,1521.000,273.400,61.160,17.740,85.250,17.900,4.560,2.086,146.800,36.300,9.146,4.360,baseline
1373.000,272.100,61.320,21.790,1517.000,273.300,60.740,17.810,86.460,17.830,4.596,2.084,146.400,36.350,8.990,4.281,baseline
1376.000,272.400,63.070,21.830,1526.000,273.900,60.140,17.850,87.150,17.510,4.552,2.085,145.600,36.130,8.948,4.341,baseline
1384.000,274.500,62.860,22.040,1535.000,274.700,60.690,17.930,85.810,17.610,4.659,2.114,146.500,36.450,8.904,4.372,baseline
1394.000,276.400,64.730,22.230,1536.000,276.300,60.600,18.040,88.580,17.750,4.605,2.101,148.000,36.420,9.175,4.412,baseline
1404.000,277.700,63.380,22.340,1532.000,276.300,60.430,17.960,82.970,17.750,4.597,2.091,146.500,36.590,9.004,4.410,baseline
1386.000,272.700,62.040,21.740,1518.000,272.700,59.590,17.780,87.200,17.750,4.541,2.077,146.700,35.910,8.887,4.278,baseline
1360.000,268.000,60.050,21.450,1509.000,271.800,60.460,17.760,85.030,17.730,4.576,2.066,146.800,35.710,9.052,4.286,baseline
1363.000,270.900,61.820,21.570,1513.000,273.200,61.450,17.790,85.960,17.920,4.628,2.080,145.600,36.250,8.956,4.299,baseline
1366.000,268.400,62.700,21.590,1517.000,272.600,60.450,17.760,86.960,17.870,4.602,2.084,144.700,36.260,8.951,4.319,baseline
1361.000,269.400,60.880,21.610,1517.000,271.200,60.740,17.820,87.320,17.730,4.587,2.092,146.400,35.950,8.962,4.285,baseline
1368.000,271.300,61.890,21.720,1526.000,274.100,60.890,17.920,85.770,17.800,4.563,2.074,145.800,35.950,8.940,4.312,baseline
1377.000,271.700,62.930,21.930,1529.000,274.500,60.880,17.870,88.200,17.860,4.534,2.094,145.900,36.450,9.065,4.397,baseline
1385.000,273.800,62.210,22.150,1524.000,275.500,60.690,18.040,90.900,17.660,4.577,2.066,147.500,36.740,9.028,4.399,baseline
1394.000,274.300,64.340,21.870,1523.000,274.300,60.870,17.730,82.080,18.140,4.539,2.099,146.900,36.570,8.956,4.337,baseline
1359.000,266.700,61.500,21.310,1516.000,272.000,60.410,17.680,88.250,17.690,4.582,2.090,144.800,35.840,8.902,4.289,baseline
1352.000,268.500,61.900,21.260,1512.000,271.700,60.260,17.700,85.120,17.830,4.650,2.052,145.900,36.250,8.937,4.333,baseline
1359.000,268.200,61.760,21.490,1511.000,271.700,60.220,17.670,86.600,17.760,4.565,2.084,145.500,36.100,8.846,4.285,baseline
1356.000,267.500,63.110,21.360,1517.000,271.700,59.630,17.760,90.440,17.840,4.570,2.082,145.500,36.200,9.001,4.320,baseline
1358.000,267.500,60.870,21.630,1521.000,272.800,60.700,17.820,84.570,17.550,4.537,2.075,146.500,36.200,8.774,4.293,baseline
1367.000,269.800,61.410,21.630,1517.000,273.200,60.550,17.910,87.900,18.010,4.607,2.093,145.900,36.540,8.992,4.313,baseline
1377.000,273.700,62.270,21.870,1529.000,274.800,60.270,17.960,83.470,17.870,4.620,2.103,147.500,36.400,9.135,4.450,baseline
1387.000,272.800,61.180,22.130,1530.000,274.900,61.630,17.990,85.290,17.740,4.673,2.088,145.700,36.560,9.047,4.417,baseline
1385.000,272.400,61.830,21.600,1518.000,271.400,60.820,17.720,86.920,17.570,4.551,2.078,145.900,36.490,9.042,4.299,baseline
1355.000,266.300,60.430,21.420,1513.000,272.100,60.050,17.780,83.150,17.670,4.551,2.067,146.900,36.080,8.966,4.301,baseline
1360.000,268.300,61.250,21.630,1516.000,272.800,61.630,17.850,85.300,18.020,4.613,2.100,147.000,36.150,8.954,4.334,baseline
1366.000,270.700,61.530,21.580,1526.000,271.300,59.780,17.770,82.650,17.650,4.532,2.087,145.600,36.300,8.970,4.338,baseline
1360.000,268.600,61.530,21.540,1518.000,271.700,60.590,17.850,86.030,17.790,4.582,2.073,145.300,36.520,8.996,4.388,baseline
1366.000,270.200,62.150,21.670,1531.000,274.100,60.750,17.890,84.190,18.130,4.515,2.095,145.800,36.360,9.074,4.359,baseline
1374.000,270.900,62.680,21.930,1526.000,274.700,60.070,17.920,86.310,18.010,4.626,2.091,146.400,36.270,9.029,4.387,baseline
1385.000,273.300,61.640,21.940,1532.000,275.000,61.150,18.050,84.060,17.890,4.584,2.128,147.800,37.030,9.122,4.362,baseline
1393.000,274.000,63.030,21.980,1535.000,273.300,60.880,17.780,85.430,17.940,4.625,2.096,148.100,36.480,9.039,4.405,baseline
1360.000,267.500,61.670,21.380,1511.000,272.100,59.970,17.720,87.910,18.000,4.542,2.108,144.700,36.560,9.005,4.363,baseline
1357.000,267.900,61.320,21.570,1520.000,274.000,60.600,17.820,83.200,17.680,4.567,2.088,147.100,36.500,8.989,4.368,baseline
1368.000,270.400,61.480,21.600,1520.000,273.800,61.210,17.750,87.030,17.340,4.658,2.102,145.800,36.350,8.852,4.303,baseline
1362.000,268.200,62.500,21.510,1522.000,272.200,60.930,17.810,85.470,17.920,4.587,2.121,147.000,36.690,9.113,4.295,baseline
1365.000,269.000,62.020,21.730,1521.000,273.300,60.310,17.850,84.830,17.900,4.645,2.093,147.000,36.260,9.059,4.359,baseline
1375.000,270.900,62.230,21.810,1520.000,275.600,61.230,17.970,87.550,17.840,4.615,2.104,146.900,36.670,8.981,4.383,baseline
1384.000,273.800,63.100,21.920,1533.000,276.200,61.310,18.030,87.710,17.810,4.584,2.092,148.000,36.800,9.092,4.384,baseline
1392.000,275.500,63.740,22.210,1540.000,276.800,61.740,18.000,86.200,17.950,4.653,2.100,148.600,36.760,9.149,4.392,baseline
1382.000,270.200,63.360,21.420,1531.000,272.300,60.310,17.750,86.920,17.820,4.546,2.086,148.200,36.540,9.026,4.296,baseline
1356.000,267.600,61.080,21.330,1515.000,272.200,59.490,17.740,83.990,17.930,4.613,2.105,146.800,36.340,8.920,4.313,baseline
1359.000,267.800,61.200,21.500,1513.000,273.300,60.080,17.880,86.860,17.770,4.591,2.082,145.400,36.520,8.974,4.345,baseline
1362.000,266.500,60.160,21.490,1517.000,272.900,60.560,17.840,86.280,17.770,4.487,2.096,147.200,36.540,9.071,4.314,baseline
1359.000,267.400,60.900,21.560,1517.000,273.100,60.730,17.830,84.950,18.140,4.620,2.104,145.400,36.220,8.956,4.332,baseline
1365.000,270.600,61.110,21.690,1525.000,274.100,61.230,17.890,85.430,17.770,4.564,2.101,146.400,36.830,9.108,4.337,baseline
1373.000,270.400,62.050,21.500,1531.000,273.200,61.080,17.760,84.560,17.970,4.613,2.092,147.400,36.700,8.984,4.365,baseline
1380.000,271.300,61.430,21.450,1525.000,273.500,60.600,17.470,86.770,17.900,4.666,2.092,148.200,36.550,9.044,4.352,baseline
1386.000,272.600,61.320,21.120,1530.000,271.000,59.860,16.780,83.900,18.160,4.597,2.024,148.000,36.760,8.876,4.198,baseline
1366.000,260.800,60.090,19.490,1499.000,263.100,56.880,15.850,86.550,18.090,4.593,1.947,150.200,36.550,8.763,4.028,baseline
1351.000,258.000,56.000,18.760,1493.000,260.100,55.160,15.490,85.370,18.040,4.393,1.934,148.800,36.090,8.564,3.905,baseline
1353.000,257.000,55.000,18.730,1498.000,258.500,54.860,15.420,88.410,17.690,4.337,1.897,148.900,35.770,8.513,3.896,baseline
1344.000,254.500,56.210,18.470,1483.000,257.600,54.890,15.440,83.110,17.830,4.318,1.871,150.400,36.180,8.522,3.951,baseline
1336.000,252.300,56.540,18.620,1490.000,257.800,55.590,15.340,83.970,17.660,4.349,1.875,147.400,36.100,8.412,3.792,baseline
1335.000,254.200,54.180,17.850,1481.000,247.600,53.520,14.420,85.820,17.460,4.260,1.809,147.500,35.690,8.070,3.566,baseline
1350.000,242.800,52.310,17.040,1472.000,243.400,52.580,13.800,85.240,18.250,4.369,1.690,150.600,36.710,8.114,3.310,baseline
1325.000,236.800,50.220,16.280,1434.000,234.100,50.920,13.300,84.180,18.520,4.205,1.612,149.000,35.910,7.809,3.134,baseline
1284.000,231.100,49.200,15.850,1419.000,229.700,48.960,13.140,85.800,18.060,4.127,1.560,146.100,35.640,7.590,3.123,baseline
1291.000,224.200,45.780,15.640,1451.000,229.000,47.990,13.480,88.040,17.830,3.916,1.568,144.100,33.870,7.297,3.218,baseline
1308.000,225.200,47.560,16.420,1467.000,238.700,51.100,14.300,81.580,16.630,3.821,1.624,142.100,33.290,7.348,3.384,baseline
1314.000,235.100,50.390,17.350,1472.000,245.400,53.020,14.780,84.960,16.820,3.929,1.690,143.600,33.670,7.466,3.467,baseline
1302.000,240.000,52.120,17.830,1449.000,248.800,52.750,15.560,79.020,16.510,3.955,1.748,143.100,33.770,7.693,3.592,baseline
1280.000,244.300,54.050,19.070,1454.000,255.600,55.970,16.410,82.020,16.770,4.082,1.807,143.500,34.320,7.788,3.755,baseline
1299.000,250.200,56.900,19.930,1474.000,260.100,57.330,16.820,86.060,16.670,4.152,1.826,145.000,34.250,7.958,3.779,baseline
1323.000,255.800,57.730,20.410,1489.000,263.400,57.580,16.910,84.710,16.880,4.137,1.823,145.400,34.210,7.964,3.733,baseline
1340.000,259.600,57.770,20.740,1504.000,263.900,58.160,17.190,83.600,16.620,4.062,1.822,146.300,34.650,8.006,3.745,baseline
1357.000,263.600,58.810,20.680,1509.000,264.800,57.530,16.910,83.210,17.080,4.113,1.835,146.200,34.680,8.134,3.740,baseline
1329.000,253.000,55.450,20.020,1490.000,262.000,57.090,16.670,81.940,16.670,4.110,1.819,145.400,34.390,7.926,3.757,baseline
1323.000,254.800,57.570,19.850,1496.000,263.400,57.740,16.790,84.480,17.060,4.090,1.834,145.000,34.550,8.046,3.743,baseline
1332.000,257.300,56.300,20.100,1498.000,264.300,57.650,16.970,84.580,17.040,4.131,1.849,145.300,34.810,8.070,3.815,baseline
1331.000,257.300,57.030,20.370,1499.000,264.800,58.910,17.260,83.560,17.730,4.243,1.923,145.700,35.430,8.316,4.043,baseline
1335.000,260.700,58.390,20.840,1510.000,268.500,59.750,17.440,87.060,17.810,4.419,2.003,146.400,36.170,8.685,4.190,baseline
1344.000,262.800,60.200,20.990,1514.000,271.100,60.170,17.690,88.250,17.630,4.492,2.033,147.800,36.670,8.905,4.246,baseline
1359.000,265.800,61.030,21.370,1524.000,271.100,61.400,17.820,84.380,18.040,4.571,2.058,148.100,36.650,9.050,4.341,baseline
1367.000,265.700,62.060,21.630,1523.000,274.300,61.430,17.890,88.490,17.840,4.556,2.072,148.500,36.870,8.915,4.366,baseline
1373.000,266.900,59.980,21.380,1519.000,270.700,60.520,17.600,85.010,17.650,4.656,2.094,148.400,36.370,9.049,4.293,baseline
1333.000,258.600,59.600,20.770,1508.000,268.200,59.560,17.530,86.830,18.060,4.507,2.082,146.300,36.110,9.015,4.248,baseline
1330.000,261.800,59.260,20.870,1506.000,268.700,59.750,17.560,85.310,18.050,4.576,2.083,147.000,36.590,8.909,4.281,baseline
1336.000,259.700,57.430,20.880,1507.000,269.400,59.750,17.490,86.280,17.760,4.598,2.084,146.800,36.610,8.812,4.293,baseline
1329.000,259.300,57.970,20.670,1509.000,269.200,59.820,17.520,87.470,17.920,4.556,2.088,147.300,36.410,8.950,4.251,baseline
1333.000,261.500,59.660,20.900,1514.000,268.900,58.990,17.630,86.890,17.920,4.627,2.052,147.100,36.230,8.816,4.280,baseline
1342.000,263.000,59.060,21.000,1515.000,271.300,59.880,17.690,86.510,17.760,4.522,2.063,145.900,35.930,9.026,4.269,baseline
1355.000,265.300,59.870,21.300,1530.000,272.000,60.540,17.800,92.350,18.020,4.518,2.059,148.200,36.570,8.962,4.273,baseline
1367.000,270.600,61.040,21.530,1537.000,273.000,60.470,17.850,86.810,17.680,4.601,2.106,147.900,36.330,9.021,4.280,baseline
1362.000,264.000,59.800,21.000,1516.000,269.700,58.630,17.530,86.660,17.720,4.666,2.071,146.700,36.110,8.856,4.223,baseline
1328.000,260.500,59.570,20.650,1507.000,268.900,59.500,17.520,86.340,17.720,4.532,2.064,145.500,36.150,8.856,4.227,baseline
1332.000,258.800,59.130,20.730,1507.000,269.800,59.920,17.590,84.180,17.950,4.539,2.040,145.900,36.050,8.900,4.284,baseline
1340.000,260.300,60.140,20.730,1509.000,269.600,59.840,17.440,83.170,17.830,4.620,2.074,145.800,35.840,8.939,4.243,baseline
1334.000,257.700,59.280,20.750,1512.000,268.900,59.780,17.420,87.490,17.670,4.519,2.086,145.900,35.910,8.667,4.199,baseline
1340.000,262.100,59.570,20.940,1516.000,269.700,59.380,17.620,86.030,17.630,4.502,2.053,144.800,36.490,8.760,4.239,baseline
1351.000,262.600,58.820,21.100,1525.000,271.600,60.440,17.640,84.860,17.880,4.566,2.077,145.100,36.220,8.844,4.250,baseline
1362.000,266.600,60.300,21.260,1523.000,272.300,61.160,17.640,86.730,17.890,4.641,2.081,146.300,36.400,8.996,4.244,baseline
1371.000,266.400,59.610,21.160,1524.000,271.200,59.630,17.510,84.920,18.100,4.529,2.073,146.000,36.310,8.856,4.223,baseline
1340.000,261.700,58.050,20.520,1505.000,268.500,59.210,17.460,84.700,17.450,4.558,2.063,145.100,35.870,8.890,4.219,baseline
1335.000,259.700,58.180,20.710,1511.000,269.900,59.870,17.550,84.820,17.830,4.506,2.065,146.200,35.770,8.890,4.165,baseline
1347.000,262.700,58.630,21.050,1514.000,269.200,59.430,17.530,82.770,17.420,4.411,2.078,144.700,35.660,8.844,4.206,baseline
1344.000,262.000,60.100,20.670,1513.000,269.500,58.690,17.560,84.050,17.560,4.511,2.042,144.500,35.960,8.889,4.191,baseline
1346.000,261.000,61.210,20.880,1517.000,271.300,58.800,17.530,85.960,17.890,4.489,2.047,143.900,35.790,8.797,4.224,baseline
1359.000,264.600,59.720,21.180,1523.000,271.100,59.900,17.610,86.650,17.620,4.493,2.044,145.700,36.210,8.766,4.236,baseline
1373.000,266.600,61.250,21.220,1534.000,272.800,60.680,17.670,87.670,17.670,4.522,2.056,146.600,36.210,8.892,4.289,baseline
1386.000,271.200,60.950,21.350,1530.000,271.400,60.380,17.510,82.330,17.640,4.521,2.059,144.700,36.140,8.846,4.234,baseline
1348.000,261.500,58.900,20.680,1506.000,269.200,58.890,17.360,86.330,17.480,4.517,2.071,144.000,35.660,8.786,4.169,baseline
1339.000,260.400,60.060,20.660,1520.000,269.200,59.780,17.390,83.980,17.370,4.537,2.018,143.300,35.710,8.708,4.205,baseline
1346.000,261.100,57.410,20.720,1511.000,269.700,59.930,17.360,85.040,17.770,4.456,2.071,145.100,35.750,8.753,4.203,baseline
1344.000,263.400,58.420,20.650,1511.000,268.400,60.150,17.390,80.690,17.820,4.573,2.051,144.800,35.500,8.766,4.189,baseline
1344.000,260.700,60.500,20.770,1516.000,269.600,59.260,17.410,81.760,17.730,4.495,2.035,145.400,35.450,8.776,4.157,baseline
1356.000,263.600,58.290,20.940,1517.000,271.200,59.560,17.520,82.510,17.800,4.531,2.049,144.900,35.870,8.929,4.182,baseline
1367.000,267.600,60.620,21.090,1527.000,271.900,60.020,17.610,83.830,17.850,4.502,2.052,145.900,36.030,8.766,4.215,baseline
1376.000,265.800,60.150,20.870,1520.000,270.000,59.290,17.270,83.100,17.840,4.526,2.065,144.600,35.660,8.769,4.220,baseline
1339.000,259.400,59.620,20.360,1496.000,267.800,58.700,17.230,86.830,17.780,4.532,2.051,143.700,35.580,8.688,4.124,baseline
1337.000,258.600,59.830,20.460,1513.000,268.600,58.840,17.330,83.520,17.680,4.433,2.021,144.000,35.660,8.714,4.143,baseline
1343.000,258.800,59.580,20.620,1505.000,268.800,58.880,17.300,83.080,17.830,4.502,2.043,144.200,35.240,8.656,4.152,baseline
1340.000,259.700,58.440,20.470,1504.000,267.100,59.900,17.200,83.960,17.830,4.470,2.030,143.400,35.470,8.547,4.141,baseline
1343.000,262.300,58.680,20.550,1519.000,268.800,59.380,17.300,85.930,17.590,4.522,2.035,143.000,35.480,8.841,4.149,baseline
1355.000,264.400,58.870,20.810,1523.000,270.900,59.710,17.410,87.550,17.640,4.568,2.071,143.100,35.690,8.610,4.154,baseline
1368.000,265.600,59.470,21.010,1522.000,272.500,60.650,17.460,83.980,17.520,4.542,2.065,144.000,35.810,8.746,4.157,baseline
1366.000,265.000,61.270,20.580,1516.000,268.700,58.880,17.290,83.020,17.870,4.577,2.070,144.900,35.760,8.579,4.122,baseline
1334.000,256.100,58.630,20.310,1506.000,268.000,58.260,17.150,82.710,17.400,4.512,2.026,143.300,35.440,8.581,4.111,baseline
1338.000,259.200,58.260,20.520,1513.000,268.900,59.110,17.260,83.260,17.610,4.476,2.038,143.400,35.540,8.724,4.124,baseline
1346.000,259.900,59.940,20.460,1518.000,267.300,58.120,17.280,83.960,17.920,4.531,2.039,143.400,35.460,8.591,4.102,baseline
1341.000,259.500,59.050,20.600,1506.000,269.300,58.660,17.240,88.200,17.660,4.544,2.070,143.300,35.550,8.780,4.133,baseline
1348.000,262.800,60.240,20.710,1516.000,269.900,58.760,17.470,83.770,17.620,4.512,2.040,143.300,35.230,8.709,4.134,baseline
1361.000,262.200,59.390,20.850,1524.000,270.700,59.180,17.510,82.960,17.910,4.512,2.034,145.300,35.640,8.747,4.178,baseline
1371.000,266.000,61.040,21.080,1526.000,272.400,59.600,17.540,86.280,17.660,4.533,2.067,145.000,35.820,8.634,4.176,baseline
1377.000,265.500,59.400,20.830,1525.000,268.700,59.680,17.330,84.640,18.140,4.572,2.079,145.100,35.640,8.684,4.119,baseline
1341.000,259.200,56.710,20.350,1514.000,268.300,58.740,17.380,84.930,17.840,4.503,2.041,144.000,35.210,8.582,4.100,baseline
1343.000,261.600,57.790,20.580,1516.000,269.600,59.570,17.430,86.600,17.860,4.614,2.042,142.900,35.480,8.670,4.092,baseline
1355.000,263.900,58.610,20.750,1503.000,269.200,58.600,17.360,87.800,18.330,4.547,2.058,144.000,35.520,8.643,4.131,baseline
1346.000,260.400,58.630,20.610,1513.000,269.400,58.130,17.390,84.860,18.310,4.578,2.059,142.700,35.820,8.629,4.136,baseline
1353.000,263.400,58.530,20.760,1518.000,270.900,58.950,17.480,82.850,18.330,4.581,2.096,143.600,35.630,8.589,4.176,baseline
1363.000,267.100,60.170,20.860,1523.000,271.600,59.050,17.580,85.420,17.670,4.584,2.064,143.000,35.690,8.560,4.177,baseline
1374.000,267.000,60.760,21.050,1526.000,271.800,59.580,17.610,85.750,17.950,4.595,2.054,146.500,35.720,8.824,4.172,baseline
1365.000,262.200,59.330,20.520,1507.000,269.600,58.400,17.350,84.580,17.940,4.591,2.073,142.500,35.400,8.620,4.131,baseline
1338.000,259.500,58.040,20.410,1507.000,268.300,60.290,17.360,86.760,17.950,4.638,2.090,143.000,35.260,8.523,4.113,baseline
1343.000,261.500,58.990,20.500,1513.000,269.200,58.970,17.420,84.110,18.010,4.577,2.062,142.500,35.010,8.564,4.098,baseline
1349.000,261.200,57.860,20.540,1511.000,269.100,59.010,17.410,88.500,17.840,4.583,2.073,143.100,35.400,8.605,4.103,baseline
1343.000,259.500,59.180,20.590,1513.000,269.700,59.750,17.430,85.040,17.900,4.582,2.081,143.200,35.280,8.563,4.113,baseline
1351.000,262.700,58.880,20.740,1516.000,270.800,59.880,17.540,83.650,18.200,4.598,2.078,143.200,35.440,8.610,4.193,baseline
1362.000,266.100,60.390,20.880,1524.000,271.700,60.330,17.570,85.250,18.360,4.623,2.094,142.900,35.610,8.622,4.099,baseline
1372.000,266.300,59.630,21.050,1536.000,273.400,59.690,17.620,86.940,18.140,4.606,2.101,145.600,35.840,8.751,4.139,baseline
1357.000,263.000,58.520,20.480,1503.000,269.900,59.210,17.360,80.620,18.130,4.557,2.105,142.900,35.680,8.657,4.110,baseline
1333.000,258.500,60.450,20.340,1509.000,268.800,60.130,17.380,83.370,18.170,4.601,2.086,142.700,35.460,8.541,4.103,baseline
1338.000,260.600,60.220,20.440,1505.000,269.800,59.610,17.450,82.610,17.980,4.591,2.079,143.400,35.330,8.584,4.056,baseline
1340.000,260.100,59.870,20.450,1514.000,268.900,58.900,17.480,86.370,18.090,4.693,2.089,142.600,34.970,8.554,4.068,baseline
1336.000,259.200,59.470,20.510,1512.000,269.600,59.680,17.430,87.000,17.780,4.660,2.102,143.000,35.540,8.607,4.113,baseline
1344.000,260.900,58.950,20.580,1518.000,270.700,60.420,17.560,86.080,18.360,4.602,2.096,142.300,35.730,8.589,4.108,baseline
1354.000,261.400,58.890,20.790,1520.000,272.200,59.580,17.620,86.740,18.160,4.716,2.102,143.200,35.500,8.596,4.160,baseline
1365.000,265.300,60.880,20.900,1531.000,273.100,60.870,17.730,84.780,18.310,4.650,2.114,142.600,35.360,8.607,4.138,baseline
1369.000,265.000,60.340,20.790,1511.000,270.100,59.240,17.450,86.170,18.440,4.678,2.103,143.500,35.300,8.617,4.118,baseline
1333.000,259.000,59.130,20.340,1503.000,269.200,59.570,17.500,83.050,18.070,4.572,2.087,142.500,35.180,8.493,4.070,baseline
1332.000,258.900,58.140,20.390,1513.000,270.800,59.840,17.500,86.150,18.260,4.647,2.094,142.800,34.970,8.498,4.066,baseline
1338.000,259.600,58.300,20.390,1517.000,269.100,59.570,17.500,87.980,18.440,4.625,2.116,142.600,35.340,8.618,4.026,baseline
1334.000,259.700,59.730,20.440,1510.000,269.700,58.910,17.630,86.580,18.040,4.627,2.102,141.800,35.260,8.556,4.032,baseline
1339.000,259.900,58.600,20.520,1517.000,271.400,59.960,17.610,89.200,17.920,4.679,2.102,144.000,35.020,8.576,4.082,baseline
1349.000,262.400,60.390,20.780,1528.000,273.500,61.000,17.720,84.310,18.480,4.710,2.121,142.400,35.150,8.522,4.093,baseline
1360.000,263.300,61.550,20.960,1529.000,273.400,60.440,17.810,82.600,18.100,4.725,2.106,143.000,35.630,8.604,4.135,baseline
1371.000,265.000,60.380,21.180,1533.000,273.900,60.170,17.960,82.990,18.610,4.725,2.124,143.000,35.050,8.626,4.170,baseline
1376.000,267.300,59.430,20.860,1517.000,271.400,59.490,17.670,84.740,18.590,4.766,2.125,143.100,35.570,8.589,4.098,baseline
1341.000,258.100,58.930,20.530,1513.000,270.700,60.310,17.670,85.120,18.420,4.694,2.116,141.600,35.010,8.536,4.073,baseline
1342.000,260.600,59.740,20.650,1513.000,271.700,59.870,17.780,87.730,18.190,4.664,2.145,142.700,35.420,8.621,4.062,baseline
1350.000,264.900,59.890,20.780,1521.000,272.000,60.650,17.630,91.190,18.160,4.712,2.132,143.000,35.030,8.480,4.090,baseline
1343.000,261.800,60.780,20.710,1520.000,272.700,59.870,17.720,85.040,18.400,4.716,2.129,142.700,35.080,8.436,4.089,baseline
1347.000,261.900,59.560,20.770,1519.000,272.800,60.330,17.810,84.850,18.600,4.734,2.141,142.900,35.060,8.600,4.093,baseline
1358.000,264.900,61.990,20.950,1534.000,273.700,61.000,17.870,84.430,18.690,4.723,2.155,143.100,35.610,8.568,4.159,baseline
1365.000,267.200,63.630,21.070,1529.000,275.600,60.780,18.010,88.550,18.330,4.752,2.154,143.500,35.220,8.728,4.136,baseline
1373.000,266.400,60.080,21.010,1531.000,272.600,59.490,17.690,85.710,18.460,4.693,2.131,142.900,35.470,8.618,4.070,baseline
1343.000,261.700,59.830,20.490,1514.000,270.800,60.100,17.720,87.680,18.170,4.719,2.142,142.400,35.030,8.493,4.124,baseline
1341.000,261.000,59.510,20.690,1520.000,272.500,60.070,17.860,85.410,18.370,4.690,2.134,142.100,35.070,8.630,4.109,baseline
1353.000,261.400,59.550,20.840,1521.000,272.300,60.750,17.790,85.160,18.570,4.797,2.176,143.200,35.020,8.587,4.082,baseline
1347.000,261.700,60.350,20.780,1521.000,273.100,61.130,17.810,85.860,18.160,4.750,2.153,143.400,35.070,8.704,4.113,baseline
1352.000,263.100,60.880,20.870,1530.000,273.000,61.550,17.860,85.080,18.400,4.737,2.188,142.600,34.930,8.529,4.056,baseline
1363.000,264.700,60.410,21.140,1537.000,275.300,61.290,17.990,90.430,18.730,4.842,2.171,142.900,35.230,8.622,4.130,baseline
1372.000,268.000,61.290,21.230,1537.000,275.700,61.070,18.050,88.470,18.730,4.792,2.150,142.900,35.640,8.766,4.155,baseline
1381.000,268.100,61.970,21.260,1531.000,273.500,60.360,17.890,85.580,18.740,4.838,2.175,143.600,35.370,8.661,4.059,baseline
1346.000,261.500,60.600,20.570,1523.000,271.800,59.910,17.810,88.610,18.480,4.846,2.143,142.500,35.340,8.638,4.071,baseline
1339.000,260.200,60.460,20.670,1521.000,272.700,60.180,17.850,85.830,18.630,4.747,2.187,142.300,35.210,8.521,4.075,baseline
1345.000,260.100,60.790,20.720,1526.000,273.400,59.710,17.740,87.640,18.720,4.862,2.144,141.700,35.070,8.581,4.142,baseline
1342.000,259.800,59.390,20.530,1523.000,271.200,59.440,17.770,85.030,18.860,4.752,2.176,142.000,34.920,8.557,4.037,baseline
1343.000,262.200,59.170,20.660,1527.000,273.000,61.400,17.910,89.920,18.470,4.822,2.179,143.400,35.150,8.624,4.109,baseline
1354.000,261.900,60.760,20.970,1530.000,274.500,60.670,17.990,89.460,18.920,4.766,2.195,143.200,35.160,8.554,4.093,baseline
1363.000,265.800,59.750,21.040,1531.000,276.000,61.640,17.950,90.900,18.900,4.797,2.181,143.400,35.470,8.677,4.158,baseline
1371.000,267.900,61.670,21.420,1546.000,276.900,62.040,18.070,88.950,18.560,4.728,2.183,143.700,35.630,8.536,4.115,baseline
1360.000,262.500,59.210,20.720,1521.000,272.200,60.200,17.780,88.150,18.900,4.849,2.175,142.200,35.510,8.591,4.071,baseline
1334.000,259.700,58.370,20.740,1516.000,272.200,60.640,17.820,88.270,18.720,4.860,2.148,142.900,35.130,8.510,4.110,baseline
1336.000,261.400,59.390,20.710,1517.000,272.500,60.080,17.860,89.360,18.550,4.725,2.197,142.000,35.170,8.561,4.016,baseline
1338.000,259.600,58.350,20.610,1510.000,272.500,59.930,17.790,86.570,18.690,4.801,2.192,141.800,34.640,8.423,4.089,baseline
1335.000,260.900,59.240,20.610,1513.000,272.400,59.830,17.810,89.210,18.850,4.835,2.171,141.600,34.900,8.602,4.070,baseline
1341.000,260.300,59.920,20.740,1523.000,273.300,61.550,17.900,90.710,18.770,4.782,2.187,143.300,35.360,8.571,4.080,baseline
1351.000,264.400,60.280,21.030,1526.000,275.300,60.670,18.010,86.090,18.560,4.804,2.174,142.900,35.130,8.520,4.126,baseline
1361.000,264.500,61.480,21.130,1534.000,276.400,61.300,18.060,90.760,18.660,4.853,2.166,142.500,35.640,8.648,4.142,baseline
1371.000,268.700,62.160,21.370,1530.000,275.600,61.230,17.960,87.010,19.030,4.863,2.194,143.300,35.150,8.556,4.141,baseline
1349.000,262.200,59.350,20.760,1514.000,272.800,60.410,17.770,86.460,18.600,4.864,2.164,143.200,35.290,8.451,4.088,baseline
1331.000,258.900,60.410,20.620,1514.000,273.200,60.950,17.840,89.820,19.280,4.802,2.182,141.500,35.170,8.556,4.063,baseline
1338.000,261.800,57.950,20.880,1515.000,273.300,60.680,17.900,87.480,18.880,4.805,2.183,142.300,34.820,8.481,4.074,baseline
1338.000,260.600,57.610,20.650,1517.000,272.400,61.340,17.860,84.950,18.850,4.784,2.188,141.800,35.120,8.700,4.085,baseline
1337.000,258.900,59.430,20.730,1524.000,272.000,60.550,17.940,88.940,18.580,4.799,2.164,141.500,35.150,8.679,4.075,baseline
1345.000,262.200,58.380,20.900,1522.000,273.600,60.590,18.000,85.330,19.140,4.853,2.188,142.900,35.290,8.543,4.168,baseline
1355.000,264.800,60.000,21.100,1532.000,275.300,61.520,18.040,86.260,18.730,4.795,2.205,144.700,35.160,8.582,4.131,baseline
1365.000,264.100,61.900,21.290,1534.000,276.300,61.520,18.210,88.140,18.680,4.865,2.188,143.000,35.600,8.674,4.136,baseline
1374.000,267.400,60.360,21.320,1538.000,275.200,61.530,17.990,87.810,18.650,4.811,2.171,143.400,35.610,8.578,4.114,baseline
1346.000,259.900,58.720,20.740,1527.000,273.000,60.350,17.860,89.030,18.900,4.854,2.214,142.500,35.120,8.671,4.066,baseline
1338.000,259.300,59.550,20.860,1520.000,273.600,60.870,18.010,88.700,18.940,4.831,2.193,142.500,34.980,8.604,4.131,baseline
1349.000,261.700,58.930,20.970,1529.000,273.100,60.970,17.920,86.690,18.920,4.820,2.201,143.100,34.940,8.595,4.068,baseline
1344.000,261.900,58.990,20.810,1517.000,273.300,61.210,17.940,91.610,18.620,4.804,2.175,142.500,35.130,8.649,4.161,baseline
1345.000,262.800,56.800,20.980,1527.000,275.600,60.830,18.010,89.170,18.530,4.845,2.190,142.400,35.140,8.811,4.153,baseline
1355.000,262.600,60.000,21.110,1538.000,276.700,60.950,18.090,88.330,19.000,4.883,2.217,142.800,35.780,8.751,4.086,baseline
1364.000,265.500,61.110,21.220,1538.000,277.100,62.020,18.150,86.140,18.930,4.831,2.189,143.900,35.380,8.728,4.201,baseline
1375.000,269.500,60.730,21.330,1538.000,275.700,60.910,17.990,90.310,18.800,4.816,2.199,144.000,35.970,8.711,4.178,baseline
1348.000,262.000,61.340,20.740,1524.000,273.700,60.720,17.990,88.320,18.860,4.859,2.221,141.700,35.220,8.576,4.097,baseline
1339.000,260.300,59.750,20.710,1522.000,273.800,61.490,17.980,88.350,19.040,4.899,2.167,141.500,35.300,8.530,4.150,baseline
1345.000,262.500,60.620,20.910,1521.000,274.500,60.510,18.030,88.330,18.840,4.874,2.199,142.800,35.420,8.528,4.132,baseline
1344.000,258.800,60.560,20.730,1520.000,274.200,61.610,18.000,90.120,18.900,4.785,2.198,142.700,35.060,8.561,4.125,baseline
1344.000,262.000,60.640,21.000,1526.000,273.900,61.200,18.030,89.730,18.900,4.978,2.200,141.800,34.940,8.701,4.129,baseline
1353.000,263.100,60.250,21.120,1529.000,275.700,61.980,18.090,88.840,18.960,4.909,2.201,143.700,35.290,8.735,4.178,baseline
1362.000,265.500,60.080,21.270,1532.000,276.900,62.190,18.200,89.110,18.840,4.876,2.206,144.900,35.380,8.802,4.184,baseline
1371.000,266.500,59.370,21.420,1544.000,277.800,61.020,18.160,90.470,19.060,4.915,2.221,143.600,35.670,8.610,4.139,baseline
1358.000,264.100,60.100,20.900,1520.000,273.800,60.720,17.860,85.670,19.250,4.842,2.197,142.200,35.060,8.647,4.084,baseline
1335.000,259.500,59.390,20.680,1511.000,273.900,61.420,17.800,89.440,18.910,4.821,2.215,142.300,35.130,8.843,4.112,baseline
1336.000,259.000,59.530,20.700,1518.000,272.700,60.210,17.710,87.750,19.090,4.916,2.156,142.700,35.470,8.680,4.051,baseline
1337.000,260.500,58.640,20.230,1516.000,269.600,58.430,17.290,84.600,18.850,4.930,2.172,143.500,35.490,8.592,4.022,baseline
1325.000,254.500,57.300,19.860,1507.000,269.100,58.940,17.100,88.100,19.340,4.858,2.131,142.700,35.580,8.485,3.951,baseline
1329.000,255.800,57.670,20.000,1505.000,269.600,59.290,17.390,92.290,19.080,4.803,2.145,142.700,35.810,8.582,4.065,baseline
1337.000,258.400,58.210,20.420,1521.000,271.200,60.110,17.780,91.370,18.740,4.873,2.170,143.600,35.450,8.639,4.134,baseline
1346.000,260.800,59.720,21.060,1522.000,274.200,60.420,18.130,83.540,19.090,4.887,2.191,143.700,35.430,8.637,4.149,baseline
1357.000,264.600,61.050,21.050,1526.000,273.600,60.810,18.000,88.800,19.010,4.819,2.174,142.200,35.230,8.673,4.080,baseline
1325.000,258.100,58.710,20.940,1510.000,272.600,60.570,18.270,86.480,18.830,4.776,2.167,140.400,35.000,8.622,4.034,baseline
1326.000,259.600,59.010,21.480,1527.000,273.500,61.980,18.820,92.270,19.430,4.852,2.152,141.300,34.800,8.541,3.983,baseline
1340.000,262.400,60.780,22.140,1520.000,276.700,62.660,19.180,94.610,19.150,4.838,2.143,141.500,35.290,8.566,4.016,baseline
1341.000,261.900,63.750,22.250,1530.000,278.500,63.060,19.480,87.640,18.960,4.888,2.187,141.000,34.850,8.624,4.110,baseline
1350.000,266.300,62.790,22.850,1540.000,281.000,63.170,19.730,92.890,19.270,4.968,2.213,142.500,35.340,8.734,4.227,baseline
1368.000,270.300,63.620,23.350,1556.000,285.700,63.960,19.950,89.690,19.160,4.937,2.295,141.900,35.340,8.769,4.165,baseline
1383.000,274.100,66.550,23.510,1567.000,286.200,64.690,19.970,90.740,18.550,4.882,2.273,143.400,35.110,8.680,4.251,baseline
1390.000,275.100,64.830,23.130,1575.000,285.800,64.480,19.680,87.140,19.010,4.879,2.253,142.100,35.230,8.580,4.209,baseline
1392.000,273.800,64.570,22.710,1545.000,281.200,62.640,18.970,91.200,19.310,4.827,2.242,143.400,34.880,8.473,4.134,baseline
1347.000,262.900,62.120,21.780,1531.000,277.700,62.360,18.520,92.940,18.800,4.756,2.214,142.300,35.040,8.386,4.039,baseline
1341.000,262.500,59.960,21.360,1524.000,275.300,61.230,17.880,89.770,18.690,4.749,2.165,140.800,34.470,8.328,3.914,baseline
1345.000,259.800,58.020,20.660,1519.000,272.800,59.200,17.370,90.320,18.510,4.616,2.063,142.800,34.640,8.245,3.834,baseline
1334.000,258.300,58.980,19.980,1515.000,269.600,58.620,17.120,87.040,18.270,4.572,2.021,142.000,34.240,8.135,3.764,baseline
1333.000,255.800,55.390,20.000,1511.000,268.900,58.880,16.990,84.790,18.640,4.505,1.986,141.700,34.030,8.126,3.769,baseline
1342.000,256.900,58.350,19.920,1521.000,268.600,58.830,16.860,87.990,18.510,4.508,1.989,141.600,34.480,8.089,3.710,baseline
1350.000,260.000,57.180,19.900,1520.000,269.900,58.410,17.070,85.650,18.180,4.613,1.976,143.300,34.430,8.294,3.774,baseline
1358.000,261.800,56.860,20.320,1528.000,271.900,59.560,17.380,88.460,18.620,4.659,2.010,144.300,34.970,8.202,3.855,baseline
1354.000,259.300,57.840,20.010,1514.000,269.400,58.290,17.230,90.640,18.910,4.667,2.028,144.200,34.840,8.124,3.809,baseline
1326.000,255.400,58.080,20.130,1509.000,270.300,57.720,17.410,91.620,18.210,4.642,2.037,142.400,34.470,8.072,3.804,baseline
1334.000,257.700,58.180,20.320,1515.000,270.000,58.060,17.190,92.190,18.470,4.567,2.021,142.500,34.520,8.178,3.797,baseline
1342.000,257.000,56.760,19.570,1509.000,265.400,57.840,16.760,86.520,18.350,4.538,1.961,143.400,34.710,8.074,3.699,baseline
1331.000,250.600,57.640,19.150,1506.000,262.500,56.700,16.360,87.440,18.300,4.574,1.987,143.400,34.490,7.984,3.704,baseline
1335.000,251.700,55.940,18.990,1509.000,263.300,57.070,16.320,85.610,18.360,4.541,1.973,143.000,34.250,8.004,3.741,baseline
1351.000,253.500,55.560,19.360,1520.000,265.800,58.350,16.500,89.900,18.450,4.587,1.952,143.800,34.860,8.082,3.740,baseline
1370.000,256.800,56.740,19.450,1526.000,267.100,57.560,16.580,89.440,18.520,4.586,1.972,144.200,34.370,8.089,3.736,baseline
1358.000,255.700,56.480,19.530,1516.000,266.200,57.980,16.740,86.980,18.130,4.532,1.962,143.000,34.440,8.057,3.764,baseline
1334.000,254.200,56.100,19.620,1513.000,268.800,59.250,17.090,90.420,18.290,4.579,1.981,141.400,34.300,8.105,3.795,baseline
1341.000,257.000,57.460,20.160,1521.000,271.300,58.890,17.230,89.140,18.030,4.639,2.026,140.700,34.640,8.295,3.858,baseline
1345.000,258.500,58.260,19.980,1512.000,270.100,59.350,17.320,88.920,18.580,4.635,2.093,140.100,34.670,8.390,3.924,baseline
1342.000,257.100,56.380,20.140,1525.000,271.000,59.690,17.320,87.380,18.850,4.848,2.100,141.900,35.080,8.487,4.033,baseline
1347.000,258.400,58.140,20.270,1536.000,273.000,60.350,17.490,87.000,18.770,4.864,2.136,143.000,35.620,8.854,4.042,baseline
1357.000,260.300,58.430,20.700,1536.000,274.100,59.750,17.650,88.030,18.940,4.833,2.146,143.100,35.850,8.745,4.153,baseline
1368.000,265.400,58.970,20.950,1532.000,275.500,59.880,17.560,88.970,19.370,4.937,2.189,143.900,36.130,8.781,4.153,baseline
1354.000,259.000,57.490,20.120,1528.000,270.600,59.630,17.250,89.440,18.990,4.951,2.200,142.800,35.870,8.781,4.099,baseline
1337.000,256.100,58.630,19.930,1526.000,271.300,59.590,17.340,85.370,18.870,4.892,2.158,142.000,35.750,8.813,4.132,baseline
1341.000,259.000,56.970,20.240,1536.000,273.200,59.750,17.580,86.640,19.250,4.942,2.205,142.500,35.550,8.782,4.143,baseline
1340.000,260.200,56.770,20.620,1522.000,273.300,60.780,17.800,83.460,19.000,4.953,2.204,142.300,35.470,8.960,4.217,baseline
1329.000,259.600,58.700,20.810,1513.000,273.300,60.690,17.810,88.450,18.930,4.897,2.227,143.400,35.480,8.760,4.187,baseline
1337.000,260.300,58.220,21.020,1528.000,274.700,60.650,18.040,87.350,18.950,4.950,2.237,142.000,35.670,8.775,4.196,baseline
1347.000,263.400,60.220,21.080,1530.000,275.900,61.130,18.100,88.750,19.360,4.912,2.231,143.200,35.480,8.882,4.242,baseline
1358.000,265.000,60.570,21.320,1540.000,277.800,62.280,18.260,89.740,18.890,4.949,2.226,144.900,35.950,8.862,4.289,baseline
1367.000,266.600,62.080,21.170,1532.000,275.500,60.720,17.950,86.610,18.760,4.998,2.251,144.800,35.390,8.805,4.259,baseline
1326.000,257.400,59.400,20.590,1516.000,273.300,59.830,17.900,90.240,18.880,4.842,2.201,143.600,35.300,8.633,4.227,baseline
1323.000,257.100,60.570,20.700,1522.000,274.000,59.710,17.870,90.690,19.000,4.909,2.207,143.200,35.580,8.873,4.226,baseline
1331.000,260.500,58.440,20.620,1515.000,273.700,60.390,17.830,88.130,18.910,4.886,2.192,142.600,35.390,8.694,4.164,baseline
1328.000,258.700,57.970,20.800,1521.000,273.000,61.070,17.880,89.610,18.690,4.806,2.222,143.300,35.820,8.765,4.219,baseline
1333.000,260.500,59.090,20.930,1525.000,273.900,61.180,17.910,88.570,18.820,4.864,2.194,144.400,35.800,8.837,4.238,baseline
1346.000,261.000,59.420,21.130,1532.000,276.400,61.510,17.990,91.960,18.670,4.868,2.183,143.900,35.450,8.837,4.230,baseline
1358.000,265.900,60.590,21.290,1543.000,277.200,61.660,18.170,86.520,18.700,4.862,2.201,144.400,35.820,8.778,4.214,baseline
1369.000,267.300,59.490,21.520,1554.000,278.400,62.330,18.230,88.000,19.050,5.008,2.214,144.400,35.730,8.757,4.239,baseline
1364.000,264.300,61.070,21.000,1537.000,274.800,60.140,17.890,86.700,19.030,4.923,2.192,144.700,35.640,8.752,4.282,baseline
1332.000,259.500,59.670,20.800,1526.000,273.200,60.170,17.900,85.810,18.610,4.829,2.179,143.700,35.550,8.716,4.183,baseline
1337.000,261.700,59.190,21.090,1529.000,276.100,60.710,18.050,89.310,18.800,4.862,2.196,145.100,35.720,8.676,4.204,baseline
1344.000,261.400,59.680,20.910,1534.000,274.500,60.550,17.900,88.580,18.580,4.916,2.193,145.000,35.930,8.729,4.197,baseline
1338.000,262.100,59.960,20.900,1530.000,275.200,61.650,17.980,87.060,18.630,4.853,2.186,144.000,35.780,8.807,4.257,baseline
1346.000,261.600,60.380,21.070,1532.000,277.500,61.070,18.100,87.140,18.860,4.826,2.219,143.900,35.780,8.912,4.248,baseline
1357.000,264.500,60.290,21.270,1538.000,277.400,60.990,18.090,89.600,18.820,4.877,2.227,144.300,36.130,8.768,4.237,baseline
1370.000,267.400,62.660,21.410,1546.000,277.400,61.900,18.040,90.850,18.690,4.870,2.214,145.000,36.060,8.815,4.205,baseline
1349.000,260.800,59.860,20.780,1527.000,274.200,61.240,17.790,85.580,18.620,4.895,2.183,143.800,35.830,8.771,4.209,baseline
1331.000,260.700,58.630,20.650,1527.000,274.100,60.690,17.850,90.610,18.890,4.884,2.192,144.700,35.810,8.760,4.126,baseline
1338.000,262.000,60.370,20.740,1528.000,275.600,60.090,17.950,88.110,18.860,4.854,2.211,143.600,35.780,8.716,4.210,baseline
1342.000,260.400,58.500,20.790,1528.000,273.800,60.480,17.840,92.140,19.080,4.852,2.194,143.100,36.250,8.888,4.246,baseline
1341.000,260.800,59.890,20.900,1536.000,274.800,60.490,17.930,90.230,18.830,4.882,2.186,145.100,35.830,8.548,4.186,baseline
1351.000,265.300,61.900,21.010,1539.000,276.300,60.820,18.080,88.020,18.730,4.877,2.187,144.300,36.030,8.869,4.234,baseline
1362.000,266.500,60.830,21.250,1542.000,278.500,60.480,18.120,88.630,18.850,4.813,2.196,145.900,36.360,8.926,4.263,baseline
1375.000,266.200,59.030,21.380,1538.000,275.600,60.810,17.960,86.560,18.990,4.858,2.199,145.000,36.300,8.841,4.247,baseline
1336.000,260.200,59.550,20.610,1519.000,271.900,60.670,17.740,86.480,18.860,4.858,2.170,145.200,35.800,8.633,4.189,baseline
1327.000,257.200,58.350,20.600,1520.000,273.100,60.320,17.760,89.170,18.520,4.766,2.195,144.400,35.920,8.703,4.210,baseline
1334.000,259.900,59.540,20.700,1520.000,274.400,60.530,17.790,88.480,18.860,4.880,2.169,144.300,35.970,8.805,4.238,baseline
1332.000,258.800,58.830,20.540,1519.000,273.500,60.530,17.830,89.350,18.920,4.796,2.195,143.000,35.420,8.760,4.212,baseline
1334.000,261.400,58.540,20.740,1526.000,273.700,60.650,17.820,87.020,18.810,4.833,2.187,145.200,35.900,8.689,4.213,baseline
1344.000,262.500,59.020,20.820,1530.000,274.900,61.010,17.940,89.300,19.020,4.846,2.167,145.300,36.210,8.835,4.230,baseline
1355.000,264.700,59.160,21.030,1535.000,276.100,61.810,18.030,88.360,18.890,4.816,2.198,145.500,36.100,8.895,4.295,baseline
1368.000,269.800,61.720,21.170,1539.000,275.600,61.010,17.860,86.650,18.550,4.826,2.195,145.100,35.960,8.894,4.245,baseline
1333.000,257.600,59.400,20.320,1516.000,272.000,59.420,17.700,87.510,18.760,4.825,2.158,144.100,35.710,8.738,4.166,baseline
1322.000,257.500,58.610,20.390,1511.000,270.900,59.890,17.780,88.770,18.460,4.829,2.172,144.700,35.940,8.781,4.168,baseline
1328.000,258.900,59.590,20.580,1516.000,273.000,60.910,17.710,86.110,18.870,4.803,2.178,144.600,35.600,8.694,4.164,baseline
1327.000,257.800,58.590,20.540,1521.000,272.500,59.340,17.700,89.930,18.490,4.841,2.172,144.600,36.060,8.703,4.189,baseline
1329.000,258.900,59.210,20.560,1524.000,272.800,60.890,17.730,88.040,18.540,4.813,2.183,144.200,36.060,8.764,4.197,baseline
1339.000,261.000,59.910,20.850,1526.000,273.800,60.890,17.840,89.370,19.170,4.834,2.160,144.700,36.280,8.722,4.231,baseline
1352.000,263.500,59.870,20.920,1534.000,275.200,60.410,17.900,87.690,18.540,4.773,2.155,146.300,36.050,8.899,4.253,baseline
1363.000,264.700,62.020,21.230,1539.000,276.400,61.110,18.030,88.650,19.030,4.825,2.195,145.100,36.270,8.925,4.225,baseline
1368.000,264.500,59.960,20.900,1526.000,272.800,60.340,17.570,88.080,18.590,4.842,2.179,146.700,35.900,8.782,4.185,baseline
1325.000,255.700,58.840,20.330,1511.000,272.000,59.890,17.690,87.170,18.630,4.758,2.163,145.500,35.960,8.732,4.207,baseline
1328.000,259.500,58.960,20.580,1518.000,273.100,61.160,17.650,85.960,18.560,4.841,2.152,146.300,36.050,8.838,4.199,baseline
1338.000,258.800,58.600,20.630,1527.000,272.800,59.300,17.680,85.510,18.580,4.847,2.179,145.800,36.140,8.712,4.206,baseline
1331.000,258.100,59.610,20.460,1521.000,272.800,59.600,17.740,88.460,18.630,4.813,2.178,144.700,35.400,8.822,4.181,baseline
1335.000,259.300,59.890,20.670,1524.000,273.100,60.220,17.790,89.100,18.280,4.787,2.185,144.900,36.160,8.716,4.201,baseline
1346.000,263.100,60.830,20.760,1535.000,275.000,60.550,17.880,89.090,18.810,4.793,2.205,145.100,36.010,8.925,4.268,baseline
1355.000,263.900,60.380,21.000,1532.000,275.300,60.780,17.930,86.100,18.400,4.778,2.178,146.400,36.070,8.850,4.306,baseline
1360.000,265.300,59.650,20.730,1520.000,272.800,60.150,17.700,87.050,18.590,4.815,2.203,145.600,36.040,8.788,4.231,baseline
1324.000,256.500,59.090,20.210,1521.000,271.200,59.180,17.590,87.330,18.490,4.836,2.173,143.600,35.800,8.755,4.234,baseline
1328.000,256.900,59.800,20.570,1515.000,272.100,60.490,17.680,88.880,18.670,4.782,2.163,144.400,35.960,8.776,4.214,baseline
1341.000,259.800,60.270,20.490,1521.000,271.600,59.700,17.660,87.630,18.720,4.796,2.165,145.000,35.860,8.746,4.212,baseline
1334.000,259.500,59.000,20.520,1521.000,272.700,59.610,17.680,86.240,18.700,4.752,2.159,143.600,35.950,8.866,4.291,baseline
1342.000,261.500,58.190,20.790,1523.000,273.300,61.560,17.740,88.140,18.640,4.852,2.165,146.500,35.870,8.972,4.257,baseline
1354.000,264.600,59.670,20.880,1528.000,275.700,60.210,17.860,87.800,18.440,4.807,2.153,146.400,36.110,8.903,4.269,baseline
1367.000,267.700,60.310,21.110,1543.000,277.400,60.090,17.990,89.210,18.350,4.785,2.179,146.500,36.650,8.961,4.346,baseline
1370.000,265.800,60.110,20.760,1522.000,272.400,59.450,17.610,83.960,18.860,4.782,2.176,146.400,36.150,8.798,4.249,baseline
1328.000,257.000,57.490,20.240,1523.000,271.100,58.980,17.550,87.650,18.250,4.811,2.159,143.300,36.080,8.867,4.227,baseline
1330.000,257.600,58.410,20.460,1518.000,271.800,59.310,17.690,88.430,18.410,4.781,2.156,145.200,36.240,8.820,4.296,baseline
1337.000,259.900,59.380,20.470,1513.000,271.800,59.610,17.580,85.780,18.200,4.796,2.190,146.300,36.140,8.777,4.252,baseline
1331.000,260.100,58.400,20.340,1511.000,272.200,60.020,17.640,87.810,18.350,4.810,2.158,142.800,36.010,8.867,4.243,baseline
1336.000,259.600,59.060,20.510,1522.000,272.900,60.770,17.690,85.280,18.480,4.755,2.172,145.500,36.190,8.867,4.213,baseline
1348.000,261.400,60.240,20.750,1529.000,274.300,60.480,17.740,86.830,18.460,4.850,2.172,144.800,36.020,8.892,4.248,baseline
1359.000,263.400,60.690,21.050,1542.000,275.300,60.910,17.850,87.590,18.670,4.765,2.197,145.300,36.420,8.952,4.298,baseline
1369.000,264.600,60.220,20.650,1524.000,273.000,59.680,17.530,88.150,18.690,4.835,2.149,145.400,36.140,8.933,4.249,baseline
1329.000,257.400,57.040,20.140,1512.000,271.100,59.670,17.530,90.220,18.680,4.766,2.151,145.600,36.020,8.724,4.211,baseline
1325.000,255.600,58.420,20.200,1509.000,270.900,59.360,17.630,89.990,18.350,4.705,2.171,144.200,36.210,8.741,4.215,baseline
1332.000,256.600,59.590,20.450,1514.000,271.000,59.100,17.560,86.770,18.460,4.749,2.169,142.900,36.170,8.742,4.258,baseline
1329.000,255.800,58.060,20.340,1518.000,270.700,58.670,17.590,87.720,18.400,4.691,2.136,145.100,35.850,8.643,4.222,baseline
1331.000,257.400,58.140,20.400,1517.000,272.200,59.060,17.680,87.520,18.720,4.731,2.165,144.100,35.990,8.869,4.239,baseline
1341.000,261.000,58.890,20.640,1527.000,273.000,60.050,17.680,87.620,18.560,4.789,2.146,144.600,35.960,8.963,4.227,baseline
1352.000,261.500,60.080,20.940,1535.000,273.900,61.500,17.810,86.660,18.310,4.739,2.183,146.700,36.450,8.731,4.254,baseline
1364.000,263.900,60.950,21.040,1536.000,275.200,60.560,17.780,87.250,18.240,4.763,2.153,147.600,36.120,8.910,4.250,baseline
1353.000,261.100,57.500,20.450,1517.000,271.400,59.210,17.570,86.840,18.330,4.780,2.159,144.900,36.200,8.793,4.200,baseline
1324.000,254.800,57.890,20.270,1505.000,270.800,59.640,17.570,85.830,18.400,4.712,2.178,143.900,35.710,8.865,4.223,baseline
1331.000,257.500,58.510,20.490,1519.000,272.500,59.680,17.640,86.360,18.340,4.678,2.187,144.700,35.970,8.901,4.198,baseline
1337.000,257.400,58.540,20.410,1516.000,271.300,60.050,17.590,86.240,18.240,4.766,2.151,144.500,35.990,8.822,4.223,baseline
1331.000,257.200,58.250,20.390,1520.000,271.200,59.570,17.550,91.310,18.120,4.685,2.152,145.500,35.890,8.803,4.262,baseline
1341.000,259.200,59.820,20.530,1521.000,272.300,60.450,17.760,90.200,18.330,4.699,2.176,145.600,36.050,8.853,4.271,baseline
1350.000,264.100,58.550,20.780,1532.000,273.000,60.570,17.770,87.930,18.280,4.696,2.133,145.500,36.380,8.968,4.309,baseline
1358.000,265.700,59.750,20.930,1525.000,274.500,61.070,17.920,85.960,18.370,4.743,2.173,146.500,36.240,9.008,4.277,baseline
1361.000,261.300,59.910,20.690,1516.000,272.200,58.850,17.560,84.660,18.290,4.722,2.169,145.800,36.000,8.903,4.245,baseline
1327.000,256.100,59.330,20.220,1506.000,271.400,59.750,17.540,87.710,18.380,4.747,2.152,147.200,36.040,8.831,4.263,baseline
1329.000,257.300,58.070,20.490,1512.000,272.400,59.420,17.630,86.480,18.420,4.678,2.168,146.000,35.950,8.817,4.255,baseline
1343.000,259.300,60.050,20.390,1519.000,271.100,59.780,17.630,88.610,18.460,4.788,2.106,145.300,35.760,8.836,4.225,baseline
1336.000,260.900,58.510,20.570,1512.000,272.100,59.450,17.620,86.530,18.560,4.737,2.134,145.400,36.200,8.831,4.243,baseline
1341.000,261.100,58.040,20.720,1523.000,273.200,59.530,17.650,90.420,18.150,4.744,2.195,146.500,36.540,9.087,4.267,baseline
1355.000,261.700,59.860,20.810,1533.000,273.600,60.580,17.770,84.940,18.620,4.692,2.174,146.100,36.170,8.765,4.285,baseline
1365.000,266.500,61.930,21.100,1538.000,274.600,60.900,17.840,88.700,18.150,4.769,2.163,146.100,36.370,9.045,4.327,baseline
1368.000,264.700,61.480,20.780,1522.000,270.100,59.740,17.560,88.460,18.030,4.712,2.169,145.200,36.000,8.912,4.257,baseline
1328.000,257.300,58.070,20.420,1511.000,268.600,59.480,17.490,86.920,18.310,4.779,2.145,145.300,35.960,8.858,4.282,baseline
1329.000,257.900,59.160,20.440,1508.000,270.200,59.430,17.550,87.270,18.080,4.659,2.151,145.300,36.260,8.759,4.265,baseline
1336.000,260.100,57.530,20.440,1513.000,270.000,58.250,17.590,85.350,18.290,4.682,2.156,145.400,35.770,8.831,4.207,baseline
1330.000,257.500,57.480,20.320,1513.000,270.700,58.600,17.520,87.240,18.300,4.652,2.146,144.100,35.790,8.864,4.267,baseline
1335.000,257.600,58.290,20.520,1515.000,271.300,60.100,17.750,84.630,17.950,4.659,2.151,146.000,36.210,8.956,4.228,baseline
1346.000,259.700,59.170,20.860,1526.000,273.700,60.150,17.730,85.080,18.230,4.641,2.139,146.400,35.920,9.039,4.310,baseline
1355.000,262.500,59.090,20.920,1525.000,273.700,60.980,17.840,86.470,18.270,4.701,2.153,145.900,36.230,8.838,4.328,baseline
1363.000,264.500,59.740,20.720,1512.000,271.300,59.330,17.510,84.930,18.030,4.674,2.132,147.000,35.990,8.885,4.308,baseline
1322.000,255.600,56.880,20.200,1501.000,268.000,59.240,17.470,85.350,17.950,4.733,2.138,144.900,35.870,8.789,4.215,baseline
1320.000,256.000,58.320,20.340,1509.000,269.600,59.290,17.490,84.710,18.020,4.719,2.136,144.700,36.260,9.049,4.266,baseline
1327.000,256.300,58.350,20.330,1510.000,269.700,58.260,17.510,84.550,18.080,4.641,2.163,144.800,35.920,8.860,4.197,baseline
1319.000,257.000,58.600,20.190,1506.000,267.900,58.320,17.510,83.750,18.420,4.650,2.149,144.300,35.780,8.883,4.264,baseline
1323.000,256.200,57.990,20.210,1510.000,269.600,59.530,17.650,87.470,17.990,4.655,2.140,145.000,35.910,8.842,4.280,baseline
1332.000,258.800,58.010,20.430,1513.000,272.200,58.880,17.600,86.820,18.150,4.715,2.171,146.600,35.990,8.849,4.326,baseline
1343.000,260.500,58.800,20.460,1518.000,272.600,59.230,17.780,84.370,17.920,4.735,2.167,145.200,35.820,8.815,4.310,baseline
1353.000,261.700,60.470,20.900,1525.000,272.000,58.930,17.570,84.950,17.830,4.753,2.144,146.000,36.070,8.935,4.244,baseline
1330.000,255.900,57.880,20.190,1497.000,267.900,58.770,17.460,87.380,18.020,4.679,2.133,146.000,36.340,8.805,4.204,baseline
1310.000,254.400,57.970,20.190,1495.000,268.100,59.130,17.510,87.170,18.000,4.649,2.123,145.300,35.890,8.773,4.185,baseline
1319.000,256.400,55.910,20.380,1509.000,269.500,59.420,17.410,85.160,18.010,4.636,2.123,144.900,35.990,8.800,4.235,baseline
1319.000,254.200,57.400,20.130,1497.000,268.200,59.000,17.360,87.080,18.270,4.684,2.152,144.300,35.760,8.733,4.208,baseline
1316.000,253.400,58.250,20.280,1501.000,268.900,58.440,17.510,84.030,17.900,4.682,2.135,144.400,35.790,8.727,4.239,baseline
1324.000,256.400,58.500,20.380,1510.000,269.800,60.170,17.560,85.310,18.020,4.702,2.118,145.200,35.780,8.977,4.231,baseline
1332.000,257.200,56.540,20.490,1512.000,270.500,59.250,17.660,83.410,18.160,4.620,2.123,145.600,35.940,8.827,4.271,baseline
1341.000,261.900,60.870,20.650,1516.000,271.400,59.660,17.660,83.670,18.100,4.658,2.134,146.600,36.370,8.934,4.296,baseline
1336.000,256.800,58.580,20.350,1503.000,268.100,59.030,17.390,87.060,17.880,4.697,2.104,145.100,35.920,8.869,4.225,baseline
1306.000,251.900,59.310,20.050,1496.000,267.300,58.110,17.330,85.080,17.960,4.672,2.133,144.800,35.500,8.808,4.234,baseline
1312.000,254.100,58.440,20.180,1503.000,268.800,59.190,17.440,81.220,18.060,4.628,2.125,144.100,35.470,8.819,4.249,baseline
1321.000,255.900,57.500,20.240,1507.000,269.100,57.890,17.360,84.510,18.240,4.690,2.138,145.300,35.880,8.857,4.249,baseline
1315.000,255.700,56.900,20.230,1495.000,268.800,59.240,17.480,83.550,18.150,4.686,2.115,144.600,35.570,8.797,4.248,baseline
1323.000,256.800,58.480,20.400,1506.000,270.800,58.840,17.510,81.640,17.870,4.635,2.164,145.500,35.930,8.858,4.253,baseline
1333.000,258.400,58.980,20.590,1516.000,270.500,59.710,17.640,82.550,18.090,4.624,2.143,146.300,35.830,8.888,4.241,baseline
1344.000,261.900,58.440,20.680,1516.000,271.600,60.790,17.690,85.570,17.880,4.656,2.129,146.400,35.820,9.056,4.316,baseline
1341.000,257.000,57.950,20.370,1504.000,266.900,58.110,17.390,89.000,18.190,4.676,2.132,145.700,36.090,8.778,4.193,baseline
1305.000,254.500,57.320,19.970,1496.000,267.400,58.640,17.380,86.920,18.080,4.663,2.137,144.300,35.740,8.696,4.222,baseline
1307.000,253.800,56.890,20.010,1495.000,267.800,59.510,17.390,85.360,17.960,4.660,2.093,144.200,35.710,8.847,4.235,baseline
1314.000,254.200,58.550,20.110,1499.000,267.000,57.690,17.350,85.390,17.910,4.643,2.109,145.100,35.500,8.897,4.260,baseline
1309.000,254.200,57.510,19.980,1502.000,267.900,58.100,17.380,87.770,17.740,4.606,2.118,144.900,36.310,8.753,4.236,baseline
1315.000,256.700,58.410,20.270,1501.000,268.500,58.960,17.420,87.140,18.050,4.570,2.171,143.000,35.890,8.784,4.277,baseline
1324.000,257.600,58.530,20.410,1509.000,270.300,59.580,17.600,83.680,18.010,4.602,2.110,144.400,35.710,8.775,4.233,baseline
1336.000,259.800,58.840,20.700,1509.000,269.600,59.710,17.650,85.060,17.790,4.633,2.133,144.500,35.870,8.922,4.223,baseline
1346.000,261.300,58.300,20.500,1512.000,269.300,59.560,17.320,86.420,17.810,4.583,2.135,144.500,35.840,8.714,4.258,baseline
1309.000,252.100,56.580,19.900,1493.000,265.900,58.030,17.260,87.400,18.060,4.656,2.094,144.100,35.480,8.720,4.185,baseline
1302.000,253.000,56.310,20.020,1490.000,267.000,57.310,17.360,86.500,17.850,4.674,2.121,143.200,36.150,8.737,4.169,baseline
1307.000,252.600,57.520,20.060,1500.000,266.700,58.100,17.350,87.780,17.920,4.654,2.114,142.900,35.770,8.618,4.204,baseline
1306.000,253.300,56.890,20.010,1495.000,267.400,58.750,17.330,83.030,18.290,4.575,2.107,144.400,35.560,8.690,4.226,baseline
1307.000,254.400,56.790,20.180,1499.000,267.200,58.670,17.420,82.680,17.790,4.660,2.117,145.200,35.440,8.728,4.195,baseline
1317.000,254.300,58.120,20.170,1500.000,269.200,58.740,17.490,83.670,17.650,4.618,2.119,144.500,35.640,8.793,4.229,baseline
1328.000,258.900,58.740,20.390,1509.000,271.100,59.160,17.600,87.650,17.790,4.621,2.096,144.600,35.790,8.919,4.232,baseline
1339.000,259.600,60.200,20.700,1517.000,272.000,59.650,17.630,85.070,17.850,4.617,2.117,143.100,35.870,8.736,4.236,baseline
1343.000,259.300,57.630,20.320,1510.000,267.900,58.080,17.360,88.240,17.960,4.583,2.144,145.300,35.660,8.749,4.232,baseline
1305.000,250.700,56.660,20.000,1495.000,266.600,58.570,17.290,87.290,17.300,4.521,2.134,143.700,35.480,8.674,4.186,baseline
1306.000,253.800,58.250,20.210,1494.000,267.900,58.880,17.400,83.230,17.740,4.570,2.117,145.900,35.260,8.826,4.184,baseline
1317.000,254.400,56.910,20.220,1494.000,267.200,59.100,17.370,83.460,18.330,4.566,2.091,142.900,35.510,8.765,4.180,baseline
1308.000,254.400,58.230,20.010,1498.000,267.600,59.180,17.440,84.190,17.870,4.589,2.099,143.700,35.520,8.655,4.214,baseline
1313.000,254.200,58.290,20.210,1503.000,268.700,59.400,17.560,84.940,17.830,4.622,2.084,144.700,35.600,8.744,4.181,baseline
1323.000,256.300,56.770,20.290,1500.000,270.100,59.270,17.500,83.570,17.810,4.539,2.102,144.400,35.270,8.655,4.185,baseline
1327.000,257.000,58.330,20.430,1506.000,270.700,58.090,17.560,84.720,17.560,4.593,2.109,144.800,35.900,8.934,4.223,baseline
1333.000,257.600,59.450,20.370,1508.000,268.100,58.450,17.340,86.470,18.050,4.551,2.084,144.200,35.570,8.782,4.181,baseline
1309.000,251.500,56.190,19.840,1499.000,266.600,57.410,17.300,82.110,17.880,4.626,2.104,142.600,35.260,8.654,4.152,baseline
1299.000,251.400,57.020,19.940,1491.000,267.000,58.920,17.390,86.170,17.780,4.535,2.119,143.000,35.500,8.593,4.197,baseline
1309.000,252.700,57.460,20.080,1496.000,267.900,58.260,17.400,83.740,17.460,4.532,2.086,144.300,35.830,8.705,4.230,baseline
1310.000,253.500,56.710,20.170,1499.000,266.900,58.980,17.370,85.140,17.900,4.593,2.108,143.000,35.320,8.656,4.195,baseline
1312.000,253.400,58.040,20.280,1494.000,267.400,59.750,17.500,86.210,17.560,4.513,2.105,143.600,35.190,8.649,4.190,baseline
1322.000,257.500,57.810,20.370,1501.000,269.100,60.160,17.640,85.790,18.040,4.633,2.103,144.100,35.620,8.587,4.176,baseline
1332.000,259.600,57.220,20.450,1516.000,269.200,59.200,17.690,88.930,17.620,4.620,2.116,144.000,35.690,8.777,4.268,baseline
1337.000,260.300,57.730,20.310,1507.000,268.400,58.990,17.400,85.490,17.720,4.534,2.118,144.900,35.580,8.716,4.222,baseline
1303.000,252.300,55.780,19.880,1491.000,266.700,58.510,17.390,82.230,17.550,4.594,2.103,143.200,35.460,8.615,4.150,baseline
1302.000,252.300,56.400,20.010,1494.000,267.100,59.240,17.530,87.830,17.820,4.488,2.081,142.800,35.370,8.721,4.221,baseline
1312.000,253.300,57.720,20.190,1497.000,267.400,59.610,17.620,85.280,17.570,4.550,2.085,144.700,35.190,8.557,4.181,baseline
1310.000,252.900,58.110,20.180,1495.000,266.500,58.710,17.520,86.190,17.420,4.593,2.119,144.200,35.440,8.743,4.177,baseline
1314.000,252.700,58.990,20.280,1510.000,268.300,58.590,17.570,84.310,17.440,4.568,2.092,144.900,35.460,8.624,4.183,baseline
1325.000,259.100,59.240,20.570,1508.000,270.700,59.240,17.670,82.200,17.690,4.635,2.096,142.600,35.840,8.622,4.287,baseline
1339.000,258.900,59.160,20.760,1513.000,270.700,59.310,17.560,86.510,17.390,4.629,2.108,144.000,35.860,8.832,4.194,baseline
1316.000,254.500,55.860,20.010,1490.000,266.100,58.150,17.380,84.960,17.540,4.540,2.079,143.300,35.070,8.524,4.130,baseline
1300.000,250.800,56.950,20.070,1490.000,267.000,58.310,17.400,83.770,17.490,4.557,2.080,143.200,35.070,8.565,4.129,baseline
1307.000,253.500,57.410,20.220,1489.000,268.100,59.030,17.510,82.290,17.550,4.499,2.072,142.900,35.130,8.707,4.149,baseline
