A-DC1,A-DC2,A-DC3,A-DC4,A-DC5,A-DC6,A-DC7,A-DC8,B-DC1,B-DC2,B-DC3,B-DC4,B-DC5,B-DC6,B-DC7,B-DC8,condition
1374.000,332.800,83.440,22.380,1437.000,301.000,75.850,18.090,136.200,63.340,18.740,7.121,410.100,113.700,33.560,13.220,baseline
1377.000,334.800,81.930,22.510,1444.000,301.100,75.310,18.170,133.500,63.430,18.810,7.170,412.900,113.800,33.590,13.220,baseline
1378.000,333.700,81.890,22.380,1448.000,300.500,75.910,18.150,132.500,63.480,18.780,7.129,408.600,112.700,33.130,12.980,baseline
1373.000,332.900,83.270,22.250,1441.000,299.200,75.170,18.100,136.000,63.090,18.720,7.098,406.400,111.800,33.120,12.950,baseline
1370.000,330.800,81.560,22.270,1436.000,299.800,75.630,18.120,136.700,63.330,18.660,7.130,406.800,112.300,33.040,12.990,baseline
1368.000,331.300,82.260,22.190,1430.000,299.100,75.430,18.020,131.400,63.190,18.710,7.144,406.400,112.100,33.110,12.970,baseline
1359.000,330.300,80.620,22.000,1420.000,296.300,74.290,17.820,135.000,63.020,18.740,7.135,407.500,112.100,33.080,13.000,baseline
1345.000,326.900,81.080,21.840,1411.000,294.600,74.050,17.740,135.600,63.330,18.770,7.143,407.200,112.800,33.170,13.020,baseline
1336.000,323.900,78.250,21.680,1408.000,293.200,74.560,17.750,133.000,63.170,18.900,7.188,408.400,113.000,33.300,13.090,baseline
1334.000,324.000,78.560,21.810,1408.000,293.400,73.930,17.830,135.800,63.130,18.860,7.140,407.100,112.200,32.960,12.880,baseline
1345.000,328.000,79.180,22.020,1432.000,297.800,75.280,18.010,133.500,63.070,18.760,7.147,404.300,111.600,32.750,12.890,baseline
1360.000,329.700,80.960,22.080,1438.000,298.400,74.890,18.110,133.500,63.100,18.640,7.135,404.800,111.500,32.930,12.910,baseline
1364.000,330.300,81.220,22.120,1440.000,299.100,75.360,18.160,133.100,63.180,18.770,7.143,404.800,111.900,32.920,12.910,baseline
1365.000,330.600,81.180,22.160,1437.000,299.400,75.720,18.150,136.400,63.120,18.830,7.182,406.100,111.900,33.060,12.970,baseline
1365.000,331.300,81.080,22.170,1435.000,300.000,76.060,18.180,134.200,63.630,18.920,7.212,407.600,112.500,33.200,13.010,baseline
1367.000,333.100,82.070,22.350,1444.000,299.300,74.960,18.170,135.100,63.390,18.840,7.208,407.500,112.900,33.380,13.130,baseline
1372.000,333.800,82.490,22.360,1437.000,300.000,75.870,18.180,135.500,63.870,18.950,7.201,409.200,112.900,33.400,12.990,baseline
1368.000,330.100,81.890,22.340,1438.000,299.400,76.130,18.210,134.600,63.200,18.800,7.179,405.100,111.900,32.860,12.910,baseline
1368.000,332.900,81.410,22.300,1434.000,299.000,76.410,18.190,133.900,62.980,18.790,7.150,404.500,111.800,32.790,12.900,baseline
1368.000,332.100,80.740,22.240,1440.000,299.900,76.490,18.230,134.700,63.000,18.800,7.159,405.500,111.800,32.950,12.960,baseline
1368.000,332.600,82.570,22.290,1439.000,300.100,75.910,18.230,133.100,63.410,18.890,7.160,405.800,112.000,33.070,12.960,baseline
1371.000,332.500,81.640,22.330,1442.000,300.300,76.650,18.260,131.900,63.680,18.830,7.214,407.100,112.600,33.160,13.020,baseline
1372.000,331.900,83.240,22.360,1439.000,300.200,76.700,18.290,133.900,63.440,18.890,7.205,407.200,112.800,33.360,13.110,baseline
1375.000,334.800,83.830,22.440,1435.000,300.200,76.350,18.380,135.600,63.270,18.870,7.203,408.400,113.000,33.420,13.160,baseline
1375.000,333.200,82.370,22.480,1434.000,299.600,75.940,18.230,133.900,63.300,18.770,7.170,406.700,112.400,33.200,12.940,baseline
1370.000,332.000,82.080,22.180,1444.000,301.200,75.730,18.320,133.500,63.220,18.840,7.154,403.900,111.900,33.070,12.880,baseline
1369.000,330.300,83.570,22.300,1443.000,299.700,76.370,18.340,135.000,63.220,18.720,7.173,404.200,111.900,33.030,12.960,baseline
1371.000,333.800,82.400,22.330,1441.000,300.600,76.310,18.250,133.200,63.410,18.740,7.183,405.000,112.300,33.010,12.970,baseline
1370.000,332.300,81.840,22.290,1440.000,300.800,76.900,18.310,134.100,63.180,18.810,7.174,405.900,112.200,33.130,12.980,baseline
1374.000,332.500,82.980,22.380,1442.000,300.900,76.440,18.340,135.900,63.220,18.850,7.204,405.800,112.900,33.220,13.070,baseline
1376.000,332.800,81.040,22.450,1446.000,300.800,76.580,18.380,134.500,63.050,18.870,7.212,408.500,113.100,33.400,13.190,baseline
1377.000,333.400,81.860,22.500,1444.000,301.600,76.470,18.400,134.700,63.690,18.920,7.209,410.400,113.300,33.630,13.210,baseline
1379.000,335.400,82.900,22.400,1443.000,300.300,77.050,18.340,138.900,63.360,18.860,7.166,408.000,112.600,33.090,12.930,baseline
1372.000,333.500,81.940,22.260,1440.000,301.500,76.260,18.280,136.300,63.120,18.740,7.136,405.200,111.900,32.970,12.860,baseline
1372.000,334.500,81.930,22.330,1445.000,300.000,75.760,18.310,132.500,62.950,18.730,7.131,405.300,111.700,32.830,12.940,baseline
1371.000,333.800,81.890,22.210,1444.000,300.800,76.260,18.320,135.900,63.350,18.810,7.164,404.700,111.900,32.950,12.930,baseline
1371.000,332.500,82.620,22.330,1445.000,301.000,75.640,18.340,136.100,63.010,18.790,7.169,405.100,112.200,33.030,12.960,baseline
1373.000,332.500,81.390,22.330,1443.000,301.300,76.430,18.340,132.100,63.150,18.860,7.188,405.700,112.400,33.140,13.050,baseline
1375.000,333.300,83.130,22.440,1444.000,301.300,77.140,18.390,136.100,63.430,18.840,7.184,407.900,113.000,33.360,13.050,baseline
1378.000,334.100,82.660,22.630,1446.000,300.800,76.570,18.370,135.800,63.270,18.810,7.206,410.100,113.400,33.460,13.150,baseline
1380.000,334.200,81.690,22.590,1449.000,301.800,76.500,18.320,133.700,63.490,18.820,7.214,408.900,112.900,33.200,13.030,baseline
1375.000,333.200,80.470,22.320,1447.000,300.600,76.280,18.300,135.600,63.120,18.820,7.177,405.600,112.000,33.020,12.940,baseline
1374.000,332.600,82.220,22.270,1443.000,300.800,76.590,18.280,135.800,62.990,18.810,7.166,404.700,111.700,32.850,12.950,baseline
1373.000,331.900,81.060,22.300,1439.000,300.500,76.510,18.340,135.000,63.020,18.760,7.174,405.000,111.900,32.960,12.940,baseline
1373.000,333.700,82.710,22.260,1443.000,301.400,76.530,18.280,134.200,63.300,18.820,7.176,406.300,112.000,33.010,13.000,baseline
1375.000,334.300,82.710,22.370,1447.000,301.500,76.630,18.320,136.600,63.300,18.830,7.202,406.600,112.500,33.100,13.020,baseline
1377.000,335.200,81.740,22.360,1439.000,300.500,76.310,18.390,134.400,63.520,18.910,7.205,407.700,112.600,33.370,13.140,baseline
1379.000,335.800,83.060,22.450,1446.000,302.800,76.290,18.340,132.800,63.400,18.930,7.220,409.600,113.100,33.530,13.130,baseline
1382.000,333.200,83.680,22.470,1450.000,302.000,76.440,18.390,137.000,63.440,18.970,7.221,409.800,113.900,33.690,13.140,baseline
1381.000,332.900,82.940,22.370,1445.000,302.000,76.440,18.240,135.900,63.570,18.800,7.159,407.200,112.300,32.960,12.990,baseline
1374.000,332.800,80.980,22.340,1444.000,301.700,76.240,18.290,135.200,63.440,18.800,7.174,404.600,112.400,33.140,12.870,baseline
1374.000,331.900,82.220,22.300,1443.000,300.100,76.040,18.280,136.700,63.190,18.830,7.165,405.100,112.000,33.090,12.870,baseline
1375.000,332.700,83.360,22.250,1442.000,301.000,76.740,18.310,133.800,62.930,18.810,7.186,405.700,112.300,33.100,12.930,baseline
1373.000,332.500,80.810,22.360,1447.000,301.100,76.150,18.320,134.900,63.260,18.880,7.203,406.800,112.400,33.040,13.010,baseline
1376.000,333.000,83.500,22.380,1451.000,301.600,77.420,18.280,135.500,63.100,18.900,7.207,408.500,112.800,33.230,13.020,baseline
1375.000,332.300,81.210,22.540,1447.000,301.700,76.440,18.290,137.000,63.580,18.950,7.207,409.700,112.900,33.440,13.140,baseline
1380.000,334.700,82.110,22.470,1442.000,301.300,76.500,18.370,134.700,63.640,18.920,7.226,411.200,113.500,33.560,13.210,baseline
1380.000,335.500,83.290,22.410,1447.000,301.400,76.310,18.220,135.700,63.910,18.940,7.202,409.700,112.600,33.060,12.950,baseline
1373.000,332.900,81.500,22.320,1446.000,300.300,75.600,18.190,137.500,63.290,18.760,7.150,406.300,111.900,32.850,12.890,baseline
1372.000,333.500,82.740,22.210,1447.000,301.400,75.180,18.190,134.300,63.260,18.810,7.141,404.800,111.900,32.850,12.850,baseline
1371.000,332.800,81.540,22.170,1439.000,301.100,76.290,18.180,135.500,63.190,18.850,7.170,405.700,111.900,32.810,12.830,baseline
1370.000,332.000,83.310,22.200,1443.000,300.700,76.490,18.140,137.600,63.440,18.820,7.141,404.400,111.900,33.070,12.920,baseline
1372.000,332.300,82.170,22.270,1440.000,300.800,76.410,18.290,134.200,63.840,18.830,7.176,406.300,112.300,33.060,13.010,baseline
1374.000,332.200,82.450,22.320,1444.000,301.000,77.720,18.210,134.800,63.580,18.930,7.196,408.600,112.700,33.310,13.040,baseline
1374.000,333.700,82.280,22.330,1443.000,301.700,76.880,18.220,137.700,63.240,18.930,7.213,409.900,113.200,33.400,13.150,baseline
1376.000,334.100,82.310,22.400,1444.000,301.200,76.140,18.190,135.000,63.910,18.890,7.219,408.800,113.500,33.240,13.000,baseline
1372.000,332.600,81.470,22.180,1452.000,300.400,75.940,18.170,133.700,63.490,18.830,7.139,405.100,112.200,32.900,12.850,baseline
1368.000,331.700,82.390,22.170,1440.000,299.900,75.790,18.150,136.900,63.060,18.910,7.151,403.900,111.500,32.700,12.820,baseline
1366.000,332.000,81.890,22.160,1438.000,301.000,76.310,18.190,135.100,63.700,18.830,7.150,405.000,112.100,32.950,12.910,baseline
1368.000,332.600,81.000,22.180,1438.000,300.400,75.420,18.190,134.500,63.360,18.740,7.173,404.500,111.900,32.950,12.890,baseline
1368.000,331.900,81.280,22.190,1444.000,299.700,76.120,18.140,137.200,63.290,18.890,7.168,406.100,112.100,33.230,12.940,baseline
1370.000,331.500,81.210,22.260,1440.000,300.600,75.710,18.240,135.300,63.390,18.870,7.202,408.200,112.300,33.120,13.060,baseline
1372.000,333.500,82.610,22.390,1438.000,300.900,75.960,18.230,136.000,63.480,18.940,7.200,410.000,113.100,33.410,13.170,baseline
1375.000,331.900,82.420,22.420,1447.000,300.800,77.460,18.250,136.000,64.090,18.960,7.220,411.100,113.600,33.710,13.190,baseline
1377.000,331.000,81.260,22.340,1439.000,300.800,75.640,18.120,137.200,63.610,18.900,7.193,408.400,112.400,33.010,12.940,baseline
1368.000,330.500,80.160,22.120,1440.000,299.800,76.860,18.130,133.800,63.630,18.710,7.134,404.300,112.400,32.840,12.910,baseline
1368.000,332.100,80.440,22.140,1434.000,300.500,75.930,18.130,136.100,63.240,18.750,7.131,404.500,111.900,32.960,12.890,baseline
1369.000,331.400,81.860,22.140,1435.000,300.400,75.460,18.110,136.100,63.320,18.830,7.143,406.100,111.900,32.940,12.930,baseline
1368.000,331.600,82.780,22.280,1442.000,299.500,76.240,18.150,136.800,63.110,18.790,7.156,407.000,112.300,33.140,13.000,baseline
1370.000,331.700,81.730,22.260,1439.000,299.500,75.650,18.180,136.200,63.320,18.830,7.147,408.500,112.600,33.300,13.090,baseline
1371.000,332.000,83.640,22.300,1439.000,300.100,75.630,18.160,139.300,63.330,18.860,7.161,411.600,113.400,33.420,13.170,baseline
1375.000,332.700,82.410,22.350,1438.000,300.500,75.440,18.170,136.700,63.610,18.840,7.176,411.400,113.600,33.550,13.250,baseline
1376.000,333.000,82.620,22.350,1448.000,299.900,76.610,18.110,134.200,63.550,18.920,7.157,410.200,113.000,33.350,13.020,baseline
1369.000,332.000,82.260,22.220,1438.000,299.600,75.540,18.120,136.300,63.200,18.720,7.090,404.800,112.200,33.070,12.940,baseline
1368.000,330.600,81.360,22.290,1435.000,300.100,75.690,18.070,137.400,63.250,18.700,7.075,406.300,112.000,33.130,13.000,baseline
1369.000,331.200,79.970,22.290,1439.000,299.500,75.890,18.110,136.500,63.160,18.680,7.094,407.500,112.400,33.210,13.000,baseline
1369.000,329.600,81.790,22.340,1438.000,299.800,75.940,18.100,137.900,63.310,18.650,7.080,407.400,112.600,33.340,13.010,baseline
1371.000,332.500,82.400,22.310,1437.000,300.100,75.890,18.080,135.500,62.960,18.630,7.070,407.100,112.200,33.200,13.080,baseline
1372.000,332.500,79.300,22.370,1442.000,300.100,76.320,18.080,134.800,63.070,18.630,7.086,409.000,112.900,33.480,13.190,baseline
1378.000,333.500,83.080,22.490,1443.000,299.600,76.180,18.080,137.200,63.310,18.720,7.110,411.800,113.600,33.630,13.300,baseline
1381.000,334.200,81.790,22.520,1441.000,300.500,76.730,18.160,137.200,63.060,18.750,7.085,411.600,112.900,33.240,13.050,baseline
1374.000,331.900,82.630,22.310,1433.000,300.100,75.980,18.090,135.300,62.830,18.550,7.015,407.000,112.000,32.880,12.970,baseline
1372.000,332.200,82.680,22.300,1444.000,300.900,76.060,18.110,135.600,62.730,18.620,7.033,406.700,111.900,33.050,13.000,baseline
1373.000,330.800,83.440,22.190,1439.000,300.000,75.530,18.090,136.700,62.930,18.560,7.037,407.100,112.300,33.050,13.010,baseline
1373.000,332.600,80.970,22.340,1442.000,300.600,75.820,18.090,136.600,62.660,18.600,7.068,406.000,112.100,33.010,13.030,baseline
1372.000,333.300,83.320,22.390,1443.000,300.600,75.770,18.120,135.900,63.000,18.620,7.069,408.000,112.200,33.220,13.110,baseline
1375.000,332.200,83.660,22.530,1437.000,300.400,75.880,18.110,138.900,62.890,18.580,7.086,410.100,113.200,33.590,13.260,baseline
1375.000,332.200,81.650,22.580,1440.000,299.700,76.190,18.120,137.300,62.930,18.650,7.118,412.300,114.000,33.660,13.320,baseline
1379.000,333.500,81.220,22.450,1439.000,299.800,76.150,18.050,135.500,63.460,18.710,7.091,409.800,112.900,33.310,13.050,baseline
1368.000,330.400,81.820,22.210,1434.000,298.000,75.870,17.970,138.600,62.730,18.500,7.033,405.400,112.000,33.030,12.980,baseline
1362.000,333.200,82.670,22.150,1426.000,297.400,75.000,17.870,135.800,62.840,18.540,7.005,407.400,112.000,33.150,13.010,baseline
1359.000,329.600,82.050,22.000,1428.000,297.500,74.820,17.900,136.200,62.860,18.590,7.032,408.700,112.100,33.080,13.110,baseline
1358.000,329.000,81.750,22.130,1430.000,296.400,75.170,17.950,136.600,62.990,18.550,7.060,408.500,112.600,33.180,13.110,baseline
1359.000,329.800,83.620,22.120,1430.000,297.300,75.010,18.020,135.800,62.970,18.650,7.062,410.400,113.100,33.450,13.220,baseline
1366.000,330.200,81.650,22.320,1432.000,297.900,75.290,17.980,135.700,63.470,18.640,7.131,412.500,114.200,33.820,13.330,baseline
1371.000,332.300,82.800,22.420,1434.000,297.800,75.600,17.940,137.700,62.970,18.780,7.144,414.600,114.100,33.710,13.230,baseline
1365.000,331.600,82.370,22.230,1433.000,297.000,75.430,17.850,138.800,62.910,18.620,7.042,409.000,112.600,33.220,13.030,baseline
1360.000,329.000,80.430,22.160,1424.000,297.000,75.100,17.860,134.700,63.140,18.550,7.043,407.300,112.300,33.040,12.950,baseline
1358.000,329.500,79.260,22.210,1423.000,296.500,75.210,17.860,135.300,62.750,18.540,7.052,408.300,112.200,33.170,13.050,baseline
1358.000,330.000,79.100,22.120,1430.000,296.600,74.930,17.860,137.100,63.080,18.620,7.052,408.500,112.900,33.130,13.050,baseline
1362.000,330.100,80.760,22.210,1437.000,298.400,75.760,17.930,137.200,63.030,18.590,7.072,409.200,112.900,33.300,13.200,baseline
1368.000,331.100,82.000,22.350,1430.000,298.700,75.710,18.000,135.400,63.170,18.650,7.114,409.500,113.200,33.540,13.160,baseline
1373.000,332.600,82.400,22.430,1437.000,297.800,75.380,17.950,137.200,63.370,18.750,7.097,412.100,114.000,33.590,13.230,baseline
1373.000,332.900,83.660,22.340,1434.000,297.600,75.530,17.950,139.000,63.200,18.570,7.048,407.000,112.300,32.960,12.950,baseline
1367.000,331.800,80.740,22.180,1434.000,298.600,76.070,17.950,135.700,62.850,18.520,7.001,405.700,111.800,32.790,12.900,baseline
1364.000,329.200,81.340,22.200,1434.000,298.300,75.120,17.910,136.900,62.650,18.530,7.029,406.000,111.500,33.050,12.970,baseline
1364.000,330.800,82.200,22.320,1434.000,297.900,75.630,17.970,139.500,63.080,18.550,7.037,407.400,111.800,33.040,12.980,baseline
1365.000,330.300,82.140,22.220,1435.000,298.100,75.160,17.880,136.600,63.050,18.640,7.045,407.000,112.100,33.150,13.000,baseline
1367.000,330.500,83.430,22.360,1432.000,298.200,75.720,18.020,139.200,62.990,18.640,7.067,408.900,112.700,33.260,13.030,baseline
1369.000,331.900,82.140,22.390,1426.000,298.600,75.630,18.010,140.000,62.990,18.660,7.084,410.200,113.300,33.440,13.190,baseline
1371.000,332.200,81.570,22.490,1429.000,297.600,75.140,17.960,136.200,63.200,18.740,7.071,409.800,112.800,33.100,12.990,baseline
1364.000,331.400,81.880,22.180,1428.000,296.700,75.590,17.960,136.700,63.030,18.580,7.012,406.200,111.300,32.850,12.780,baseline
1363.000,330.200,81.420,22.060,1427.000,297.200,75.210,17.960,138.200,63.090,18.500,6.994,403.800,111.400,32.770,12.770,baseline
1363.000,329.500,81.970,22.100,1435.000,297.300,75.000,17.950,136.800,63.160,18.580,7.011,404.200,111.700,32.830,12.840,baseline
1362.000,329.700,80.760,22.160,1426.000,297.300,75.060,18.030,134.200,62.640,18.510,7.057,404.800,111.400,32.970,12.860,baseline
1363.000,330.000,81.330,22.170,1429.000,298.200,75.300,18.030,136.700,63.130,18.650,7.053,403.700,112.000,32.970,12.920,baseline
1365.000,331.200,82.160,22.210,1430.000,298.400,75.650,18.000,137.200,63.180,18.590,7.078,406.500,112.300,33.110,13.070,baseline
1367.000,329.100,82.020,22.300,1429.000,298.200,74.970,18.060,136.800,63.090,18.690,7.107,410.600,112.700,33.340,13.120,baseline
1369.000,331.900,81.090,22.240,1433.000,297.800,75.480,17.920,138.700,62.850,18.750,7.102,405.400,111.700,32.760,12.830,baseline
1360.000,330.000,80.350,22.110,1428.000,297.600,74.490,17.940,136.400,62.960,18.640,7.051,401.600,111.100,32.620,12.770,baseline
1360.000,329.700,80.450,22.060,1429.000,297.300,76.080,17.980,133.200,63.060,18.550,7.033,402.000,111.000,32.680,12.780,baseline
1360.000,330.600,81.210,22.030,1434.000,297.200,75.230,17.940,139.800,62.670,18.670,7.044,403.000,111.300,32.760,12.820,baseline
1359.000,329.500,80.950,22.060,1428.000,296.200,74.790,17.960,136.300,63.020,18.570,7.076,403.100,111.500,32.780,12.840,baseline
1359.000,329.300,80.960,22.100,1430.000,296.900,75.330,17.980,136.300,63.320,18.650,7.076,404.100,111.500,32.960,12.910,baseline
1364.000,329.600,81.020,22.270,1428.000,296.800,73.910,17.950,137.100,63.000,18.750,7.132,406.100,112.200,33.140,12.960,baseline
1365.000,330.700,80.730,22.280,1428.000,297.600,75.540,18.040,136.700,63.050,18.790,7.151,408.900,112.500,33.350,13.110,baseline
1367.000,330.300,80.680,22.150,1428.000,297.600,75.040,17.960,136.300,63.360,18.770,7.104,404.400,111.400,32.770,12.830,baseline
1358.000,329.700,83.900,22.060,1425.000,296.300,74.500,17.930,137.600,63.140,18.620,7.053,402.500,110.900,32.660,12.740,baseline
1359.000,327.700,80.200,22.070,1426.000,297.900,74.810,17.950,139.200,62.760,18.650,7.080,402.800,111.400,32.680,12.740,baseline
1360.000,329.800,79.710,22.150,1431.000,297.600,75.020,17.980,135.000,63.010,18.580,7.094,403.600,111.200,32.720,12.770,baseline
1359.000,329.400,81.910,22.030,1427.000,297.600,75.720,18.010,137.900,63.320,18.600,7.075,402.800,110.900,32.680,12.840,baseline
1362.000,329.400,81.860,22.170,1423.000,297.400,75.930,17.970,140.100,62.990,18.740,7.099,404.900,111.800,32.910,12.860,baseline
1364.000,331.500,80.180,22.260,1432.000,297.500,75.020,17.950,136.500,63.390,18.760,7.120,405.700,112.300,33.180,13.000,baseline
1366.000,333.400,81.650,22.360,1432.000,297.300,76.380,18.060,137.400,63.550,18.810,7.121,407.400,112.300,33.100,12.990,baseline
1364.000,328.800,82.280,22.150,1431.000,297.600,75.280,17.980,138.600,63.120,18.630,7.065,402.900,110.600,32.610,12.770,baseline
1358.000,329.500,81.030,22.000,1423.000,297.600,75.230,17.990,134.800,62.960,18.610,7.070,401.800,110.500,32.440,12.730,baseline
1358.000,330.200,80.800,21.990,1429.000,297.300,75.460,18.000,136.700,63.140,18.600,7.079,403.600,111.100,32.590,12.730,baseline
1360.000,329.700,81.470,22.050,1431.000,298.300,74.690,17.990,136.100,63.240,18.710,7.080,402.800,111.200,32.680,12.780,baseline
1361.000,329.200,81.720,22.120,1429.000,297.100,75.340,18.070,137.100,63.410,18.700,7.104,403.900,111.400,32.870,12.860,baseline
1363.000,330.100,81.190,22.190,1431.000,298.400,75.280,18.030,135.400,63.580,18.750,7.114,405.000,112.000,33.100,12.910,baseline
1366.000,330.900,80.800,22.190,1432.000,298.700,75.110,18.060,140.000,63.100,18.810,7.124,406.500,112.400,33.200,12.960,baseline
1368.000,332.300,81.820,22.310,1431.000,298.200,75.580,18.050,138.200,63.570,18.770,7.147,407.500,112.200,32.960,12.880,baseline
1361.000,329.400,80.820,22.160,1428.000,297.600,75.010,17.920,136.500,63.160,18.670,7.073,401.300,110.700,32.470,12.730,baseline
1358.000,328.800,80.390,21.990,1429.000,297.600,75.230,18.040,138.000,63.130,18.630,7.078,400.100,110.800,32.420,12.670,baseline
1360.000,330.200,80.130,22.060,1428.000,297.100,75.460,18.080,138.900,63.030,18.640,7.067,401.400,110.700,32.490,12.700,baseline
1359.000,329.300,80.210,22.030,1432.000,298.300,75.120,18.080,137.800,63.320,18.640,7.076,400.800,111.000,32.590,12.790,baseline
1361.000,329.700,80.600,22.080,1429.000,297.400,75.510,18.070,136.400,63.130,18.780,7.108,401.100,111.000,32.740,12.790,baseline
1361.000,330.300,81.170,22.110,1432.000,298.700,75.050,18.080,138.800,63.180,18.770,7.133,403.200,111.700,32.870,12.900,baseline
1364.000,330.000,80.880,22.210,1431.000,298.600,75.190,18.120,137.400,63.340,18.810,7.148,405.300,112.200,33.040,13.000,baseline
1367.000,331.200,80.650,22.270,1437.000,298.700,75.350,18.110,135.700,63.680,18.840,7.155,406.300,111.900,32.830,12.800,baseline
1362.000,329.300,82.670,22.060,1432.000,298.200,75.500,18.040,139.200,63.200,18.670,7.096,400.900,110.800,32.540,12.740,baseline
1359.000,328.100,82.140,22.070,1428.000,298.600,74.720,18.060,136.300,63.250,18.660,7.094,401.300,110.600,32.550,12.630,baseline
1360.000,329.500,81.160,22.080,1431.000,297.800,75.660,18.040,137.400,63.240,18.730,7.119,400.600,110.600,32.540,12.710,baseline
1361.000,328.100,80.560,22.060,1435.000,299.100,75.640,18.070,138.700,63.170,18.730,7.110,401.200,110.700,32.530,12.740,baseline
1361.000,328.400,78.960,22.160,1432.000,299.200,75.780,18.110,138.700,63.330,18.800,7.122,402.000,111.100,32.710,12.770,baseline
1362.000,329.600,79.610,22.240,1430.000,298.800,76.500,18.090,137.700,63.850,18.800,7.133,403.000,111.800,32.950,12.900,baseline
1365.000,331.300,80.970,22.280,1430.000,298.400,76.200,18.090,138.700,63.600,18.870,7.205,405.900,111.800,33.200,13.020,baseline
1367.000,330.900,80.420,22.340,1435.000,298.700,75.260,18.080,139.700,63.670,18.900,7.184,405.900,112.500,33.120,12.980,baseline
1365.000,331.400,80.330,22.090,1430.000,298.500,76.120,18.100,136.500,63.700,18.750,7.116,401.700,110.600,32.550,12.700,baseline
1362.000,327.700,81.160,22.040,1435.000,298.700,75.620,18.060,138.400,63.100,18.730,7.086,400.300,110.300,32.550,12.710,baseline
1361.000,327.800,81.490,22.120,1432.000,298.600,74.840,18.090,138.600,63.030,18.780,7.135,401.000,110.700,32.640,12.780,baseline
1362.000,329.500,81.500,22.060,1435.000,298.400,75.890,18.080,136.400,63.500,18.770,7.119,402.400,110.900,32.590,12.750,baseline
1362.000,329.000,82.030,22.210,1433.000,299.300,75.760,18.160,138.000,63.160,18.790,7.131,404.000,111.000,32.790,12.860,baseline
1365.000,329.800,81.610,22.290,1435.000,299.000,76.130,18.140,140.100,63.540,18.820,7.152,404.500,111.600,32.980,13.000,baseline
1368.000,331.500,82.210,22.260,1439.000,300.000,75.470,18.180,140.900,63.620,18.850,7.157,406.200,112.400,33.230,13.090,baseline
1370.000,333.600,81.890,22.340,1434.000,298.900,75.590,18.160,139.500,63.850,18.910,7.182,408.400,112.600,33.220,13.020,baseline
1370.000,329.100,81.740,22.160,1438.000,298.800,74.950,18.070,139.700,63.450,18.820,7.116,402.300,110.700,32.620,12.800,baseline
1365.000,330.000,81.020,22.140,1435.000,298.300,75.560,18.100,139.600,63.160,18.670,7.086,400.800,111.000,32.660,12.750,baseline
1364.000,331.800,81.810,22.190,1436.000,298.800,76.410,18.080,136.600,63.240,18.720,7.092,401.700,111.000,32.800,12.810,baseline
1365.000,329.800,81.340,22.220,1437.000,298.200,75.440,18.080,138.200,63.550,18.750,7.106,401.900,111.400,32.860,12.810,baseline
1365.000,332.300,81.200,22.200,1436.000,299.100,75.450,18.090,137.500,63.560,18.770,7.114,404.000,111.400,32.950,12.880,baseline
1368.000,332.700,82.010,22.240,1439.000,298.400,75.250,18.080,137.100,63.630,18.710,7.135,404.200,111.600,33.060,12.980,baseline
1369.000,331.700,82.240,22.390,1437.000,298.800,75.680,18.140,140.800,63.330,18.840,7.179,407.400,112.100,33.390,13.070,baseline
1372.000,332.400,82.470,22.480,1435.000,299.100,75.420,18.170,141.600,63.690,18.800,7.190,408.600,112.700,33.060,12.930,baseline
1368.000,331.000,80.840,22.260,1432.000,298.300,75.140,18.070,139.700,63.370,18.660,7.083,403.000,110.900,32.560,12.770,baseline
1364.000,330.100,82.000,22.230,1435.000,297.500,75.180,18.050,136.900,63.300,18.640,7.077,401.900,110.900,32.810,12.780,baseline
1365.000,330.100,81.010,22.200,1430.000,298.300,75.510,18.080,140.900,63.330,18.800,7.098,401.500,111.200,32.710,12.830,baseline
1366.000,329.700,79.960,22.180,1434.000,298.900,75.270,17.990,136.300,63.250,18.710,7.108,402.400,111.000,32.700,12.850,baseline
1366.000,331.300,81.040,22.180,1434.000,298.600,75.980,18.070,137.100,63.420,18.760,7.113,402.500,111.100,32.870,12.860,baseline
1369.000,331.600,80.830,22.270,1433.000,298.200,75.960,18.080,141.300,63.430,18.780,7.158,405.000,111.600,33.110,13.050,baseline
1371.000,332.900,81.140,22.420,1431.000,298.700,76.170,18.100,138.500,63.490,18.870,7.166,406.600,112.600,33.270,13.070,baseline
1374.000,334.500,81.990,22.480,1435.000,299.800,75.220,18.070,138.600,64.050,18.880,7.162,408.700,112.500,33.240,13.010,baseline
1368.000,331.100,81.350,22.200,1430.000,298.000,74.890,17.980,142.800,63.290,18.730,7.100,402.000,110.700,32.660,12.820,baseline
1364.000,330.700,80.490,22.130,1429.000,298.000,74.810,17.970,139.200,63.190,18.780,7.075,401.200,110.600,32.450,12.780,baseline
1363.000,330.100,81.250,22.190,1431.000,298.300,75.400,18.010,137.000,63.760,18.730,7.099,402.700,111.000,32.680,12.760,baseline
1364.000,331.400,82.140,22.240,1433.000,298.200,75.720,18.040,138.600,63.300,18.800,7.115,403.500,110.700,32.680,12.800,baseline
1365.000,332.100,81.790,22.230,1428.000,298.400,75.230,18.010,140.100,63.380,18.800,7.123,403.400,111.100,32.690,12.880,baseline
1366.000,331.000,81.160,22.280,1433.000,297.800,75.520,18.070,138.300,63.560,18.840,7.166,404.600,111.600,32.970,12.980,baseline
1369.000,332.700,81.160,22.380,1432.000,297.800,75.540,18.080,140.300,63.590,18.840,7.179,406.800,112.500,33.230,13.070,baseline
1372.000,333.200,81.600,22.330,1435.000,298.200,76.390,18.060,140.400,64.120,18.890,7.197,408.300,112.700,33.130,12.940,baseline
1368.000,330.600,81.160,22.300,1429.000,296.400,75.340,17.960,137.800,63.200,18.760,7.126,402.700,110.900,32.610,12.770,baseline
1366.000,330.100,81.840,22.170,1429.000,297.700,76.070,17.950,139.800,63.240,18.710,7.102,402.000,110.600,32.560,12.740,baseline
1365.000,331.200,81.390,22.130,1430.000,298.000,75.460,17.950,140.600,63.500,18.780,7.140,402.600,110.900,32.630,12.810,baseline
1364.000,330.500,81.520,22.190,1430.000,297.700,74.820,17.970,139.100,63.680,18.740,7.098,402.600,111.000,32.600,12.870,baseline
1365.000,330.200,83.520,22.200,1426.000,297.400,75.920,18.010,139.100,63.630,18.770,7.142,404.200,111.300,32.890,12.890,baseline
1368.000,330.000,83.510,22.220,1429.000,297.900,75.590,18.050,142.200,63.510,18.840,7.156,405.200,111.800,33.010,12.990,baseline
1369.000,332.700,81.810,22.360,1434.000,298.600,75.350,17.990,139.300,63.890,18.850,7.188,407.700,112.800,33.340,13.070,baseline
1370.000,331.400,81.990,22.330,1434.000,298.200,76.150,17.990,139.700,63.870,18.870,7.151,407.700,111.800,32.810,12.870,baseline
1364.000,330.100,82.200,22.310,1431.000,297.400,75.850,17.910,141.600,63.490,18.740,7.104,403.000,110.800,32.770,12.760,baseline
1364.000,330.900,81.180,22.200,1428.000,297.600,74.670,18.010,141.900,63.760,18.720,7.120,402.200,110.900,32.650,12.770,baseline
1363.000,330.900,80.400,22.180,1433.000,297.400,75.900,17.960,137.800,63.320,18.750,7.138,404.300,110.900,32.760,12.830,baseline
1364.000,330.900,81.890,22.110,1430.000,297.500,75.400,17.940,142.100,63.270,18.820,7.119,403.100,111.200,32.830,12.860,baseline
1364.000,330.100,80.900,22.220,1431.000,297.500,75.540,17.970,140.700,63.480,18.750,7.142,405.200,111.500,32.890,12.940,baseline
1367.000,332.400,82.780,22.410,1433.000,297.800,76.010,18.040,138.000,63.630,18.800,7.167,406.400,112.200,33.100,13.020,baseline
1368.000,331.700,81.630,22.310,1433.000,298.200,74.950,18.020,139.200,63.550,18.860,7.161,409.600,112.700,33.280,12.990,baseline
1367.000,331.900,83.170,22.080,1436.000,297.300,75.480,17.930,143.300,63.800,18.770,7.111,403.100,110.600,32.510,12.740,baseline
1360.000,330.900,82.030,22.150,1429.000,297.300,75.510,17.950,136.500,63.170,18.690,7.098,401.400,110.500,32.530,12.690,baseline
1361.000,330.100,81.720,22.240,1426.000,297.100,75.550,17.920,140.500,63.370,18.700,7.102,402.300,110.800,32.550,12.790,baseline
1362.000,328.800,81.480,22.100,1429.000,296.800,75.970,17.990,140.900,63.360,18.740,7.098,401.700,110.500,32.570,12.790,baseline
1362.000,329.100,81.090,22.120,1425.000,296.300,74.880,17.940,137.100,63.390,18.700,7.133,402.900,110.800,32.670,12.800,baseline
1364.000,331.100,81.670,22.190,1423.000,297.300,75.820,17.900,140.600,63.520,18.740,7.114,404.500,111.900,32.940,12.940,baseline
1366.000,330.400,81.650,22.280,1432.000,297.400,75.130,18.030,141.100,63.650,18.860,7.130,406.300,111.800,33.130,13.020,baseline
1367.000,334.400,81.950,22.270,1431.000,297.300,75.340,17.950,138.900,63.530,18.830,7.156,406.600,111.900,32.840,12.860,baseline
1362.000,330.000,81.580,22.060,1429.000,296.300,75.820,17.930,138.800,63.570,18.740,7.086,401.500,110.300,32.560,12.690,baseline
1358.000,327.700,81.470,21.930,1432.000,295.900,75.260,17.920,139.300,63.000,18.680,7.070,400.900,110.300,32.280,12.620,baseline
1357.000,329.200,82.640,22.000,1429.000,297.100,75.550,17.930,138.500,63.580,18.710,7.107,401.900,110.300,32.400,12.680,baseline
1356.000,330.500,82.240,22.030,1429.000,297.000,75.320,17.920,138.800,63.590,18.640,7.099,401.000,110.400,32.450,12.710,baseline
1357.000,329.200,83.920,21.990,1423.000,296.700,75.320,18.010,140.600,63.390,18.780,7.124,403.600,110.900,32.590,12.780,baseline
1359.000,330.800,81.340,22.080,1431.000,297.300,74.720,17.960,142.600,63.190,18.840,7.134,402.200,111.400,32.840,12.830,baseline
1361.000,329.500,81.550,22.120,1425.000,297.700,74.730,17.980,140.700,63.640,18.880,7.159,405.600,111.700,32.880,12.920,baseline
1365.000,330.000,80.550,22.210,1420.000,296.300,75.340,17.950,141.700,63.710,18.840,7.138,404.000,111.100,32.590,12.700,baseline
1357.000,327.200,79.720,21.900,1424.000,298.000,74.990,17.910,137.500,63.410,18.670,7.080,400.200,110.300,32.300,12.650,baseline
1356.000,328.100,80.970,21.990,1422.000,296.700,75.970,17.940,138.900,63.240,18.580,7.100,400.400,109.800,32.340,12.670,baseline
1356.000,329.100,81.810,22.040,1426.000,295.800,75.140,17.950,138.100,63.100,18.660,7.125,401.100,110.700,32.480,12.700,baseline
1355.000,329.500,81.900,21.940,1427.000,296.100,75.600,18.010,141.200,63.110,18.680,7.128,400.100,110.400,32.420,12.690,baseline
1358.000,329.900,79.550,22.020,1430.000,296.900,75.110,18.040,139.000,63.570,18.720,7.132,401.500,110.500,32.520,12.770,baseline
1360.000,329.700,80.690,22.070,1431.000,297.600,75.230,17.970,140.500,63.290,18.750,7.136,402.700,111.100,32.890,12.890,baseline
1362.000,330.700,82.760,22.070,1431.000,297.800,74.780,18.000,142.000,63.550,18.800,7.160,404.800,111.400,32.690,12.840,baseline
1358.000,329.700,81.740,22.030,1419.000,296.300,74.770,17.930,139.200,63.490,18.740,7.082,399.800,109.700,32.280,12.630,baseline
1353.000,329.900,81.570,21.900,1422.000,297.000,74.610,17.950,137.900,63.450,18.690,7.087,397.900,110.000,32.300,12.520,baseline
1353.000,327.900,81.770,21.940,1424.000,297.400,74.760,17.940,142.400,62.830,18.690,7.102,400.200,110.100,32.390,12.630,baseline
1353.000,328.100,81.020,21.860,1427.000,296.400,74.920,18.080,137.200,63.210,18.770,7.104,399.500,110.200,32.190,12.670,baseline
1355.000,326.500,79.980,21.960,1425.000,296.000,75.420,17.980,138.100,63.310,18.750,7.147,400.100,110.500,32.490,12.680,baseline
1356.000,330.200,80.980,22.040,1424.000,296.900,75.960,18.040,140.900,63.120,18.770,7.121,401.300,110.800,32.510,12.770,baseline
1359.000,328.500,80.320,22.100,1427.000,297.400,75.350,18.000,141.300,63.440,18.840,7.168,403.700,111.500,32.840,12.880,baseline
1361.000,329.500,81.240,22.070,1430.000,297.100,74.990,17.950,140.900,63.890,18.730,7.143,403.100,110.200,32.350,12.580,baseline
1352.000,327.900,80.010,21.800,1420.000,296.400,75.230,18.010,139.100,63.250,18.680,7.101,397.600,109.600,32.250,12.460,baseline
1352.000,328.100,80.480,21.760,1421.000,296.700,74.700,18.020,141.200,62.970,18.640,7.103,397.300,109.400,32.040,12.580,baseline
1351.000,326.300,80.720,21.800,1424.000,296.600,75.570,18.010,137.900,63.190,18.720,7.111,398.500,109.200,32.100,12.580,baseline
1351.000,327.200,80.670,21.910,1425.000,296.600,75.400,18.020,139.500,63.300,18.800,7.128,399.400,109.200,32.230,12.570,baseline
1351.000,327.300,81.850,21.850,1429.000,297.500,74.700,18.090,143.000,63.480,18.760,7.141,400.000,109.700,32.280,12.620,baseline
1355.000,328.500,79.180,21.930,1424.000,298.800,75.540,18.090,139.400,63.650,18.760,7.178,401.500,110.700,32.480,12.730,baseline
1358.000,330.000,80.930,22.000,1425.000,297.100,76.070,18.060,139.700,63.570,18.880,7.191,404.200,110.900,32.700,12.790,baseline
1357.000,329.000,81.490,21.890,1417.000,297.500,75.880,18.000,140.600,63.180,18.790,7.144,399.300,109.600,32.110,12.500,baseline
1350.000,327.200,78.350,21.770,1423.000,296.600,74.580,18.010,136.800,63.060,18.710,7.146,396.900,109.200,32.060,12.450,baseline
1350.000,326.000,79.320,21.700,1422.000,297.100,75.600,18.010,138.200,63.470,18.720,7.119,398.200,109.100,32.000,12.490,baseline
1351.000,327.500,79.750,21.730,1431.000,297.200,75.130,18.020,140.400,62.990,18.750,7.165,397.900,109.200,32.170,12.540,baseline
1351.000,326.200,80.460,21.790,1428.000,296.900,75.780,18.050,139.500,63.150,18.750,7.158,398.900,109.700,32.300,12.630,baseline
1352.000,328.000,80.700,21.840,1427.000,297.100,75.800,18.120,140.200,63.430,18.830,7.171,399.400,110.000,32.280,12.660,baseline
1355.000,326.800,80.900,21.910,1431.000,297.300,76.100,18.090,141.900,63.330,18.860,7.190,402.000,110.700,32.480,12.720,baseline
1356.000,328.300,81.280,22.050,1431.000,297.300,75.550,18.160,142.300,63.630,19.000,7.222,402.900,111.100,32.630,12.720,baseline
1356.000,328.100,80.590,21.720,1429.000,297.300,75.020,18.100,141.300,63.390,18.820,7.137,398.200,109.900,32.060,12.530,baseline
1350.000,326.200,80.390,21.720,1425.000,297.100,74.920,18.040,141.700,63.420,18.830,7.143,397.900,109.300,32.050,12.500,baseline
1351.000,327.000,81.090,21.870,1424.000,296.700,74.840,18.090,139.800,63.340,18.830,7.134,398.800,109.800,32.150,12.570,baseline
1351.000,326.700,80.120,21.810,1423.000,296.800,74.870,18.090,138.700,63.680,18.830,7.157,399.600,109.800,32.230,12.610,baseline
1352.000,327.700,81.860,21.800,1430.000,298.000,76.210,18.120,139.900,63.480,18.810,7.172,399.500,109.800,32.340,12.680,baseline
1353.000,327.800,81.500,21.910,1426.000,297.600,76.410,18.180,142.700,63.470,18.920,7.174,400.700,110.400,32.460,12.780,baseline
1356.000,328.600,79.310,21.960,1430.000,297.300,75.190,18.150,139.700,63.430,18.880,7.188,403.700,111.100,32.850,12.830,baseline
1358.000,329.300,81.400,22.000,1430.000,298.400,76.530,18.130,140.200,63.960,18.950,7.200,402.600,110.600,32.440,12.680,baseline
1353.000,327.100,80.680,21.800,1427.000,297.400,74.820,18.140,143.100,63.050,18.790,7.154,399.200,109.700,32.080,12.560,baseline
1352.000,325.900,79.730,21.890,1426.000,297.800,75.280,18.110,138.400,63.280,18.750,7.146,399.800,109.600,32.180,12.620,baseline
1352.000,326.900,81.210,21.750,1432.000,298.100,75.660,18.090,140.400,63.340,18.780,7.130,399.900,109.800,32.240,12.650,baseline
1351.000,327.800,81.660,21.800,1426.000,298.700,74.850,18.090,141.400,63.530,18.820,7.156,400.400,110.100,32.350,12.660,baseline
1352.000,328.000,80.360,21.950,1425.000,298.100,74.990,18.140,140.200,63.020,18.810,7.158,401.700,110.600,32.550,12.770,baseline
1355.000,327.300,81.310,21.930,1425.000,298.700,75.920,18.160,140.200,63.470,18.860,7.185,403.200,111.100,32.800,12.830,baseline
1358.000,327.100,81.870,22.090,1432.000,298.000,75.970,18.170,141.100,63.370,18.860,7.203,404.200,111.800,32.970,12.880,baseline
1361.000,329.300,79.560,21.920,1433.000,297.800,76.120,18.100,141.500,63.340,18.810,7.159,402.200,110.100,32.440,12.650,baseline
1352.000,327.500,78.500,21.820,1431.000,297.900,74.680,18.100,141.300,63.090,18.730,7.112,398.500,109.700,32.150,12.590,baseline
1351.000,328.700,80.270,21.780,1427.000,297.800,75.620,18.020,140.600,63.270,18.680,7.077,398.600,110.000,32.150,12.590,baseline
1351.000,327.700,80.180,21.950,1432.000,297.400,75.250,18.110,141.600,62.950,18.700,7.112,400.000,109.800,32.490,12.680,baseline
1352.000,325.800,80.780,21.950,1428.000,297.700,76.130,18.110,137.900,63.300,18.690,7.091,400.100,110.500,32.480,12.680,baseline
1354.000,329.000,82.140,21.920,1431.000,297.200,75.490,18.140,140.500,63.050,18.780,7.126,402.600,110.600,32.590,12.790,baseline
1356.000,327.500,81.360,22.050,1430.000,298.300,75.770,18.160,142.700,63.710,18.760,7.145,403.300,111.200,32.840,12.880,baseline
1358.000,328.800,81.270,22.030,1429.000,299.100,75.610,18.200,140.900,63.570,18.770,7.157,406.000,111.900,32.970,12.850,baseline
1357.000,328.100,82.360,21.950,1427.000,297.600,75.010,18.110,139.500,63.510,18.690,7.085,400.600,110.300,32.370,12.620,baseline
1352.000,327.000,82.230,21.840,1423.000,297.700,75.030,18.020,142.300,62.920,18.730,7.074,399.300,109.700,32.210,12.610,baseline
1351.000,326.900,80.410,21.760,1430.000,296.800,74.800,18.060,139.900,63.290,18.650,7.079,398.900,109.900,32.290,12.630,baseline
1352.000,327.400,80.920,21.860,1429.000,297.300,75.500,17.970,140.600,63.160,18.760,7.105,400.100,109.500,32.370,12.630,baseline
1353.000,329.300,80.150,21.830,1428.000,297.600,75.520,18.070,141.000,63.150,18.700,7.099,400.700,110.200,32.450,12.700,baseline
1354.000,329.300,79.240,21.960,1430.000,297.300,75.330,18.080,138.800,63.320,18.710,7.125,402.200,110.900,32.690,12.820,baseline
1357.000,330.500,81.460,22.000,1432.000,298.300,75.070,18.100,140.000,63.410,18.760,7.138,405.200,111.200,32.850,12.890,baseline
1360.000,328.100,82.540,22.200,1431.000,297.100,76.240,18.130,141.200,63.450,18.870,7.159,405.700,111.800,33.000,12.900,baseline
1359.000,329.300,81.110,21.960,1428.000,296.100,75.010,18.030,144.000,63.370,18.750,7.104,400.000,110.400,32.420,12.640,baseline
1353.000,327.800,80.200,21.970,1431.000,297.500,74.670,17.990,141.000,63.180,18.670,7.082,400.000,110.000,32.350,12.660,baseline
1352.000,326.100,81.310,21.960,1424.000,297.200,75.850,18.070,142.300,63.060,18.700,7.066,400.600,110.300,32.420,12.670,baseline
1355.000,326.700,80.720,21.950,1427.000,297.300,75.360,18.020,140.600,63.310,18.710,7.093,401.600,110.500,32.440,12.690,baseline
1355.000,329.600,81.720,22.030,1424.000,297.400,74.780,18.000,140.400,63.200,18.690,7.097,400.800,110.800,32.560,12.780,baseline
1356.000,328.500,82.350,22.060,1424.000,297.900,75.380,18.060,140.700,63.050,18.730,7.113,404.500,111.300,32.920,12.910,baseline
1360.000,330.000,81.470,22.210,1422.000,297.000,75.710,18.040,140.300,63.260,18.830,7.130,406.000,111.900,33.090,12.970,baseline
1361.000,330.200,81.910,22.160,1435.000,297.900,74.780,17.980,140.800,63.650,18.760,7.155,406.400,112.000,32.990,12.940,baseline
1359.000,329.400,80.560,22.050,1427.000,297.600,75.770,17.980,141.300,63.290,18.680,7.060,401.400,110.300,32.570,12.710,baseline
1355.000,328.300,81.130,21.980,1422.000,295.800,75.740,17.910,142.800,63.030,18.640,7.049,401.000,110.300,32.410,12.760,baseline
1355.000,328.000,79.880,22.040,1423.000,296.400,74.790,17.960,140.900,63.020,18.680,7.091,401.000,110.600,32.580,12.800,baseline
1355.000,330.000,81.770,22.020,1427.000,295.900,75.290,17.980,140.000,63.360,18.680,7.088,401.900,110.800,32.760,12.810,baseline
1356.000,329.000,80.440,22.030,1424.000,296.100,74.810,17.990,142.400,62.890,18.720,7.090,402.500,111.000,32.730,12.890,baseline
1357.000,329.700,82.310,22.060,1428.000,296.700,73.670,17.980,142.800,63.320,18.750,7.094,404.900,111.700,32.900,12.970,baseline
1361.000,330.000,80.930,22.160,1426.000,296.500,74.810,17.960,139.800,63.560,18.770,7.140,406.300,112.500,33.140,13.060,baseline
1363.000,331.200,82.470,22.240,1431.000,296.900,74.920,17.900,144.600,63.560,18.750,7.115,405.200,111.600,32.680,12.780,baseline
1356.000,328.000,80.570,22.090,1426.000,296.500,75.110,17.860,143.400,63.030,18.610,7.032,401.700,110.500,32.540,12.760,baseline
1353.000,329.700,81.900,22.010,1426.000,295.400,75.700,17.860,139.900,63.080,18.550,7.035,401.800,110.200,32.540,12.760,baseline
1355.000,327.800,80.840,22.040,1423.000,295.600,75.540,17.880,141.700,63.010,18.690,7.078,403.100,110.800,32.630,12.780,baseline
1355.000,329.600,80.880,22.110,1426.000,296.000,74.980,17.880,141.800,63.270,18.640,7.069,401.200,110.800,32.660,12.780,baseline
1355.000,329.400,80.860,22.030,1422.000,295.300,74.810,17.920,140.900,63.320,18.710,7.077,403.300,111.300,32.710,12.930,baseline
1358.000,331.200,80.980,22.140,1422.000,295.600,74.860,17.890,142.000,63.150,18.740,7.110,406.000,112.300,33.110,13.030,baseline
1361.000,330.900,81.400,22.190,1431.000,296.300,74.820,17.900,142.400,63.480,18.710,7.116,407.500,112.400,33.190,13.120,baseline
1362.000,331.700,81.690,22.190,1420.000,296.400,74.510,17.860,141.900,63.860,18.760,7.068,405.400,111.200,32.660,12.820,baseline
1353.000,327.600,81.530,22.070,1422.000,295.300,74.650,17.810,139.900,62.960,18.620,7.040,402.100,110.600,32.490,12.710,baseline
1353.000,327.000,81.300,21.990,1422.000,295.600,74.250,17.890,141.700,63.210,18.620,6.995,401.400,110.700,32.540,12.820,baseline
1354.000,327.600,79.890,22.060,1421.000,296.500,74.680,17.840,140.500,62.980,18.590,7.039,403.400,110.800,32.670,12.780,baseline
1353.000,328.900,81.160,22.060,1425.000,296.000,75.290,17.800,140.400,63.100,18.680,7.052,402.100,110.800,32.780,12.840,baseline
1355.000,329.500,80.740,22.020,1425.000,295.600,75.010,17.820,144.400,63.230,18.730,7.043,404.900,111.300,32.900,12.950,baseline
1358.000,330.900,81.550,22.100,1422.000,295.400,75.460,17.920,140.300,63.600,18.720,7.096,406.300,112.000,33.320,13.080,baseline
1362.000,332.100,80.330,22.330,1427.000,295.200,75.110,17.890,141.900,63.570,18.710,7.085,409.700,112.600,33.420,13.100,baseline
1361.000,331.000,80.740,22.100,1419.000,295.300,74.820,17.820,143.100,63.700,18.710,7.072,404.300,111.400,32.680,12.770,baseline
1353.000,328.500,80.740,21.990,1419.000,295.800,74.640,17.880,141.800,63.250,18.590,7.052,403.200,110.800,32.560,12.830,baseline
1355.000,330.000,81.370,22.040,1425.000,295.900,74.900,17.830,139.900,63.080,18.590,7.035,402.000,110.900,32.700,12.830,baseline
1354.000,328.700,81.460,22.010,1423.000,295.900,74.060,17.860,144.000,62.820,18.690,7.064,404.500,111.300,32.870,12.860,baseline
1354.000,328.400,81.890,21.960,1422.000,296.200,74.280,17.900,143.300,63.210,18.720,7.053,404.300,111.500,32.900,12.900,baseline
1356.000,329.900,82.550,22.150,1420.000,295.900,74.580,17.940,141.800,63.120,18.700,7.092,406.200,111.800,33.130,13.040,baseline
1359.000,329.000,81.160,22.190,1425.000,296.200,75.100,17.920,141.200,63.600,18.740,7.116,408.300,112.500,33.400,13.130,baseline
1363.000,330.300,81.540,22.230,1422.000,296.200,74.810,17.810,143.000,63.470,18.780,7.100,408.700,112.300,33.070,13.000,baseline
1355.000,329.000,80.830,21.990,1423.000,295.000,74.060,17.800,141.900,63.470,18.520,7.037,403.200,111.200,32.690,12.820,baseline
1353.000,327.900,79.600,22.070,1425.000,295.800,74.430,17.840,142.300,63.030,18.540,7.015,402.900,111.200,32.790,12.820,baseline
1353.000,326.600,80.600,22.060,1421.000,296.000,74.600,17.790,143.600,63.280,18.660,7.043,402.100,111.600,32.810,12.880,baseline
1353.000,329.900,80.440,21.960,1420.000,295.100,74.820,17.830,141.900,63.220,18.550,7.049,404.700,111.400,32.920,12.910,baseline
1355.000,328.900,80.840,22.060,1420.000,296.300,74.930,17.910,141.800,63.390,18.660,7.054,406.600,111.500,33.050,12.990,baseline
1356.000,328.400,82.540,22.130,1425.000,296.000,75.350,17.890,143.000,63.260,18.720,7.078,407.600,112.400,33.130,13.090,baseline
1359.000,329.400,81.470,22.280,1421.000,295.800,74.150,17.920,142.600,63.710,18.720,7.087,409.700,113.000,33.420,13.050,baseline
1357.000,330.200,82.400,21.880,1422.000,296.000,74.620,17.850,141.000,63.260,18.550,7.026,404.100,111.300,32.720,12.840,baseline
1351.000,329.400,80.620,21.920,1422.000,295.300,73.610,17.830,144.200,63.050,18.550,6.991,403.000,110.900,32.660,12.750,baseline
1351.000,328.800,81.180,21.960,1420.000,295.600,74.380,17.850,145.000,63.060,18.630,7.026,404.300,111.400,32.800,12.860,baseline
1351.000,327.700,80.590,22.020,1416.000,294.800,74.800,17.850,138.400,63.400,18.550,7.033,403.400,111.100,32.570,12.860,baseline
1350.000,328.500,82.920,21.930,1419.000,295.900,74.740,17.870,140.600,63.210,18.640,7.042,404.000,111.400,32.770,12.880,baseline
1352.000,326.800,79.430,22.090,1422.000,296.100,74.170,17.890,144.600,63.270,18.650,7.070,406.700,112.200,33.020,13.000,baseline
1355.000,329.000,81.390,22.190,1419.000,295.100,75.070,17.930,144.200,63.370,18.660,7.075,407.800,112.700,33.260,13.060,baseline
1357.000,329.000,79.890,22.090,1420.000,296.600,75.020,17.780,142.700,63.050,18.710,7.036,405.500,111.700,32.820,12.810,baseline
1348.000,326.400,80.200,21.830,1424.000,295.600,74.690,17.840,143.600,62.580,18.550,6.998,401.300,110.200,32.540,12.740,baseline
1346.000,326.400,79.690,21.850,1422.000,295.000,74.920,17.810,141.100,62.760,18.510,7.011,402.400,110.400,32.660,12.750,baseline
1346.000,326.300,81.280,21.800,1422.000,294.600,74.530,17.820,140.200,62.990,18.520,7.013,402.200,110.800,32.660,12.740,baseline
1345.000,326.200,81.210,21.840,1427.000,295.200,73.830,17.830,143.800,62.800,18.620,7.005,403.200,110.900,32.600,12.850,baseline
1348.000,325.400,82.570,21.850,1420.000,295.600,74.460,17.860,140.700,63.110,18.600,7.011,403.700,111.400,32.860,12.870,baseline
1349.000,327.200,81.500,22.000,1426.000,295.500,74.340,17.880,142.400,63.040,18.690,7.055,404.600,111.900,32.990,12.940,baseline
1350.000,327.300,81.560,22.120,1418.000,295.800,74.290,17.860,143.800,63.420,18.700,7.067,407.900,112.000,33.130,12.930,baseline
1349.000,325.700,81.160,21.800,1421.000,294.400,75.200,17.830,139.800,63.220,18.620,7.024,402.600,110.600,32.460,12.690,baseline
1343.000,325.000,79.290,21.740,1412.000,294.600,74.550,17.850,142.400,62.860,18.430,6.986,401.000,110.400,32.580,12.650,baseline
1341.000,323.600,79.230,21.720,1411.000,294.200,74.270,17.850,143.500,62.740,18.450,6.990,402.600,110.700,32.520,12.730,baseline
1342.000,325.600,79.130,21.830,1416.000,294.600,74.900,17.780,143.200,63.040,18.550,7.019,401.300,110.500,32.460,12.780,baseline
1341.000,325.600,78.470,21.780,1413.000,294.800,74.680,17.850,141.600,62.840,18.580,7.011,401.900,111.000,32.650,12.820,baseline
1344.000,325.700,80.450,21.780,1418.000,295.700,74.050,17.880,142.100,62.780,18.660,7.026,403.500,111.300,32.880,12.900,baseline
1346.000,326.600,82.500,21.890,1418.000,295.400,74.400,17.910,143.000,62.910,18.570,7.044,406.400,112.100,33.080,13.030,baseline
1350.000,326.700,79.560,21.990,1419.000,295.300,74.930,17.890,144.200,63.410,18.600,7.026,405.900,111.400,32.700,12.790,baseline
1342.000,324.500,79.310,21.700,1415.000,294.300,74.630,17.860,142.700,62.620,18.500,6.979,400.800,110.200,32.550,12.730,baseline
1341.000,323.800,81.550,21.710,1411.000,296.400,74.680,17.820,145.000,62.610,18.510,6.959,399.300,110.600,32.460,12.710,baseline
1340.000,324.900,78.810,21.650,1416.000,295.000,73.840,17.800,142.300,63.050,18.420,7.032,400.900,110.600,32.530,12.760,baseline
1341.000,325.800,78.850,21.680,1416.000,295.500,74.470,17.830,140.700,62.490,18.450,6.982,402.000,110.700,32.630,12.770,baseline
1342.000,324.600,79.300,21.800,1421.000,295.200,74.760,17.910,142.900,62.830,18.520,6.994,402.200,110.700,32.780,12.870,baseline
1344.000,326.200,80.160,21.890,1415.000,295.400,74.600,17.880,141.600,62.570,18.470,7.011,403.300,111.500,32.900,12.920,baseline
1346.000,326.100,79.880,21.950,1417.000,296.000,74.840,17.930,139.000,63.160,18.560,7.024,404.900,111.600,32.860,12.880,baseline
1343.000,325.700,78.750,21.700,1424.000,294.600,75.300,17.820,142.300,62.650,18.580,6.939,400.300,110.300,32.390,12.730,baseline
1340.000,324.200,79.440,21.620,1410.000,295.500,74.570,17.820,141.800,62.560,18.490,6.986,399.600,110.200,32.460,12.680,baseline
1340.000,324.800,79.230,21.630,1417.000,294.600,74.860,17.790,141.900,62.550,18.460,6.958,399.200,110.400,32.520,12.740,baseline
1339.000,323.900,80.630,21.680,1417.000,295.300,74.900,17.910,142.700,62.450,18.560,6.940,401.300,110.300,32.590,12.750,baseline
1340.000,325.100,80.790,21.710,1417.000,294.900,74.100,17.920,142.200,62.350,18.440,6.973,400.600,110.600,32.700,12.790,baseline
1343.000,324.700,79.160,21.880,1416.000,295.200,74.410,17.950,141.800,63.020,18.510,7.007,402.500,111.200,32.720,12.910,baseline
1346.000,325.400,80.910,21.840,1414.000,295.500,75.490,17.950,142.400,62.870,18.460,6.993,404.000,111.400,32.940,12.980,baseline
1348.000,325.100,80.030,21.720,1410.000,295.700,74.160,17.870,142.700,62.880,18.520,7.000,403.200,111.000,32.640,12.740,baseline
1341.000,324.900,79.680,21.640,1418.000,295.400,75.860,17.790,141.100,62.890,18.380,6.959,398.900,110.000,32.310,12.640,baseline
1339.000,323.700,79.340,21.600,1421.000,295.000,75.260,17.890,142.200,62.010,18.330,6.933,398.400,109.500,32.340,12.650,baseline
1338.000,324.500,80.480,21.700,1422.000,295.900,75.110,17.940,142.000,62.380,18.430,6.927,398.200,110.100,32.390,12.710,baseline
1339.000,324.600,78.780,21.640,1418.000,295.400,75.010,17.900,142.800,62.750,18.420,6.937,398.000,110.400,32.440,12.710,baseline
1339.000,324.900,79.470,21.780,1420.000,295.200,75.910,18.000,144.600,62.370,18.490,6.979,400.700,110.400,32.570,12.710,baseline
1343.000,325.300,80.230,21.760,1415.000,295.800,74.700,18.010,144.400,62.470,18.510,6.999,402.700,110.600,32.800,12.880,baseline
1344.000,326.700,81.440,21.890,1424.000,297.000,74.760,18.000,141.700,63.020,18.540,6.964,402.900,111.600,32.870,12.920,baseline
1346.000,325.800,80.160,21.760,1413.000,296.100,74.830,17.920,140.700,62.670,18.460,6.958,399.100,109.900,32.450,12.600,baseline
1339.000,324.600,80.740,21.600,1420.000,295.900,74.570,17.960,143.400,62.500,18.330,6.928,397.400,109.700,32.310,12.620,baseline
1338.000,323.000,80.550,21.620,1415.000,296.200,75.090,17.910,140.400,62.350,18.350,6.930,397.000,109.700,32.390,12.660,baseline
1338.000,324.200,80.240,21.580,1419.000,296.000,74.590,18.020,140.500,62.740,18.420,6.942,397.700,109.800,32.290,12.670,baseline
1338.000,325.200,79.860,21.630,1419.000,295.800,74.880,17.990,144.700,62.560,18.420,6.926,398.800,110.100,32.480,12.740,baseline
1341.000,324.400,79.220,21.720,1420.000,296.700,74.310,17.970,142.600,62.520,18.410,6.988,398.900,110.300,32.660,12.790,baseline
1343.000,324.100,79.380,21.710,1421.000,296.100,75.220,17.990,140.000,62.760,18.400,6.993,400.000,110.700,32.770,12.870,baseline
1343.000,325.000,81.520,21.920,1417.000,296.700,75.200,18.010,142.100,62.640,18.560,6.987,403.100,111.000,32.860,12.940,baseline
1345.000,326.100,80.720,21.780,1420.000,295.600,74.950,17.950,143.100,62.720,18.530,6.956,399.400,110.300,32.260,12.720,baseline
1340.000,323.700,78.720,21.680,1419.000,296.100,74.660,17.970,140.400,62.610,18.370,6.945,398.300,109.800,32.340,12.670,baseline
1339.000,323.200,80.040,21.660,1425.000,295.500,74.680,18.020,142.300,62.380,18.420,6.931,398.100,109.400,32.390,12.630,baseline
1340.000,325.000,78.630,21.700,1424.000,296.200,73.980,18.060,142.100,62.470,18.370,6.948,397.700,109.900,32.320,12.690,baseline
1342.000,323.800,79.480,21.700,1424.000,296.700,75.180,17.970,139.800,62.880,18.430,6.961,398.000,110.300,32.350,12.720,baseline
1343.000,325.900,79.620,21.800,1424.000,296.900,75.210,17.980,140.000,62.350,18.440,6.952,399.900,110.500,32.620,12.790,baseline
1346.000,325.700,80.800,21.870,1425.000,297.500,75.010,18.060,142.900,62.540,18.470,6.970,400.900,110.600,32.620,12.840,baseline
1348.000,326.400,80.650,22.020,1424.000,297.200,75.380,18.030,143.700,62.860,18.430,6.998,402.000,111.200,32.960,12.880,baseline
1350.000,327.600,79.450,21.870,1428.000,296.400,75.240,17.960,143.400,62.630,18.490,6.959,401.000,110.100,32.470,12.660,baseline
1345.000,327.500,80.520,21.830,1421.000,298.000,75.590,17.950,144.500,62.530,18.360,6.930,397.700,109.600,32.270,12.630,baseline
1343.000,326.100,79.300,21.770,1420.000,297.000,75.380,17.980,142.100,61.970,18.390,6.935,397.500,109.600,32.440,12.730,baseline
1344.000,326.300,80.770,21.780,1427.000,296.600,75.110,18.020,143.200,62.860,18.440,6.966,398.300,110.000,32.550,12.690,baseline
1344.000,325.700,80.550,21.810,1424.000,296.600,75.180,18.090,143.700,62.330,18.470,6.956,399.100,110.300,32.450,12.740,baseline
1348.000,327.300,81.630,21.830,1429.000,297.700,74.950,18.050,144.000,62.860,18.520,6.980,400.600,110.700,32.610,12.790,baseline
1352.000,327.700,80.950,22.050,1423.000,297.200,75.160,18.070,142.600,63.080,18.540,7.004,401.000,110.800,32.750,12.840,baseline
1354.000,327.700,82.720,22.030,1428.000,296.900,75.160,18.080,144.400,62.780,18.540,7.001,402.800,111.100,32.970,12.930,baseline
1357.000,329.400,82.320,22.090,1427.000,297.300,75.260,17.990,142.600,62.840,18.510,6.998,402.600,110.800,32.640,12.770,baseline
1351.000,328.900,81.470,21.940,1432.000,297.600,75.130,17.980,141.700,62.760,18.530,6.984,399.000,109.600,32.360,12.700,baseline
1351.000,328.800,80.980,21.850,1426.000,297.600,75.550,18.060,142.000,62.520,18.530,6.951,398.900,109.700,32.450,12.670,baseline
1352.000,327.400,81.170,21.970,1425.000,297.300,74.960,18.040,143.300,62.750,18.570,6.973,399.300,110.100,32.540,12.720,baseline
1352.000,327.500,80.330,22.020,1423.000,296.500,75.180,18.050,140.200,62.610,18.560,6.991,399.300,110.300,32.510,12.730,baseline
1353.000,328.500,80.060,22.060,1425.000,297.800,76.040,18.010,142.400,63.090,18.560,7.007,401.700,110.500,32.740,12.780,baseline
1356.000,329.300,80.970,22.060,1437.000,297.300,75.210,18.100,143.600,63.150,18.650,7.030,403.000,111.100,32.820,12.900,baseline
1359.000,329.800,80.690,22.220,1432.000,298.300,74.750,18.020,145.200,63.400,18.650,7.077,404.400,111.600,32.890,12.940,baseline
1361.000,330.600,80.920,22.270,1427.000,298.400,75.150,18.090,144.100,63.490,18.770,7.063,406.600,111.800,32.920,12.880,baseline
1359.000,328.700,81.610,22.130,1428.000,296.900,75.220,18.000,146.400,63.400,18.680,7.019,401.700,110.800,32.590,12.760,baseline
1357.000,328.500,81.230,22.050,1429.000,297.900,75.380,17.970,140.300,63.300,18.690,7.032,400.800,110.400,32.470,12.760,baseline
1355.000,327.600,81.650,22.060,1429.000,297.400,75.110,18.020,142.700,63.070,18.710,7.009,400.900,110.500,32.650,12.800,baseline
1356.000,329.200,81.080,22.130,1429.000,296.900,75.380,17.970,147.100,63.230,18.640,7.047,400.700,110.500,32.720,12.790,baseline
1358.000,327.500,81.530,22.240,1428.000,298.500,75.520,17.990,143.000,63.650,18.790,7.085,402.900,110.900,32.790,12.910,baseline
1360.000,332.100,81.370,22.290,1428.000,298.300,75.270,17.990,143.800,63.580,18.740,7.116,404.600,111.300,32.910,13.000,baseline
1362.000,329.700,82.630,22.300,1425.000,298.100,75.550,18.020,145.500,63.800,18.860,7.095,406.500,111.900,33.150,13.030,baseline
1366.000,331.500,80.330,22.440,1429.000,297.700,75.510,17.990,145.200,63.940,18.800,7.116,407.100,112.500,33.240,13.100,baseline
1366.000,331.700,81.350,22.380,1429.000,297.200,75.430,17.950,144.400,63.960,18.850,7.110,406.400,111.700,32.910,12.890,baseline
1362.000,329.900,81.820,22.240,1425.000,296.600,75.480,17.950,146.800,63.660,18.710,7.049,403.900,111.100,32.820,12.880,baseline
1361.000,330.200,81.790,22.280,1432.000,296.700,75.230,17.940,146.700,63.520,18.770,7.072,404.000,111.200,32.800,12.890,baseline
1362.000,331.900,81.180,22.340,1429.000,298.000,73.930,17.910,143.000,63.620,18.730,7.067,403.300,111.200,32.930,12.880,baseline
1362.000,331.200,82.200,22.330,1435.000,297.300,74.650,17.880,144.500,63.610,18.730,7.105,404.700,111.500,32.920,12.940,baseline
1361.000,329.700,82.070,22.250,1430.000,297.300,74.310,17.940,147.500,63.940,18.760,7.083,406.400,111.800,33.100,13.040,baseline
1363.000,330.600,80.810,22.450,1433.000,298.100,74.880,17.910,143.400,64.000,18.820,7.120,408.100,112.700,33.260,13.080,baseline
1366.000,332.700,83.690,22.430,1427.000,297.700,75.190,17.910,146.100,63.770,18.850,7.121,410.100,112.700,33.610,13.120,baseline
1369.000,331.600,82.330,22.510,1431.000,297.300,74.770,17.860,146.900,63.860,18.920,7.093,410.100,112.700,33.110,13.040,baseline
1364.000,331.000,80.720,22.260,1425.000,296.100,74.730,17.860,144.500,63.690,18.660,7.056,405.100,111.600,32.830,12.920,baseline
1362.000,330.300,81.290,22.130,1429.000,296.400,74.910,17.800,143.400,63.500,18.710,7.058,404.900,111.500,33.090,12.930,baseline
1361.000,329.700,81.980,22.320,1424.000,296.200,75.240,17.810,148.600,63.440,18.710,7.076,406.300,111.600,33.090,12.950,baseline
1362.000,330.000,80.550,22.260,1430.000,295.500,74.810,17.850,145.800,63.340,18.790,7.040,406.100,112.200,33.120,13.000,baseline
1361.000,331.300,81.220,22.390,1425.000,295.400,74.190,17.850,144.100,63.650,18.760,7.080,407.100,112.200,33.220,13.100,baseline
1363.000,331.000,81.040,22.350,1431.000,297.000,75.140,17.830,147.100,63.840,18.750,7.030,408.900,113.000,33.490,13.150,baseline
1365.000,331.100,83.880,22.410,1427.000,297.000,74.930,17.850,145.000,63.390,18.660,7.091,410.200,113.500,33.510,13.270,baseline
1367.000,330.900,82.630,22.440,1421.000,297.300,75.230,17.820,146.000,63.720,18.830,7.082,411.300,113.700,33.710,13.190,baseline
1366.000,331.500,82.030,22.280,1426.000,297.100,74.510,17.790,145.500,63.790,18.660,7.015,408.200,112.300,33.080,13.030,baseline
1361.000,329.600,81.860,22.170,1426.000,296.500,74.680,17.710,146.500,63.280,18.610,6.995,406.400,112.000,33.050,13.020,baseline
1359.000,330.000,82.080,22.220,1422.000,295.400,74.620,17.780,144.500,63.360,18.660,6.998,406.600,112.300,33.270,13.060,baseline
1360.000,329.100,81.720,22.250,1427.000,296.100,75.390,17.710,144.800,63.100,18.600,6.978,406.400,112.500,33.180,13.040,baseline
1360.000,328.300,81.280,22.160,1417.000,296.100,74.520,17.790,145.400,63.310,18.660,6.990,406.500,112.700,33.260,13.170,baseline
1362.000,330.400,81.110,22.290,1426.000,296.900,74.940,17.780,143.200,63.520,18.550,7.008,409.200,113.100,33.540,13.260,baseline
1365.000,330.500,80.990,22.360,1428.000,296.100,75.390,17.840,143.400,63.460,18.660,7.013,412.400,113.500,33.710,13.300,baseline
1365.000,332.000,81.100,22.410,1427.000,296.100,74.640,17.810,146.000,63.460,18.650,7.034,413.200,114.100,33.930,13.370,baseline
1367.000,331.500,81.360,22.290,1425.000,296.900,74.430,17.720,144.000,63.390,18.660,6.998,410.100,113.000,33.270,13.150,baseline
1360.000,330.200,80.490,22.140,1419.000,296.700,74.800,17.810,145.200,63.580,18.450,6.960,407.500,112.500,33.320,13.040,baseline
1359.000,328.500,81.420,22.160,1425.000,296.200,74.670,17.770,144.300,63.050,18.530,6.911,408.500,112.800,33.430,13.100,baseline
1359.000,328.300,81.490,22.170,1420.000,296.900,73.680,17.820,143.900,63.090,18.480,6.926,408.600,112.700,33.310,13.170,baseline
1359.000,329.200,82.530,22.130,1421.000,295.800,74.620,17.800,144.100,63.210,18.430,6.958,409.200,113.200,33.650,13.210,baseline
1361.000,329.100,81.960,22.370,1430.000,296.100,74.550,17.800,145.600,62.840,18.430,6.927,411.200,113.700,33.670,13.330,baseline
1364.000,330.500,81.960,22.330,1425.000,296.400,74.560,17.870,145.000,63.140,18.510,6.940,412.400,114.500,33.800,13.390,baseline
1367.000,331.700,82.470,22.440,1428.000,297.200,74.960,17.870,143.300,63.490,18.570,6.952,414.400,114.800,34.240,13.480,baseline
1367.000,330.200,80.610,22.390,1430.000,297.200,74.910,17.800,146.500,63.010,18.470,6.910,412.600,113.400,33.530,13.310,baseline
1362.000,330.000,81.610,22.240,1430.000,296.200,74.120,17.770,143.300,62.750,18.350,6.903,409.000,113.100,33.500,13.190,baseline
1361.000,329.100,81.750,22.160,1423.000,296.400,74.500,17.840,141.900,62.780,18.340,6.879,409.400,113.400,33.510,13.290,baseline
1362.000,329.300,81.530,22.150,1428.000,297.300,74.170,17.760,141.900,63.110,18.330,6.893,410.700,113.200,33.660,13.200,baseline
1361.000,329.400,83.150,22.280,1424.000,296.600,75.140,17.800,144.800,62.970,18.330,6.878,410.800,113.400,33.740,13.290,baseline
1363.000,329.400,81.230,22.190,1421.000,296.600,74.490,17.790,144.900,62.780,18.330,6.874,412.900,114.100,33.800,13.420,baseline
1365.000,330.800,82.530,22.360,1427.000,297.000,74.720,17.850,144.000,62.970,18.360,6.889,413.600,114.400,34.150,13.500,baseline
1368.000,329.400,82.720,22.410,1428.000,297.100,74.810,17.870,147.400,62.720,18.340,6.897,415.900,114.900,34.100,13.460,baseline
1365.000,330.900,80.550,22.250,1423.000,296.500,74.830,17.840,146.200,62.580,18.280,6.827,410.500,113.600,33.560,13.220,baseline
1361.000,328.600,81.700,22.230,1424.000,295.700,74.560,17.820,145.300,62.600,18.210,6.793,409.600,113.000,33.420,13.170,baseline
1359.000,327.300,80.820,22.200,1423.000,297.000,74.890,17.710,147.300,62.290,18.260,6.792,410.900,113.400,33.580,13.220,baseline
1359.000,329.900,81.140,22.190,1419.000,296.100,74.550,17.840,144.700,62.580,18.190,6.834,411.300,113.400,33.530,13.240,baseline
1361.000,328.800,80.740,22.200,1421.000,296.100,74.500,17.790,144.900,62.710,18.270,6.831,411.500,113.500,33.670,13.310,baseline
1363.000,330.400,81.020,22.300,1423.000,296.700,74.880,17.870,145.900,62.600,18.270,6.855,413.400,113.800,33.950,13.420,baseline
1364.000,329.700,81.160,22.390,1425.000,297.400,74.710,17.870,145.900,62.730,18.350,6.862,415.800,114.900,34.140,13.540,baseline
1367.000,330.700,82.610,22.420,1431.000,297.000,74.270,17.780,144.600,62.940,18.310,6.847,414.700,114.100,33.750,13.270,baseline
1359.000,329.700,82.120,22.190,1423.000,296.300,74.420,17.770,145.000,62.110,18.290,6.814,409.800,112.800,33.410,13.090,baseline
1358.000,327.300,81.860,22.030,1421.000,296.000,74.340,17.740,146.000,62.220,18.090,6.785,408.900,112.500,33.280,13.110,baseline
1357.000,328.700,81.820,22.170,1425.000,297.100,74.530,17.790,142.600,62.450,18.260,6.840,409.500,113.000,33.360,13.140,baseline
1357.000,329.000,81.980,22.080,1420.000,296.600,75.210,17.740,144.300,62.550,18.280,6.844,409.200,113.300,33.510,13.140,baseline
1357.000,328.900,81.630,22.250,1420.000,296.300,74.810,17.770,146.100,62.480,18.220,6.847,410.100,113.300,33.430,13.230,baseline
1358.000,328.900,80.790,22.300,1420.000,296.100,74.890,17.780,144.900,63.180,18.430,6.865,411.700,113.700,33.780,13.320,baseline
1361.000,331.100,81.180,22.310,1423.000,296.700,75.680,17.830,147.800,62.780,18.410,6.883,412.600,113.900,33.790,13.330,baseline
1361.000,331.300,81.260,22.230,1422.000,296.400,74.780,17.690,147.500,62.560,18.350,6.840,409.500,112.700,33.310,13.080,baseline
1353.000,327.700,80.990,22.020,1419.000,294.900,74.360,17.770,144.300,62.490,18.260,6.819,406.300,112.100,33.090,12.990,baseline
1350.000,327.700,78.750,22.010,1419.000,295.400,75.060,17.810,143.600,62.590,18.250,6.856,405.000,111.900,33.050,12.980,baseline
1350.000,328.400,81.250,22.020,1418.000,295.500,74.750,17.720,147.600,62.490,18.300,6.854,406.800,112.400,33.170,12.990,baseline
1348.000,327.500,80.970,22.060,1419.000,295.500,74.250,17.770,145.100,62.980,18.340,6.889,407.400,112.500,33.150,13.060,baseline
1352.000,328.200,81.060,22.050,1416.000,295.000,74.300,17.770,144.100,63.060,18.320,6.893,407.400,112.900,33.290,13.170,baseline
1352.000,329.500,82.120,22.050,1421.000,296.300,74.520,17.820,145.400,63.080,18.470,6.910,411.600,113.300,33.420,13.160,baseline
1356.000,329.100,79.710,22.200,1422.000,296.300,74.510,17.740,146.000,63.120,18.510,6.935,410.300,113.300,33.330,13.060,baseline
1351.000,327.200,80.930,21.970,1414.000,295.000,74.380,17.710,143.300,63.150,18.310,6.891,405.600,112.200,32.970,12.890,baseline
1347.000,326.000,79.870,21.850,1415.000,295.400,75.350,17.710,145.100,62.850,18.350,6.849,404.400,111.300,32.880,12.910,baseline
1347.000,327.600,80.250,21.940,1417.000,295.300,74.380,17.780,145.600,62.900,18.410,6.871,404.000,111.700,32.700,12.920,baseline
1345.000,326.300,80.570,21.920,1411.000,295.600,74.530,17.790,145.000,63.200,18.380,6.921,404.100,111.500,32.840,12.890,baseline
1345.000,325.800,79.900,21.960,1420.000,295.500,74.430,17.770,142.100,62.920,18.530,6.920,405.500,112.100,33.170,12.950,baseline
1348.000,328.500,80.350,21.990,1420.000,295.700,74.550,17.850,148.500,63.240,18.440,6.929,406.300,112.200,33.180,13.050,baseline
1350.000,329.400,80.700,22.160,1419.000,296.500,74.740,17.830,145.100,63.450,18.440,6.950,407.000,112.600,33.350,13.140,baseline
1353.000,329.400,81.210,22.010,1418.000,295.300,74.570,17.780,143.200,63.350,18.520,6.931,406.000,112.000,32.960,12.890,baseline
1346.000,327.500,80.910,21.830,1419.000,294.800,74.330,17.760,144.000,62.910,18.430,6.901,402.900,111.400,32.750,12.790,baseline
1346.000,325.600,79.920,21.850,1413.000,295.500,73.630,17.730,143.700,62.890,18.480,6.888,402.400,111.300,32.700,12.880,baseline
1343.000,325.900,82.000,21.780,1418.000,295.400,74.030,17.820,145.600,62.760,18.420,6.929,402.800,111.300,32.810,12.850,baseline
1344.000,325.300,80.870,21.910,1416.000,295.500,75.020,17.770,146.800,63.000,18.480,6.906,402.800,111.300,32.780,12.880,baseline
1346.000,325.500,79.210,21.910,1418.000,295.500,75.150,17.860,145.700,62.830,18.500,6.932,402.800,111.800,32.820,12.960,baseline
1347.000,325.900,80.320,22.020,1418.000,296.200,75.020,17.850,143.600,63.000,18.520,6.964,405.900,112.300,33.110,13.010,baseline
1350.000,327.100,80.910,22.060,1413.000,295.700,74.580,17.770,145.900,63.060,18.540,6.927,407.200,112.000,32.940,12.970,baseline
1348.000,325.900,80.340,21.880,1417.000,295.400,74.870,17.810,146.200,62.820,18.400,6.926,401.200,111.100,32.600,12.830,baseline
1343.000,327.400,79.590,21.770,1415.000,295.200,74.580,17.780,145.100,62.580,18.380,6.932,401.500,110.800,32.500,12.730,baseline
1343.000,326.400,79.380,21.850,1412.000,294.900,75.020,17.810,146.800,62.670,18.370,6.885,402.400,110.900,32.660,12.770,baseline
1344.000,325.600,80.040,21.820,1418.000,294.900,74.840,17.800,146.400,62.360,18.390,6.914,401.500,111.000,32.710,12.820,baseline
1343.000,326.400,79.350,21.920,1422.000,295.200,74.280,17.850,145.400,62.630,18.470,6.933,402.600,111.100,32.740,12.880,baseline
1347.000,326.000,80.960,21.850,1413.000,295.300,74.350,17.850,143.400,62.860,18.500,6.914,404.000,111.500,32.870,12.910,baseline
1349.000,326.800,80.870,22.040,1418.000,296.200,75.190,17.830,146.000,63.090,18.540,6.953,405.500,112.000,33.080,12.990,baseline
1351.000,327.500,81.110,22.130,1424.000,296.900,74.150,17.900,143.000,63.030,18.510,6.956,407.200,112.000,33.050,12.930,baseline
1349.000,328.300,80.410,21.980,1421.000,296.200,75.130,17.840,145.700,62.720,18.400,6.890,402.400,110.900,32.650,12.720,baseline
1347.000,325.700,80.260,21.850,1420.000,295.000,74.560,17.800,145.900,62.470,18.340,6.882,400.100,110.200,32.560,12.730,baseline
1344.000,325.000,78.910,21.840,1424.000,296.400,73.750,17.890,143.400,62.410,18.340,6.873,400.900,110.500,32.500,12.770,baseline
1343.000,327.700,79.570,21.820,1422.000,296.400,74.890,17.760,143.100,62.740,18.330,6.914,401.700,110.400,32.600,12.810,baseline
1345.000,326.900,79.170,21.900,1420.000,296.300,74.700,17.880,143.200,62.600,18.470,6.895,401.500,110.800,32.660,12.840,baseline
1347.000,328.300,80.510,22.010,1418.000,295.500,74.500,17.910,146.200,62.930,18.450,6.925,402.900,111.200,32.750,12.880,baseline
1350.000,327.800,81.280,21.940,1419.000,296.100,75.140,17.980,143.600,62.850,18.440,6.936,404.200,111.500,32.920,12.910,baseline
1352.000,328.400,81.060,22.150,1427.000,297.100,74.880,17.950,146.600,62.790,18.500,6.939,405.500,111.900,33.060,13.020,baseline
1354.000,328.000,81.210,21.950,1422.000,296.600,74.870,17.870,146.600,62.870,18.420,6.949,403.900,111.100,32.760,12.810,baseline
1347.000,328.000,80.460,21.940,1421.000,296.100,75.230,17.960,144.000,62.520,18.370,6.893,402.300,110.500,32.640,12.790,baseline
1349.000,327.700,80.930,21.940,1418.000,296.400,75.460,17.900,144.900,62.360,18.370,6.887,399.500,110.300,32.530,12.710,baseline
1348.000,327.300,81.310,21.910,1420.000,297.900,75.390,17.930,146.900,62.300,18.400,6.901,400.400,110.600,32.660,12.770,baseline
1350.000,326.700,79.030,22.000,1419.000,296.900,76.400,17.950,143.700,62.550,18.430,6.923,400.700,111.000,32.710,12.790,baseline
1352.000,328.400,79.850,22.030,1423.000,297.800,75.530,17.930,145.500,62.870,18.460,6.897,401.400,111.300,32.850,12.850,baseline
1351.000,328.300,79.980,22.050,1424.000,297.700,75.000,17.950,145.700,62.690,18.460,6.942,402.200,111.400,32.860,12.900,baseline
1356.000,329.700,79.620,22.130,1426.000,297.500,75.320,17.980,142.800,63.030,18.450,6.957,404.700,111.900,33.100,13.000,baseline
1358.000,331.100,81.440,22.170,1428.000,296.600,75.970,18.000,144.200,63.260,18.410,6.948,405.300,112.000,33.200,13.050,baseline
1360.000,330.400,82.570,22.120,1437.000,297.900,75.470,17.950,147.700,62.800,18.510,6.927,404.900,111.000,32.770,12.840,baseline
1353.000,329.200,80.930,22.060,1424.000,297.600,74.490,17.920,144.400,63.050,18.440,6.915,402.300,111.100,32.640,12.790,baseline
1352.000,329.300,81.610,22.030,1422.000,297.700,74.460,17.940,146.600,62.670,18.400,6.900,401.200,110.800,32.790,12.810,baseline
1354.000,328.100,81.020,22.110,1428.000,297.600,74.040,17.910,148.500,63.080,18.440,6.915,402.700,111.100,32.790,12.800,baseline
1354.000,328.800,81.560,22.090,1425.000,297.900,75.360,18.040,145.700,62.910,18.430,6.896,403.600,111.500,32.650,12.850,baseline
1357.000,329.400,80.690,22.190,1424.000,298.100,75.850,18.040,142.900,62.730,18.550,6.931,402.700,111.700,33.010,12.920,baseline
1359.000,330.600,82.080,22.170,1424.000,297.200,74.950,18.000,147.200,62.840,18.590,6.980,404.800,111.900,33.150,12.980,baseline
1360.000,329.600,81.260,22.320,1427.000,297.900,75.360,18.030,147.900,63.310,18.640,6.985,406.200,112.900,33.120,13.050,baseline
1362.000,331.200,80.050,22.320,1429.000,298.300,75.880,17.980,145.900,63.220,18.630,6.994,405.500,112.100,32.990,12.950,baseline
1360.000,331.200,80.510,22.140,1428.000,297.600,76.240,17.960,145.500,63.210,18.530,6.922,403.000,111.100,32.700,12.780,baseline
1358.000,328.800,81.530,22.000,1431.000,297.400,75.040,17.960,143.400,62.960,18.450,6.937,401.600,110.800,32.610,12.770,baseline
1355.000,328.300,81.910,22.120,1426.000,297.200,75.100,17.950,146.600,63.100,18.470,6.937,402.800,111.100,32.760,12.810,baseline
1358.000,329.900,80.920,22.110,1426.000,297.800,74.800,17.950,149.100,63.140,18.560,6.949,404.200,111.400,32.760,12.840,baseline
1359.000,331.500,80.660,22.080,1427.000,297.800,74.550,17.940,147.700,63.250,18.600,6.984,404.700,111.700,32.920,12.990,baseline
1360.000,329.000,82.260,22.170,1429.000,297.000,75.170,18.010,145.500,63.330,18.670,6.985,406.700,112.300,33.020,13.000,baseline
1360.000,330.600,82.500,22.360,1431.000,298.700,75.660,17.920,145.300,63.540,18.670,7.012,407.600,112.200,33.220,13.040,baseline
1364.000,331.300,83.080,22.360,1430.000,298.800,74.950,18.010,150.700,63.480,18.640,7.044,408.900,113.100,33.310,13.120,baseline
1369.000,331.700,82.190,22.330,1429.000,298.200,75.420,17.970,148.300,63.710,18.660,7.005,408.700,112.600,33.080,12.990,baseline
1361.000,329.200,80.140,22.210,1426.000,297.200,75.430,17.940,146.300,63.280,18.670,6.964,405.200,111.400,32.890,12.870,baseline
1360.000,330.700,80.510,22.180,1431.000,297.500,75.730,17.950,149.600,63.310,18.550,6.983,403.800,111.100,32.750,12.860,baseline
1358.000,328.900,81.090,22.140,1430.000,297.700,75.330,17.920,147.400,63.520,18.630,7.002,404.600,111.700,32.860,12.820,baseline
1359.000,330.300,81.960,22.140,1428.000,296.900,75.190,17.890,146.200,63.330,18.620,7.034,403.700,111.500,32.950,12.920,baseline
1360.000,329.700,80.920,22.130,1434.000,297.900,75.100,17.970,147.100,63.670,18.660,7.007,405.600,112.100,33.060,12.970,baseline
1361.000,331.400,82.230,22.250,1426.000,297.700,74.720,18.010,148.200,63.230,18.690,7.056,408.000,112.500,33.320,13.090,baseline
1362.000,330.400,82.570,22.290,1426.000,298.500,75.120,18.020,147.200,63.630,18.680,7.064,409.600,113.000,33.380,13.110,baseline
1365.000,332.000,83.720,22.450,1436.000,297.700,75.010,17.980,148.400,63.710,18.790,7.038,411.500,113.100,33.530,13.200,baseline
1369.000,331.900,81.610,22.380,1431.000,297.800,75.390,17.920,150.100,63.740,18.800,7.036,410.600,112.700,33.200,13.020,baseline
1363.000,331.000,82.150,22.280,1427.000,297.500,75.380,17.870,145.100,63.840,18.590,6.997,405.700,111.900,33.080,12.930,baseline
1360.000,329.500,79.240,22.250,1428.000,297.500,75.240,17.980,147.600,63.550,18.560,7.027,404.600,111.900,32.940,12.920,baseline
1362.000,329.600,80.760,22.200,1421.000,296.800,75.130,17.920,149.700,63.770,18.680,7.013,406.000,111.900,33.040,12.960,baseline
1361.000,331.300,81.600,22.280,1426.000,296.800,75.870,17.900,147.700,63.830,18.690,7.024,405.200,112.200,33.140,13.010,baseline
1361.000,329.900,80.190,22.300,1426.000,297.800,75.880,17.930,150.200,63.510,18.670,7.017,407.400,112.600,33.250,13.060,baseline
1362.000,330.200,82.590,22.350,1431.000,298.100,74.800,17.890,151.400,63.720,18.680,7.018,409.400,113.100,33.350,13.180,baseline
1363.000,330.400,81.360,22.450,1430.000,298.000,74.920,17.950,146.900,63.870,18.750,7.042,410.500,113.400,33.560,13.250,baseline
1365.000,332.300,81.680,22.470,1435.000,297.800,75.660,17.970,145.300,64.190,18.790,7.047,411.600,113.900,33.780,13.230,baseline
1367.000,331.300,83.560,22.350,1429.000,296.800,75.070,17.860,150.600,63.800,18.720,6.991,408.400,112.800,33.190,13.060,baseline
1361.000,330.300,81.880,22.240,1425.000,296.400,73.910,17.850,148.000,63.520,18.580,6.968,406.800,112.400,33.050,13.020,baseline
1360.000,330.100,83.240,22.280,1420.000,297.000,75.650,17.860,146.300,63.410,18.600,6.963,405.800,112.200,33.140,13.090,baseline
1363.000,330.300,82.250,22.260,1431.000,297.500,75.460,17.890,147.600,63.500,18.630,6.986,408.000,112.400,33.390,13.040,baseline
1360.000,331.100,82.100,22.300,1423.000,297.000,74.560,17.810,149.400,63.300,18.620,6.981,409.000,112.900,33.280,13.110,baseline
1364.000,331.000,81.090,22.420,1427.000,297.500,75.330,17.910,149.400,63.690,18.570,6.993,410.300,113.400,33.500,13.180,baseline
1365.000,331.700,82.050,22.470,1428.000,297.100,74.890,17.890,149.200,63.910,18.710,7.012,411.200,114.100,33.680,13.290,baseline
1368.000,332.600,81.750,22.500,1426.000,297.000,75.480,17.940,150.500,63.830,18.740,7.027,413.800,114.300,33.860,13.340,baseline
1369.000,331.900,82.280,22.410,1431.000,297.100,74.830,17.880,146.700,63.540,18.680,6.954,410.500,113.300,33.330,13.090,baseline
1363.000,330.700,81.040,22.320,1425.000,297.100,75.250,17.710,149.600,63.570,18.530,6.948,408.900,112.400,33.150,13.020,baseline
1359.000,328.600,82.140,22.190,1426.000,296.700,74.740,17.850,149.600,63.300,18.460,6.946,407.100,112.300,33.160,13.060,baseline
1361.000,330.200,82.060,22.340,1421.000,297.000,74.270,17.780,147.100,63.410,18.550,6.919,407.800,112.600,33.160,13.060,baseline
1360.000,330.500,82.020,22.280,1423.000,296.900,73.910,17.870,149.000,63.460,18.500,6.953,410.500,112.600,33.360,13.090,baseline
1363.000,330.100,83.500,22.360,1427.000,297.200,74.640,17.830,148.600,63.420,18.580,6.960,410.400,113.100,33.680,13.230,baseline
1365.000,331.900,82.710,22.430,1424.000,297.000,75.050,17.830,151.900,63.350,18.600,7.003,411.300,114.100,33.720,13.260,baseline
1367.000,332.900,81.840,22.500,1432.000,297.400,75.460,17.810,147.200,63.870,18.600,7.001,414.200,114.400,33.980,13.330,baseline
1369.000,332.700,82.270,22.500,1424.000,296.000,74.680,17.780,150.400,63.820,18.710,6.976,413.700,114.300,33.810,13.200,baseline
1363.000,331.200,82.320,22.440,1424.000,296.700,75.550,17.760,148.600,63.290,18.440,6.933,408.000,113.100,33.360,13.080,baseline
1363.000,331.700,81.170,22.280,1428.000,296.400,74.930,17.750,146.100,63.400,18.480,6.904,408.300,112.700,33.220,13.060,baseline
1363.000,331.900,81.890,22.350,1424.000,296.200,74.730,17.770,148.200,63.310,18.520,6.910,410.000,113.100,33.470,13.140,baseline
1362.000,330.800,83.310,22.370,1427.000,296.400,75.710,17.780,147.700,63.320,18.410,6.916,409.700,113.200,33.490,13.120,baseline
1363.000,332.800,81.820,22.470,1422.000,297.100,74.500,17.790,146.000,63.240,18.470,6.937,410.300,113.700,33.590,13.230,baseline
1365.000,331.700,82.250,22.510,1423.000,296.500,74.820,17.780,149.400,63.690,18.600,6.944,413.100,114.200,33.680,13.300,baseline
1368.000,332.200,82.550,22.640,1424.000,296.600,73.860,17.890,152.300,63.640,18.650,6.988,415.100,114.600,33.980,13.410,baseline
1372.000,334.400,82.040,22.710,1424.000,297.500,75.260,17.800,146.200,63.410,18.630,6.987,416.900,115.300,34.100,13.430,baseline
1371.000,331.900,83.630,22.510,1420.000,297.400,74.930,17.730,148.600,63.410,18.560,6.909,412.400,113.500,33.550,13.130,baseline
1365.000,332.800,80.940,22.470,1426.000,297.000,74.180,17.740,149.200,63.360,18.480,6.906,410.600,113.100,33.460,13.110,baseline
1365.000,331.400,82.060,22.480,1423.000,295.800,74.980,17.710,148.300,62.790,18.450,6.903,410.800,113.400,33.530,13.190,baseline
1366.000,332.900,81.200,22.510,1425.000,295.700,75.090,17.710,147.400,63.220,18.440,6.905,411.100,113.300,33.730,13.230,baseline
1366.000,332.400,81.390,22.560,1426.000,297.100,74.830,17.720,147.000,63.080,18.460,6.924,412.200,113.800,33.660,13.230,baseline
1369.000,333.400,82.610,22.540,1419.000,296.800,75.330,17.800,147.700,63.500,18.540,6.928,414.500,114.200,33.930,13.370,baseline
1372.000,332.500,83.060,22.690,1422.000,296.600,74.040,17.790,149.300,63.480,18.580,6.973,415.600,115.200,34.020,13.450,baseline
1372.000,333.600,82.820,22.640,1428.000,297.000,74.480,17.730,150.400,63.480,18.580,6.976,417.900,115.500,34.250,13.450,baseline
1373.000,334.100,83.130,22.560,1423.000,297.200,74.350,17.680,147.800,63.200,18.510,6.936,413.300,114.100,33.610,13.190,baseline
1366.000,334.700,82.560,22.610,1423.000,296.900,74.440,17.720,147.600,63.530,18.440,6.891,411.600,114.000,33.510,13.210,baseline
1369.000,335.300,83.340,22.420,1423.000,295.700,74.690,17.730,148.100,63.330,18.420,6.886,413.500,114.000,33.580,13.260,baseline
1368.000,333.000,83.460,22.600,1425.000,296.500,73.670,17.740,149.800,63.290,18.510,6.901,413.100,113.800,33.830,13.240,baseline
1370.000,332.500,82.630,22.520,1420.000,296.500,74.630,17.700,146.400,63.720,18.500,6.925,413.200,114.400,33.880,13.290,baseline
1370.000,333.000,82.380,22.640,1429.000,297.700,74.530,17.740,150.400,63.430,18.530,6.932,415.400,114.700,34.170,13.380,baseline
1372.000,333.700,82.470,22.690,1423.000,297.000,74.350,17.780,150.600,63.730,18.550,6.936,417.900,115.500,34.260,13.500,baseline
1375.000,333.300,84.120,22.880,1432.000,297.300,74.570,17.680,148.700,63.460,18.570,6.968,420.000,115.600,34.270,13.510,baseline
1374.000,333.400,83.680,22.530,1425.000,296.100,75.660,17.710,149.000,63.420,18.390,6.895,414.100,114.000,33.690,13.220,baseline
1366.000,333.500,82.170,22.500,1432.000,295.900,74.580,17.650,149.100,63.010,18.410,6.887,411.800,113.600,33.460,13.180,baseline
1367.000,332.400,81.590,22.450,1422.000,295.900,74.460,17.670,145.700,63.210,18.480,6.877,411.900,114.100,33.570,13.180,baseline
1367.000,331.400,81.930,22.500,1422.000,297.000,74.260,17.700,149.200,63.080,18.380,6.883,413.500,113.800,33.630,13.190,baseline
1369.000,332.400,83.150,22.510,1419.000,296.200,73.850,17.720,152.700,63.330,18.460,6.902,414.200,113.900,33.730,13.290,baseline
1370.000,334.100,82.920,22.540,1425.000,297.100,74.010,17.740,149.600,63.430,18.600,6.934,414.800,114.800,33.950,13.350,baseline
1371.000,333.000,82.870,22.660,1423.000,296.300,74.430,17.760,148.000,63.610,18.570,6.969,417.400,115.200,34.180,13.390,baseline
1375.000,335.600,84.270,22.710,1431.000,296.600,74.130,17.710,150.200,63.710,18.630,6.963,419.200,115.500,34.130,13.430,baseline
1372.000,334.100,83.630,22.460,1418.000,295.600,73.540,17.690,150.000,63.200,18.490,6.911,413.200,113.800,33.360,13.160,baseline
1366.000,333.800,83.100,22.400,1422.000,296.300,74.550,17.700,147.600,63.280,18.460,6.907,409.400,113.100,33.320,13.120,baseline
1366.000,332.700,83.790,22.570,1422.000,295.400,74.700,17.650,147.700,63.180,18.520,6.919,412.300,113.300,33.530,13.170,baseline
1367.000,333.200,81.260,22.500,1426.000,296.600,74.980,17.630,149.300,63.320,18.510,6.921,411.100,113.800,33.500,13.180,baseline
1366.000,333.600,81.540,22.490,1421.000,296.300,74.540,17.690,148.800,63.590,18.580,6.950,411.300,113.800,33.560,13.190,baseline
1367.000,331.900,81.650,22.620,1416.000,296.300,74.440,17.680,148.900,63.730,18.630,6.982,412.400,114.200,33.820,13.340,baseline
1370.000,333.700,84.160,22.590,1421.000,296.800,75.690,17.720,153.000,63.650,18.660,6.994,414.500,114.700,34.030,13.410,baseline
1371.000,333.400,83.000,22.700,1427.000,296.700,74.720,17.690,148.700,63.970,18.680,6.991,416.300,114.900,34.000,13.320,baseline
1367.000,331.000,81.540,22.410,1421.000,295.700,74.450,17.640,148.800,63.630,18.580,6.948,411.100,113.100,33.390,13.080,baseline
1364.000,332.300,81.360,22.380,1422.000,295.300,74.090,17.680,150.100,63.520,18.530,6.966,411.100,113.000,33.240,13.060,baseline
1364.000,332.700,81.700,22.470,1424.000,295.900,74.010,17.680,150.000,63.400,18.590,6.972,410.600,113.400,33.510,13.110,baseline
1364.000,331.300,82.410,22.550,1420.000,295.600,74.000,17.640,149.000,63.300,18.540,6.962,411.200,113.400,33.400,13.150,baseline
1363.000,332.200,82.110,22.420,1419.000,296.300,74.530,17.740,153.000,63.270,18.590,6.986,411.500,113.600,33.600,13.170,baseline
1366.000,332.700,82.100,22.460,1416.000,296.300,73.970,17.720,151.200,63.780,18.670,7.029,413.100,114.000,33.620,13.300,baseline
1368.000,333.800,82.360,22.600,1425.000,295.500,75.220,17.740,149.300,63.720,18.680,7.050,414.800,114.200,33.780,13.280,baseline
1367.000,332.500,83.060,22.580,1422.000,294.800,74.020,17.680,151.200,63.810,18.720,7.032,413.100,113.500,33.350,13.080,baseline
1361.000,330.100,81.680,22.380,1419.000,295.200,74.190,17.670,148.600,63.570,18.560,6.989,408.800,112.600,33.180,13.000,baseline
1361.000,331.100,80.580,22.380,1417.000,294.500,74.530,17.650,148.300,63.510,18.630,6.982,409.300,112.400,33.210,13.040,baseline
1360.000,330.200,81.280,22.400,1418.000,295.600,74.320,17.670,150.900,63.510,18.690,6.971,411.000,112.800,33.150,13.040,baseline
1362.000,332.400,82.060,22.370,1418.000,295.300,74.390,17.680,151.800,63.650,18.650,6.990,409.600,113.100,33.260,13.070,baseline
1361.000,332.400,81.790,22.430,1419.000,294.500,74.430,17.630,149.900,63.840,18.640,7.016,410.200,113.200,33.440,13.160,baseline
1364.000,330.700,81.930,22.450,1421.000,295.400,74.790,17.700,151.200,64.020,18.750,7.037,413.200,113.800,33.690,13.210,baseline
1366.000,331.900,83.090,22.560,1420.000,295.000,74.710,17.690,149.700,63.890,18.830,7.026,413.800,114.200,33.720,13.220,baseline
1366.000,332.400,82.020,22.390,1422.000,296.200,74.880,17.620,147.400,63.500,18.640,7.020,408.800,112.300,33.130,12.950,baseline
1358.000,330.600,81.820,22.260,1423.000,296.300,74.440,17.640,149.200,63.380,18.570,6.982,407.100,112.000,32.900,12.890,baseline
1357.000,329.600,80.290,22.130,1415.000,295.800,73.990,17.690,150.900,63.150,18.510,6.977,406.800,111.500,32.920,12.860,baseline
1358.000,329.800,79.340,22.240,1420.000,295.200,74.370,17.700,148.800,63.390,18.500,6.995,406.900,111.700,32.870,12.920,baseline
1358.000,329.800,80.270,22.120,1420.000,295.900,74.600,17.710,148.600,63.110,18.650,6.970,407.200,111.700,32.850,12.920,baseline
1358.000,330.500,82.330,22.290,1429.000,295.200,74.920,17.640,151.700,63.250,18.640,7.024,408.300,112.000,33.120,13.010,baseline
1359.000,332.600,80.390,22.270,1424.000,296.300,74.750,17.730,150.400,63.500,18.760,7.059,409.100,112.900,33.210,13.100,baseline
1363.000,331.300,82.870,22.420,1420.000,296.100,74.770,17.750,149.100,63.520,18.760,7.069,411.400,113.100,33.360,13.080,baseline
1361.000,330.200,83.080,22.220,1420.000,295.700,74.880,17.740,152.400,63.600,18.670,7.037,407.300,112.000,32.820,12.850,baseline
1356.000,328.800,81.690,22.090,1418.000,295.500,74.050,17.710,149.400,63.110,18.580,6.995,404.900,111.300,32.820,12.790,baseline
1355.000,326.900,80.370,22.090,1414.000,295.100,74.390,17.690,149.100,63.280,18.640,7.018,404.900,111.400,32.710,12.850,baseline
1356.000,329.200,81.280,22.140,1416.000,296.200,74.460,17.680,149.200,63.200,18.660,7.007,406.100,111.400,32.850,12.790,baseline
1354.000,328.800,80.480,22.170,1421.000,296.400,74.570,17.770,151.100,63.390,18.700,7.058,406.200,111.800,32.910,12.950,baseline
1355.000,328.900,81.440,22.290,1420.000,296.100,74.440,17.790,148.500,63.600,18.810,7.075,407.600,112.400,33.170,12.970,baseline
1358.000,329.700,82.660,22.330,1415.000,296.300,74.440,17.770,151.400,63.700,18.770,7.078,409.900,112.300,33.300,13.000,baseline
1360.000,330.300,81.820,22.310,1422.000,295.700,75.310,17.780,150.900,63.750,18.850,7.084,409.500,112.800,33.390,13.170,baseline
1362.000,330.300,81.230,22.420,1426.000,296.500,74.890,17.780,148.800,63.810,18.860,7.113,410.200,112.600,33.020,12.940,baseline
1355.000,329.600,80.630,22.280,1417.000,296.100,75.020,17.780,148.800,63.640,18.690,7.041,405.900,111.300,32.750,12.850,baseline
1357.000,328.900,82.120,22.140,1417.000,296.200,74.910,17.740,153.000,63.270,18.690,7.056,404.400,111.200,32.700,12.830,baseline
1353.000,328.700,80.790,22.200,1420.000,296.000,74.920,17.800,147.600,63.480,18.780,7.056,404.600,111.300,32.780,12.850,baseline
1354.000,330.400,81.430,22.140,1419.000,295.000,74.540,17.870,147.800,63.570,18.770,7.060,405.600,111.700,32.850,12.910,baseline
1356.000,329.000,81.060,22.140,1422.000,296.400,74.760,17.860,151.300,63.680,18.710,7.082,407.200,112.000,33.040,12.930,baseline
1359.000,330.000,82.230,22.410,1415.000,296.700,74.780,17.860,150.600,64.080,18.780,7.095,408.700,112.400,33.140,13.000,baseline
1361.000,329.900,81.910,22.420,1416.000,296.900,75.220,17.830,150.000,63.840,18.790,7.133,409.100,112.900,33.370,13.030,baseline
1363.000,330.800,83.010,22.450,1422.000,297.000,75.170,17.810,151.700,63.730,18.820,7.093,411.400,112.700,33.280,12.950,baseline
1359.000,329.100,79.680,22.270,1421.000,295.900,75.130,17.770,149.100,63.830,18.690,7.073,406.300,111.600,32.800,12.900,baseline
1357.000,329.400,80.740,22.220,1419.000,296.200,74.960,17.780,148.000,63.440,18.700,7.067,405.800,111.400,32.660,12.840,baseline
1355.000,329.600,79.970,22.200,1420.000,295.900,75.360,17.780,148.900,63.670,18.750,7.050,406.100,111.800,33.050,12.870,baseline
1356.000,328.600,80.590,22.230,1420.000,296.000,74.390,17.860,151.700,63.470,18.720,7.065,406.800,111.600,33.020,12.890,baseline
1356.000,330.400,82.190,22.240,1426.000,296.400,74.980,17.830,148.400,64.000,18.710,7.071,406.600,112.300,33.000,12.950,baseline
1359.000,331.000,81.000,22.260,1422.000,296.800,75.720,17.840,150.200,63.670,18.830,7.065,409.700,112.700,33.260,13.050,baseline
1362.000,329.600,82.790,22.340,1421.000,296.300,74.620,17.790,151.300,63.430,18.910,7.101,411.400,113.200,33.540,13.150,baseline
1359.000,331.600,82.880,22.450,1423.000,296.400,74.890,17.810,147.800,64.000,18.810,7.113,412.600,113.600,33.560,13.120,baseline
1360.000,329.400,80.650,22.240,1412.000,295.800,74.070,17.750,151.000,63.840,18.760,7.050,408.100,112.100,33.050,12.890,baseline
1352.000,328.600,81.120,22.220,1418.000,295.600,74.040,17.760,153.200,63.650,18.720,7.050,407.000,111.600,32.910,12.910,baseline
1351.000,329.100,80.700,22.160,1416.000,295.400,74.170,17.690,149.400,63.180,18.680,7.031,407.200,112.200,32.980,12.890,baseline
1346.000,327.600,80.420,22.100,1414.000,294.400,74.080,17.720,151.200,63.720,18.750,7.048,407.400,112.000,33.100,12.930,baseline
1346.000,328.200,79.900,22.140,1412.000,295.200,75.130,17.710,154.500,63.780,18.790,7.085,408.600,112.300,33.090,12.980,baseline
1351.000,329.700,81.160,22.250,1411.000,295.000,74.150,17.770,154.000,63.480,18.770,7.070,410.400,112.800,33.350,13.050,baseline
1353.000,329.300,81.210,22.280,1407.000,295.900,75.430,17.800,149.500,63.650,18.790,7.091,411.000,113.300,33.400,13.180,baseline
1357.000,330.300,82.050,22.330,1414.000,296.600,75.560,17.790,152.100,63.750,18.820,7.111,413.400,113.800,33.580,13.200,baseline
1355.000,329.900,81.900,22.160,1415.000,295.400,74.210,17.780,150.500,63.700,18.740,7.081,409.500,112.600,33.080,12.990,baseline
1352.000,329.900,80.830,22.080,1413.000,294.300,74.580,17.750,149.200,63.690,18.640,7.054,407.200,112.100,33.010,12.930,baseline
1351.000,326.500,82.480,22.070,1416.000,295.300,74.980,17.740,149.700,63.440,18.670,7.030,407.100,112.300,33.030,12.920,baseline
1353.000,328.600,82.160,22.210,1416.000,296.200,74.630,17.830,152.600,63.480,18.650,7.061,409.000,112.600,33.100,13.000,baseline
1353.000,330.300,80.930,22.200,1420.000,296.400,74.750,17.850,148.700,63.800,18.690,7.060,410.300,112.400,33.210,13.000,baseline
1357.000,329.500,81.850,22.330,1423.000,296.900,74.830,17.850,149.000,63.810,18.740,7.035,411.500,113.100,33.350,13.100,baseline
1360.000,329.800,81.290,22.440,1419.000,296.400,75.370,17.910,154.500,63.880,18.700,7.099,412.200,114.000,33.480,13.190,baseline
1361.000,330.900,82.440,22.410,1422.000,297.100,74.880,17.880,149.700,63.930,18.790,7.083,414.000,114.100,33.700,13.280,baseline
1365.000,332.500,82.400,22.430,1425.000,296.700,74.890,17.830,149.500,63.930,18.760,7.052,412.100,113.300,33.240,13.080,baseline
1357.000,330.900,81.330,22.240,1420.000,296.600,74.690,17.870,152.000,63.130,18.720,7.046,410.000,112.700,33.130,13.060,baseline
1359.000,331.600,81.790,22.210,1419.000,295.800,74.640,17.800,152.600,63.230,18.630,7.031,408.400,112.900,33.330,13.000,baseline
1358.000,331.000,82.610,22.240,1419.000,296.600,74.910,17.850,150.500,63.380,18.620,7.026,409.700,112.900,33.320,13.010,baseline
1357.000,329.200,80.790,22.210,1423.000,296.800,75.520,17.860,152.600,63.410,18.650,7.040,411.000,113.200,33.280,13.070,baseline
1359.000,329.800,82.190,22.290,1420.000,296.800,74.950,17.890,151.700,63.680,18.720,7.062,410.400,113.100,33.580,13.180,baseline
1361.000,330.500,82.590,22.350,1425.000,296.700,75.330,17.880,149.500,63.270,18.680,7.072,413.000,113.700,33.630,13.170,baseline
1365.000,330.900,82.820,22.500,1427.000,297.600,74.320,17.900,153.100,63.640,18.690,7.057,414.500,114.200,33.830,13.250,baseline
1364.000,330.500,81.060,22.360,1428.000,297.800,74.500,17.870,151.400,63.710,18.690,7.025,411.900,113.200,33.370,13.040,baseline
1359.000,330.400,80.910,22.250,1422.000,296.800,75.010,17.800,148.600,63.460,18.590,7.001,409.400,112.500,33.200,12.990,baseline
1356.000,330.500,82.610,22.250,1425.000,296.200,75.010,17.870,153.400,63.040,18.560,7.005,409.200,113.000,33.290,13.050,baseline
1358.000,330.900,81.550,22.320,1419.000,297.500,74.220,17.860,151.200,63.350,18.680,7.014,410.600,112.900,33.270,13.070,baseline
1358.000,331.200,79.500,22.370,1422.000,297.500,74.480,17.880,149.800,63.640,18.630,7.011,410.300,113.200,33.220,13.120,baseline
1357.000,328.700,81.220,22.400,1425.000,297.700,74.770,17.850,152.400,63.310,18.630,6.996,412.100,113.400,33.540,13.140,baseline
1362.000,329.100,81.420,22.370,1422.000,297.600,74.890,17.980,152.300,63.610,18.690,7.025,413.400,114.200,33.700,13.230,baseline
1365.000,331.200,81.280,22.450,1420.000,297.100,74.310,17.960,148.200,63.870,18.690,7.048,415.000,114.300,33.870,13.300,baseline
1364.000,330.700,82.570,22.360,1426.000,297.500,74.960,17.840,151.400,63.190,18.610,7.009,411.000,113.300,33.330,13.050,baseline
1357.000,329.800,81.820,22.240,1420.000,297.500,75.140,17.910,151.900,63.210,18.550,7.005,410.200,112.900,33.180,13.010,baseline
1359.000,330.300,81.610,22.250,1425.000,297.600,75.200,17.880,150.500,63.300,18.560,7.003,411.300,113.200,33.290,13.060,baseline
1359.000,330.000,81.510,22.290,1422.000,297.500,75.670,17.840,149.400,63.310,18.520,7.006,411.000,113.000,33.340,13.070,baseline
1360.000,329.700,82.400,22.280,1423.000,297.400,75.140,17.920,154.600,63.510,18.660,7.007,411.600,113.200,33.420,13.110,baseline
1361.000,331.200,80.420,22.370,1422.000,297.600,75.270,17.910,151.100,63.300,18.630,7.008,412.000,114.000,33.510,13.190,baseline
1363.000,331.400,80.720,22.440,1425.000,297.800,76.140,17.940,151.200,63.600,18.660,7.015,413.500,114.300,33.810,13.220,baseline
1367.000,330.600,81.440,22.420,1424.000,297.800,75.420,18.000,152.600,63.480,18.610,7.028,415.300,114.300,33.790,13.370,baseline
1366.000,333.800,83.580,22.370,1427.000,297.500,75.230,17.920,152.700,63.340,18.730,7.017,413.200,113.700,33.500,13.140,baseline
1361.000,332.100,80.050,22.220,1423.000,297.700,75.160,17.900,150.800,63.090,18.600,6.982,410.600,112.900,33.430,13.100,baseline
1361.000,330.700,81.850,22.320,1426.000,297.200,75.130,17.940,153.200,63.500,18.560,6.939,411.200,113.300,33.440,13.120,baseline
1363.000,332.700,81.880,22.260,1427.000,298.100,74.470,17.940,150.400,63.500,18.660,7.021,411.000,113.500,33.490,13.140,baseline
1363.000,330.900,83.320,22.380,1426.000,298.200,75.500,17.990,150.600,63.700,18.650,7.008,411.600,113.700,33.600,13.150,baseline
1364.000,332.100,83.180,22.430,1428.000,298.300,75.490,17.960,149.100,63.350,18.580,6.987,412.700,113.900,33.690,13.220,baseline
1366.000,332.400,81.040,22.480,1425.000,298.700,75.390,17.990,154.000,63.500,18.640,7.011,413.800,114.600,33.850,13.260,baseline
1368.000,333.700,81.940,22.560,1428.000,299.700,75.540,18.080,151.500,63.440,18.620,7.039,414.900,114.700,33.940,13.380,baseline
1373.000,333.700,82.020,22.570,1435.000,299.100,75.820,17.990,151.100,63.690,18.750,7.004,416.500,114.700,33.930,13.260,baseline
1369.000,332.300,83.030,22.450,1426.000,299.000,75.950,17.930,153.300,63.090,18.550,6.972,411.000,114.200,33.690,13.190,baseline
1367.000,332.600,81.870,22.410,1425.000,298.300,76.190,17.930,151.300,63.120,18.540,6.980,411.200,113.400,33.370,13.130,baseline
1365.000,330.300,81.940,22.380,1435.000,299.100,75.700,17.910,149.400,63.180,18.510,6.976,411.300,113.200,33.490,13.150,baseline
1367.000,331.900,82.530,22.400,1423.000,298.500,75.560,17.910,151.300,63.160,18.580,6.962,412.200,113.600,33.710,13.150,baseline
1367.000,332.300,83.170,22.520,1429.000,299.000,75.110,18.000,152.300,63.550,18.530,6.996,413.200,114.000,33.640,13.260,baseline
1371.000,331.600,81.660,22.500,1434.000,298.900,75.020,17.970,151.900,62.960,18.590,6.976,414.600,114.200,33.780,13.310,baseline
1373.000,333.400,83.810,22.600,1434.000,299.300,75.380,18.020,154.800,63.450,18.580,6.975,414.900,114.700,33.870,13.280,baseline
1374.000,333.500,82.860,22.670,1424.000,298.600,75.370,17.930,152.800,62.900,18.600,6.992,415.600,114.400,33.950,13.260,baseline
1371.000,333.600,82.200,22.480,1428.000,298.600,75.170,17.910,150.400,63.090,18.550,6.972,412.400,113.900,33.500,13.180,baseline
1369.000,333.200,82.610,22.370,1423.000,297.600,74.930,17.920,150.200,62.600,18.510,6.953,410.300,113.000,33.590,13.110,baseline
1368.000,334.100,80.830,22.500,1425.000,298.600,75.090,17.940,150.000,62.870,18.510,6.952,411.800,113.600,33.600,13.150,baseline
1369.000,333.600,80.560,22.470,1423.000,298.800,75.430,17.890,151.200,63.200,18.470,6.961,410.900,113.600,33.570,13.140,baseline
1366.000,333.000,81.710,22.400,1428.000,297.600,75.990,17.950,151.400,63.330,18.570,6.966,411.700,114.000,33.580,13.150,baseline
1372.000,331.400,81.350,22.580,1428.000,298.500,75.410,17.920,154.100,63.370,18.580,6.963,413.700,114.000,33.780,13.260,baseline
1372.000,334.000,81.440,22.730,1427.000,298.300,75.560,17.970,149.500,63.170,18.570,6.958,412.300,114.000,33.720,13.330,baseline
1373.000,335.800,83.220,22.660,1433.000,298.700,75.400,17.940,153.900,63.460,18.580,6.990,414.900,114.600,33.970,13.330,baseline
1374.000,333.400,83.370,22.670,1427.000,298.900,74.880,17.880,151.900,63.230,18.610,6.986,413.500,113.800,33.590,13.170,baseline
1367.000,331.800,81.420,22.490,1423.000,298.600,74.970,17.850,152.700,63.350,18.450,6.911,409.100,113.000,33.200,13.120,baseline
1366.000,330.200,81.640,22.380,1427.000,296.500,74.520,17.890,153.300,62.760,18.500,6.915,408.500,112.900,33.310,13.040,baseline
1367.000,332.400,80.250,22.440,1422.000,298.000,74.740,17.850,152.600,63.190,18.450,6.950,409.800,112.800,33.250,13.030,baseline
1365.000,330.900,81.960,22.410,1418.000,296.800,75.060,17.880,153.400,63.080,18.560,6.947,410.200,112.900,33.340,13.070,baseline
1366.000,330.700,82.470,22.400,1424.000,296.900,75.050,17.810,151.800,62.890,18.560,6.957,410.900,113.200,33.530,13.110,baseline
1366.000,332.100,81.910,22.500,1424.000,296.400,75.290,17.820,153.400,63.120,18.570,7.006,411.200,113.800,33.660,13.170,baseline
1369.000,334.400,81.330,22.580,1425.000,297.400,74.910,17.850,151.300,63.310,18.610,6.987,414.100,114.000,33.590,13.310,baseline
1370.000,335.500,81.650,22.610,1423.000,297.700,74.150,17.870,151.400,63.600,18.610,6.998,413.400,114.000,33.870,13.320,baseline
1372.000,335.300,82.290,22.510,1429.000,297.600,74.910,17.850,154.000,63.230,18.630,6.944,414.200,113.800,33.660,13.140,baseline
1367.000,330.200,82.540,22.460,1429.000,296.600,75.320,17.850,153.900,62.790,18.490,6.949,408.800,112.700,33.470,13.130,baseline
1363.000,331.700,81.660,22.380,1420.000,297.000,74.370,17.780,148.200,63.210,18.500,6.936,408.800,112.500,33.250,13.050,baseline
1364.000,330.500,82.580,22.420,1424.000,297.400,74.640,17.750,154.500,62.640,18.500,6.947,408.700,112.700,33.410,13.090,baseline
1362.000,331.600,83.360,22.400,1420.000,296.900,74.550,17.800,154.700,63.090,18.460,6.956,410.300,112.700,33.370,13.090,baseline
1363.000,330.600,82.250,22.510,1420.000,296.900,74.660,17.760,150.700,63.640,18.530,6.959,409.500,113.300,33.460,13.200,baseline
1366.000,332.200,82.130,22.480,1417.000,296.300,74.860,17.780,152.000,62.840,18.470,6.951,410.900,113.900,33.620,13.290,baseline
1367.000,331.500,81.860,22.540,1427.000,297.300,75.190,17.810,153.100,62.980,18.540,6.995,413.100,114.200,33.870,13.340,baseline
1369.000,332.900,82.790,22.550,1418.000,297.900,74.280,17.810,152.100,63.490,18.610,6.970,414.300,114.600,34.090,13.410,baseline
1372.000,334.300,81.470,22.600,1417.000,297.200,74.490,17.720,153.200,63.220,18.640,6.996,413.900,114.000,33.760,13.220,baseline
1366.000,331.600,81.840,22.450,1418.000,296.400,75.050,17.800,155.200,62.840,18.500,6.921,410.800,113.200,33.500,13.160,baseline
1365.000,331.600,81.870,22.400,1425.000,297.100,74.860,17.820,151.000,62.960,18.440,6.890,410.700,113.400,33.490,13.190,baseline
1362.000,332.400,81.270,22.460,1421.000,296.300,74.980,17.710,152.800,62.960,18.500,6.940,411.800,113.400,33.650,13.180,baseline
1364.000,332.000,81.610,22.380,1419.000,296.600,74.620,17.730,154.700,62.730,18.390,6.920,411.600,113.900,33.630,13.230,baseline
1364.000,330.800,82.430,22.540,1423.000,296.900,73.720,17.820,152.800,63.250,18.480,6.940,413.300,113.900,33.830,13.320,baseline
1367.000,332.700,83.480,22.590,1423.000,297.400,74.480,17.770,149.600,63.110,18.470,6.911,414.800,114.500,34.070,13.340,baseline
1369.000,331.800,83.360,22.660,1424.000,297.100,74.720,17.810,152.600,62.690,18.520,6.923,415.500,114.600,34.130,13.430,baseline
1373.000,334.000,81.230,22.700,1423.000,296.800,74.720,17.740,152.900,63.260,18.590,6.944,416.900,115.300,34.090,13.460,baseline
1369.000,332.800,82.670,22.500,1415.000,296.600,74.430,17.650,151.200,63.160,18.400,6.904,412.600,114.300,33.750,13.310,baseline
1366.000,332.500,81.990,22.470,1422.000,296.500,74.810,17.740,151.200,62.540,18.390,6.859,413.700,113.700,33.510,13.240,baseline
1365.000,332.100,82.020,22.480,1418.000,296.200,74.640,17.740,153.000,62.370,18.290,6.875,412.000,113.800,33.620,13.310,baseline
1363.000,334.300,81.040,22.440,1419.000,295.700,74.080,17.680,150.700,62.480,18.310,6.873,412.800,114.200,33.870,13.310,baseline
1365.000,332.700,81.860,22.470,1421.000,296.100,74.430,17.660,150.800,62.660,18.390,6.843,415.200,114.300,33.960,13.370,baseline
1366.000,333.700,82.430,22.620,1420.000,296.500,75.050,17.670,153.200,62.690,18.400,6.883,415.700,114.900,34.020,13.450,baseline
1369.000,333.800,82.010,22.690,1422.000,297.000,74.970,17.720,151.600,63.160,18.430,6.904,417.600,115.500,34.370,13.530,baseline
1371.000,334.500,82.570,22.700,1422.000,298.100,74.530,17.760,150.800,62.940,18.500,6.879,419.300,116.100,34.350,13.610,baseline
1375.000,334.700,83.270,22.790,1427.000,297.100,73.810,17.640,154.600,63.000,18.460,6.880,417.400,115.100,33.970,13.440,baseline
1367.000,331.900,82.820,22.640,1421.000,297.200,74.060,17.630,154.400,62.900,18.220,6.836,414.300,114.600,33.640,13.350,baseline
1367.000,331.800,83.060,22.530,1424.000,296.000,74.690,17.660,151.800,62.540,18.260,6.809,414.500,114.000,33.740,13.330,baseline
1366.000,333.600,82.570,22.530,1422.000,296.600,74.530,17.660,151.300,62.940,18.330,6.834,415.000,114.600,33.930,13.400,baseline
1368.000,331.100,80.860,22.620,1418.000,297.300,75.110,17.620,151.000,62.700,18.380,6.840,415.500,114.700,33.920,13.420,baseline
1366.000,333.700,82.440,22.680,1421.000,295.700,75.250,17.650,152.200,62.490,18.350,6.870,416.000,114.800,34.040,13.490,baseline
1370.000,332.200,82.790,22.720,1425.000,295.900,75.290,17.660,151.500,62.790,18.370,6.859,417.800,115.200,34.350,13.600,baseline
1374.000,333.000,81.560,22.750,1423.000,297.600,74.830,17.690,153.600,63.190,18.510,6.911,419.500,116.100,34.500,13.650,baseline
1375.000,333.900,80.760,22.840,1430.000,297.600,75.150,17.770,152.400,63.270,18.450,6.911,421.200,116.400,34.620,13.750,baseline
1377.000,336.500,83.830,22.740,1430.000,297.600,74.670,17.650,152.500,63.290,18.480,6.905,420.600,115.600,34.240,13.470,baseline
1371.000,334.800,83.520,22.710,1425.000,296.900,74.660,17.670,153.500,62.990,18.350,6.833,416.300,114.800,34.080,13.420,baseline
1371.000,334.800,82.490,22.760,1429.000,296.600,74.360,17.660,151.000,62.960,18.250,6.836,415.500,115.000,34.000,13.400,baseline
1371.000,333.600,81.890,22.610,1427.000,296.800,73.950,17.690,151.500,62.680,18.390,6.838,417.300,115.100,34.150,13.460,baseline
1371.000,333.200,83.070,22.650,1425.000,297.900,75.060,17.690,153.800,62.820,18.350,6.880,417.700,115.200,34.160,13.560,baseline
1372.000,334.500,83.070,22.750,1421.000,296.700,75.000,17.750,151.400,62.870,18.360,6.877,418.300,115.800,34.360,13.630,baseline
1377.000,335.000,83.120,22.760,1427.000,297.200,75.100,17.700,151.700,63.200,18.500,6.868,420.900,116.500,34.660,13.690,baseline
1378.000,336.000,82.930,22.790,1424.000,297.200,74.830,17.750,156.400,63.190,18.480,6.889,423.600,116.700,34.840,13.810,baseline
1382.000,336.500,83.530,23.000,1423.000,297.700,74.650,17.700,155.000,63.330,18.470,6.916,424.600,117.700,35.000,13.840,baseline
1380.000,336.900,81.860,22.830,1431.000,296.600,74.980,17.730,153.400,63.260,18.380,6.878,421.300,115.800,34.470,13.570,baseline
1375.000,333.600,81.680,22.840,1427.000,297.400,75.090,17.640,154.400,62.750,18.340,6.845,419.900,115.500,34.250,13.530,baseline
1374.000,334.100,82.170,22.750,1423.000,297.300,75.160,17.690,152.100,63.060,18.360,6.822,419.300,115.700,34.220,13.610,baseline
1376.000,335.900,82.660,22.700,1428.000,296.600,75.010,17.690,150.400,62.890,18.330,6.832,419.500,115.600,34.360,13.610,baseline
1375.000,337.500,84.460,22.720,1425.000,297.300,74.790,17.690,151.500,62.820,18.330,6.833,420.600,116.000,34.470,13.650,baseline
1378.000,336.100,83.510,22.940,1432.000,296.900,74.890,17.750,153.900,62.790,18.460,6.887,422.500,116.800,34.570,13.750,baseline
1382.000,336.400,85.500,23.030,1429.000,297.600,74.550,17.720,153.400,63.360,18.480,6.888,425.500,117.100,34.860,13.880,baseline
1383.000,337.600,83.920,23.060,1427.000,297.500,74.670,17.690,154.500,63.650,18.450,6.910,427.900,118.000,35.050,13.900,baseline
1384.000,336.800,83.240,22.870,1425.000,296.900,75.020,17.660,154.100,63.100,18.430,6.852,422.900,116.400,34.460,13.640,baseline
1377.000,335.600,82.070,22.780,1423.000,297.800,74.620,17.600,153.700,63.360,18.390,6.845,420.900,115.600,34.290,13.550,baseline
1375.000,334.200,83.120,22.760,1426.000,296.700,75.410,17.590,152.900,62.990,18.360,6.819,419.800,116.000,34.360,13.590,baseline
1376.000,334.900,82.880,22.840,1427.000,296.700,74.580,17.630,154.600,63.080,18.340,6.839,421.200,116.200,34.500,13.580,baseline
1378.000,334.900,82.830,22.860,1424.000,296.700,74.320,17.620,152.200,63.330,18.370,6.845,421.800,116.000,34.470,13.660,baseline
1377.000,336.900,82.490,22.880,1427.000,296.800,74.690,17.680,153.800,63.370,18.490,6.898,421.900,116.700,34.750,13.750,baseline
1381.000,336.600,84.160,22.940,1428.000,296.800,75.110,17.750,155.500,63.370,18.510,6.884,425.500,117.500,34.940,13.850,baseline
1383.000,338.300,83.810,23.060,1424.000,297.700,74.570,17.710,155.100,63.620,18.570,6.948,428.000,118.000,35.080,13.980,baseline
1385.000,338.400,82.670,23.110,1429.000,297.800,74.840,17.620,153.800,63.590,18.570,6.924,426.400,117.600,34.870,13.700,baseline
1378.000,334.100,83.000,22.850,1425.000,296.600,74.480,17.540,155.100,63.200,18.370,6.834,422.300,116.000,34.330,13.560,baseline
1376.000,334.600,83.090,22.770,1428.000,296.100,73.810,17.580,154.000,63.310,18.370,6.854,420.800,115.900,34.290,13.580,baseline
1373.000,336.000,82.890,22.830,1424.000,297.600,75.050,17.610,152.900,63.370,18.400,6.882,420.000,116.200,34.490,13.600,baseline
1374.000,335.600,82.960,22.800,1422.000,296.100,74.540,17.640,156.300,63.130,18.500,6.871,421.900,116.100,34.360,13.580,baseline
1377.000,334.400,82.570,22.870,1422.000,296.900,74.630,17.580,154.700,63.240,18.430,6.880,422.500,116.300,34.690,13.680,baseline
1378.000,335.800,83.670,22.910,1428.000,297.400,75.400,17.620,153.200,63.470,18.520,6.927,424.900,117.300,34.840,13.850,baseline
1381.000,336.900,83.390,22.970,1424.000,297.500,75.670,17.620,154.100,63.720,18.550,6.937,426.100,118.200,35.080,13.920,baseline
1383.000,337.300,84.220,23.050,1432.000,296.800,74.690,17.660,153.800,63.570,18.630,6.949,428.900,118.400,35.030,13.800,baseline
1380.000,335.600,82.540,22.840,1423.000,296.200,74.300,17.550,154.500,63.510,18.430,6.891,421.500,116.300,34.390,13.580,baseline
1374.000,335.600,82.430,22.710,1418.000,295.400,74.400,17.600,154.000,62.920,18.460,6.862,421.900,115.900,34.290,13.510,baseline
1372.000,335.200,82.530,22.790,1420.000,296.100,73.920,17.540,156.400,63.140,18.480,6.891,421.500,116.100,34.390,13.620,baseline
1375.000,334.200,84.030,22.760,1421.000,296.100,73.840,17.550,153.800,63.630,18.440,6.879,420.500,116.500,34.270,13.610,baseline
1374.000,332.500,83.020,22.720,1416.000,296.000,74.500,17.560,155.500,63.390,18.480,6.890,423.300,116.600,34.630,13.640,baseline
1375.000,334.000,83.830,22.750,1421.000,296.100,74.240,17.590,155.500,63.260,18.560,6.938,424.100,116.900,34.920,13.840,baseline
1379.000,334.300,82.660,22.900,1424.000,296.100,74.700,17.560,156.600,63.870,18.570,6.922,427.200,117.900,35.070,13.910,baseline
1381.000,336.900,82.990,22.960,1425.000,296.800,73.970,17.530,154.000,63.850,18.640,6.944,426.400,117.800,34.820,13.740,baseline
1375.000,335.000,83.920,22.670,1415.000,295.200,74.150,17.510,155.600,63.610,18.460,6.879,422.500,115.900,34.310,13.510,baseline
1371.000,334.600,81.800,22.640,1419.000,295.500,74.050,17.480,154.200,63.380,18.450,6.892,420.300,115.800,34.220,13.550,baseline
1370.000,333.600,81.350,22.610,1421.000,295.300,74.580,17.510,151.900,63.250,18.390,6.875,421.300,116.000,34.420,13.570,baseline
1371.000,333.400,82.870,22.650,1419.000,295.400,74.240,17.480,157.100,63.700,18.480,6.870,421.800,115.800,34.390,13.640,baseline
1371.000,335.400,82.720,22.710,1419.000,295.800,73.560,17.450,156.900,63.490,18.470,6.920,422.500,116.500,34.460,13.650,baseline
1373.000,336.200,82.970,22.760,1418.000,294.900,73.810,17.530,153.100,63.460,18.580,6.927,424.100,116.900,34.760,13.680,baseline
1376.000,335.100,82.380,22.870,1423.000,297.100,74.950,17.540,155.900,63.480,18.620,6.940,425.500,117.600,35.020,13.800,baseline
1378.000,336.800,82.570,22.840,1420.000,296.900,73.950,17.460,155.400,63.570,18.640,6.932,424.000,116.600,34.530,13.570,baseline
1368.000,332.300,81.330,22.670,1417.000,294.300,73.720,17.430,155.100,63.410,18.380,6.889,420.400,115.500,34.030,13.480,baseline
1368.000,331.600,81.630,22.480,1414.000,295.100,73.240,17.430,153.700,62.880,18.400,6.870,418.700,115.200,34.020,13.420,baseline
1367.000,332.100,81.870,22.500,1416.000,294.800,73.090,17.460,156.200,63.230,18.510,6.890,418.600,115.200,34.100,13.480,baseline
1368.000,331.500,80.370,22.500,1415.000,294.500,73.910,17.450,154.800,63.550,18.510,6.901,419.100,115.300,34.170,13.510,baseline
1368.000,333.200,81.860,22.520,1417.000,295.300,74.600,17.420,153.200,63.380,18.510,6.887,420.300,115.600,34.240,13.510,baseline
1369.000,331.500,81.320,22.750,1421.000,295.400,74.200,17.460,153.600,63.640,18.580,6.917,422.100,116.500,34.540,13.640,baseline
1372.000,332.300,81.540,22.750,1421.000,295.500,74.460,17.460,155.000,64.010,18.610,6.950,423.700,116.700,34.540,13.670,baseline
1374.000,334.000,82.280,22.650,1424.000,295.500,73.900,17.450,153.800,63.820,18.540,6.915,421.400,115.800,34.090,13.410,baseline
1364.000,332.600,81.260,22.370,1413.000,294.600,73.450,17.460,155.800,63.200,18.410,6.878,417.200,114.500,33.940,13.380,baseline
1362.000,330.900,81.690,22.480,1417.000,295.000,73.160,17.470,155.600,63.280,18.480,6.901,415.100,114.900,33.830,13.340,baseline
1362.000,331.000,80.990,22.430,1423.000,295.800,73.280,17.430,151.800,63.030,18.520,6.917,416.700,115.000,33.910,13.360,baseline
1363.000,330.200,82.150,22.330,1419.000,295.000,73.040,17.460,154.900,63.330,18.530,6.909,417.500,114.700,33.840,13.350,baseline
1365.000,331.500,82.130,22.460,1407.000,295.000,73.880,17.480,154.900,63.640,18.590,6.940,417.900,115.400,34.130,13.480,baseline
1367.000,331.400,81.650,22.580,1417.000,296.500,74.650,17.520,152.200,63.720,18.610,6.973,420.900,115.900,34.160,13.510,baseline
1369.000,333.500,82.800,22.690,1419.000,296.000,74.750,17.570,156.400,63.720,18.540,7.001,421.600,116.600,34.530,13.620,baseline
1373.000,332.800,81.130,22.610,1417.000,295.600,74.530,17.460,155.000,63.700,18.620,6.969,419.900,115.400,34.080,13.330,baseline
1365.000,331.400,80.050,22.470,1422.000,294.100,73.870,17.420,152.700,63.610,18.500,6.930,415.900,114.600,33.870,13.220,baseline
1363.000,331.300,81.110,22.420,1416.000,294.600,74.440,17.510,153.900,63.100,18.430,6.931,415.500,114.200,33.700,13.310,baseline
1364.000,332.900,81.040,22.430,1417.000,295.000,74.180,17.510,158.100,63.350,18.570,6.938,415.700,114.700,33.750,13.310,baseline
1364.000,331.600,80.950,22.520,1415.000,294.700,74.390,17.560,152.800,63.290,18.530,6.956,416.900,114.700,33.910,13.290,baseline
1366.000,330.700,82.550,22.560,1420.000,294.700,74.290,17.540,155.100,63.680,18.600,6.963,417.700,115.400,34.190,13.400,baseline
1367.000,332.500,83.000,22.570,1417.000,295.800,73.920,17.590,157.100,63.720,18.660,6.972,420.000,115.400,34.290,13.470,baseline
1370.000,333.700,82.100,22.590,1421.000,295.800,74.210,17.600,155.300,63.680,18.730,6.978,419.700,115.900,34.350,13.560,baseline
1373.000,332.200,83.270,22.560,1418.000,295.400,73.980,17.490,154.800,63.600,18.680,6.960,420.000,114.700,33.770,13.230,baseline
1365.000,330.300,82.650,22.380,1417.000,295.000,74.130,17.500,157.100,63.180,18.570,6.925,414.400,114.200,33.560,13.190,baseline
1363.000,331.400,83.400,22.450,1412.000,294.600,74.160,17.510,155.200,63.380,18.510,6.916,414.900,114.000,33.620,13.240,baseline
1364.000,333.100,80.990,22.460,1419.000,294.900,73.710,17.540,153.000,63.070,18.540,6.948,414.200,114.000,33.540,13.240,baseline
1364.000,331.300,82.130,22.510,1416.000,296.100,74.460,17.500,156.600,63.190,18.570,6.973,414.600,114.300,33.630,13.230,baseline
1363.000,334.800,81.130,22.490,1420.000,295.400,74.660,17.580,156.500,63.480,18.600,6.973,415.900,114.700,33.840,13.330,baseline
1367.000,334.300,81.940,22.540,1416.000,295.400,74.370,17.540,154.400,63.910,18.690,6.977,418.600,115.000,34.090,13.420,baseline
1369.000,332.900,82.980,22.630,1419.000,295.700,75.010,17.550,155.300,63.640,18.800,7.017,418.800,116.000,34.240,13.460,baseline
1371.000,331.600,81.750,22.580,1421.000,296.100,73.250,17.520,156.200,63.690,18.730,7.010,415.400,114.100,33.480,13.180,baseline
1362.000,331.400,81.780,22.350,1415.000,295.400,74.230,17.490,155.500,63.250,18.440,6.966,412.100,113.400,33.380,13.110,baseline
1360.000,330.400,79.620,22.310,1414.000,295.200,73.830,17.500,153.900,63.540,18.560,6.940,412.300,112.900,33.410,13.080,baseline
1361.000,330.300,83.410,22.310,1413.000,295.600,73.940,17.500,155.300,62.910,18.700,6.972,412.300,113.400,33.390,13.110,baseline
1360.000,330.600,81.280,22.280,1417.000,295.800,73.980,17.520,154.100,63.510,18.640,6.980,411.400,113.300,33.410,13.120,baseline
1362.000,331.500,81.630,22.370,1413.000,296.000,74.270,17.510,155.300,63.540,18.570,7.001,414.400,113.800,33.590,13.200,baseline
1364.000,331.400,80.440,22.500,1412.000,295.900,74.330,17.520,157.000,63.620,18.800,7.015,415.700,114.600,33.790,13.330,baseline
1366.000,332.500,80.990,22.580,1423.000,296.300,74.170,17.550,157.700,63.870,18.750,7.028,417.300,115.100,33.920,13.430,baseline
1369.000,332.800,80.660,22.630,1414.000,295.800,74.950,17.510,153.600,63.940,18.730,7.011,414.400,113.600,33.510,13.100,baseline
1360.000,330.600,81.360,22.330,1417.000,295.200,74.790,17.510,156.700,63.220,18.580,6.999,412.000,112.600,33.170,12.960,baseline
1357.000,331.300,80.830,22.250,1407.000,295.600,73.780,17.470,153.100,63.310,18.520,6.955,410.900,112.400,33.220,13.000,baseline
1357.000,331.200,81.620,22.390,1414.000,295.000,74.040,17.560,151.500,63.360,18.580,7.011,411.000,112.400,33.170,12.970,baseline
1357.000,330.100,81.250,22.340,1419.000,295.300,74.050,17.520,156.000,63.410,18.680,6.992,411.200,112.800,33.340,13.080,baseline
1359.000,329.100,83.040,22.410,1417.000,296.000,74.050,17.530,155.600,63.500,18.690,6.997,410.800,112.900,33.350,13.080,baseline
1360.000,330.100,81.740,22.360,1416.000,295.800,73.740,17.620,154.300,63.580,18.740,7.023,413.300,113.800,33.520,13.150,baseline
1365.000,331.800,83.050,22.460,1418.000,295.900,74.180,17.650,155.500,63.720,18.800,7.055,417.200,114.200,33.700,13.310,baseline
1365.000,329.800,80.440,22.550,1419.000,296.300,74.480,17.630,157.600,63.510,18.900,7.071,415.400,114.700,33.730,13.250,baseline
1364.000,330.600,80.400,22.340,1411.000,295.100,74.260,17.540,156.200,63.730,18.700,7.034,411.400,112.700,33.120,12.960,baseline
1360.000,328.700,80.760,22.230,1419.000,295.700,74.250,17.510,155.800,62.920,18.640,6.992,409.300,112.300,33.110,12.940,baseline
1358.000,329.400,80.580,22.360,1414.000,295.000,74.450,17.560,156.000,63.030,18.630,7.006,409.900,112.600,33.210,12.990,baseline
1358.000,328.700,79.650,22.290,1417.000,295.800,74.220,17.550,153.400,63.660,18.690,7.011,409.900,112.500,33.240,13.000,baseline
1358.000,330.000,79.430,22.290,1418.000,295.300,74.930,17.600,154.500,63.410,18.720,7.004,412.300,112.600,33.060,13.000,baseline
1361.000,330.400,83.500,22.400,1419.000,295.700,74.040,17.650,156.300,63.620,18.850,7.049,412.000,113.500,33.530,13.160,baseline
1363.000,331.100,80.410,22.500,1424.000,296.500,73.740,17.670,154.500,63.830,18.810,7.063,414.500,114.200,33.590,13.250,baseline
1367.000,331.000,82.890,22.530,1419.000,295.900,74.170,17.650,155.200,63.890,18.900,7.098,416.300,114.800,33.930,13.370,baseline
1370.000,332.800,83.950,22.560,1418.000,295.400,74.530,17.620,158.200,63.900,18.850,7.079,416.300,114.200,33.490,13.120,baseline
1363.000,329.500,81.430,22.270,1411.000,295.400,74.260,17.670,153.500,63.420,18.670,7.020,409.900,112.200,33.200,13.000,baseline
1360.000,330.800,80.530,22.310,1418.000,295.400,74.320,17.570,154.900,63.360,18.630,6.997,410.200,112.300,33.170,12.940,baseline
1360.000,329.900,82.120,22.310,1418.000,295.600,74.390,17.590,156.500,63.420,18.640,7.020,410.800,112.700,33.200,13.000,baseline
1359.000,331.200,79.340,22.270,1416.000,295.600,74.120,17.530,155.500,63.280,18.630,7.013,410.800,112.800,33.170,13.010,baseline
1360.000,329.700,81.250,22.420,1416.000,295.500,74.760,17.580,154.600,63.550,18.650,7.033,412.700,113.100,33.420,13.120,baseline
1362.000,329.700,82.830,22.430,1424.000,296.000,74.970,17.620,155.400,63.480,18.740,7.029,414.900,113.800,33.670,13.220,baseline
1364.000,332.200,81.320,22.510,1422.000,296.800,73.880,17.670,157.300,63.630,18.800,7.062,416.500,114.500,33.940,13.320,baseline
1368.000,332.900,82.190,22.560,1419.000,296.400,74.690,17.600,155.700,63.840,18.770,7.053,416.900,114.000,33.470,13.050,baseline
1361.000,329.600,82.090,22.200,1415.000,295.000,74.490,17.550,156.300,63.370,18.550,6.993,410.400,112.500,33.110,12.920,baseline
1359.000,328.600,81.820,22.160,1421.000,295.300,74.210,17.610,157.500,63.440,18.650,6.969,409.600,112.600,32.940,12.960,baseline
1357.000,330.000,80.730,22.260,1420.000,295.800,73.760,17.500,155.900,63.320,18.630,6.979,410.100,112.700,33.210,12.950,baseline
1359.000,329.400,79.490,22.300,1417.000,295.500,73.790,17.610,153.900,63.410,18.610,6.978,411.400,112.300,33.250,12.980,baseline
1358.000,329.400,82.520,22.240,1416.000,296.000,74.120,17.590,158.400,63.640,18.660,7.016,412.500,112.700,33.320,13.060,baseline
1360.000,330.600,80.090,22.390,1414.000,296.400,74.220,17.630,156.400,63.970,18.630,7.024,413.700,113.800,33.530,13.200,baseline
1364.000,331.800,81.820,22.470,1416.000,296.600,75.280,17.640,155.400,63.600,18.770,7.048,416.500,114.600,33.690,13.300,baseline
1368.000,333.600,81.650,22.540,1425.000,295.600,74.210,17.580,159.400,63.730,18.770,7.046,420.300,114.600,33.760,13.210,baseline
1364.000,330.200,80.010,22.290,1416.000,296.400,73.640,17.560,156.700,63.710,18.680,6.998,412.100,112.600,33.140,12.900,baseline
1354.000,329.200,81.000,22.270,1411.000,295.900,74.320,17.500,154.200,63.260,18.500,6.987,409.800,112.200,32.890,12.910,baseline
1353.000,327.100,80.650,22.070,1414.000,295.500,74.030,17.540,153.800,63.290,18.590,6.984,408.800,112.200,32.980,12.910,baseline
1352.000,331.300,81.260,22.140,1420.000,294.900,73.570,17.550,153.300,63.100,18.590,6.981,408.800,112.100,33.000,12.940,baseline
1353.000,328.200,80.740,22.170,1419.000,295.100,74.050,17.540,155.500,63.440,18.630,6.996,408.800,112.300,33.240,12.970,baseline
1356.000,329.000,81.650,22.160,1420.000,295.800,74.200,17.610,155.300,63.450,18.650,7.027,412.600,113.100,33.430,13.050,baseline
1359.000,329.200,81.750,22.350,1415.000,295.700,73.750,17.600,155.400,63.410,18.780,7.029,414.500,113.600,33.660,13.190,baseline
1360.000,330.500,81.300,22.430,1423.000,296.100,74.410,17.550,157.000,63.900,18.740,7.041,416.300,114.100,33.750,13.250,baseline
1363.000,329.000,80.270,22.180,1419.000,295.700,74.260,17.490,154.900,63.450,18.630,7.014,411.500,112.500,33.130,12.840,baseline
1353.000,327.500,80.390,22.140,1414.000,294.500,74.000,17.570,155.200,63.320,18.600,6.947,408.900,111.800,32.870,12.830,baseline
1351.000,327.800,80.930,22.000,1409.000,295.900,73.850,17.580,155.200,63.150,18.500,6.984,408.100,111.800,32.860,12.870,baseline
1353.000,328.500,80.220,22.120,1417.000,295.300,74.190,17.510,156.300,63.220,18.660,6.995,409.700,112.000,32.870,12.820,baseline
1352.000,328.200,79.850,22.040,1413.000,294.100,74.110,17.590,154.700,63.250,18.680,6.967,410.100,112.000,32.930,12.900,baseline
1353.000,329.300,78.660,22.130,1415.000,294.600,73.900,17.590,156.800,63.520,18.680,7.009,410.900,112.600,33.080,13.010,baseline
1355.000,329.800,80.010,22.320,1416.000,294.900,73.630,17.640,153.800,63.510,18.690,7.038,412.800,113.400,33.580,13.110,baseline
1358.000,329.200,81.810,22.310,1419.000,295.400,74.100,17.580,158.700,63.610,18.830,7.054,416.300,113.600,33.730,13.210,baseline
1361.000,331.300,81.580,22.300,1418.000,296.200,74.520,17.560,157.900,63.630,18.730,7.042,413.700,113.200,33.160,12.930,baseline
1354.000,329.700,81.600,22.080,1421.000,295.600,73.730,17.570,155.100,63.720,18.600,6.971,410.000,111.900,32.790,12.850,baseline
1352.000,328.600,81.070,22.100,1416.000,295.100,74.190,17.480,155.100,62.940,18.620,6.976,409.900,112.200,32.910,12.890,baseline
1350.000,327.800,82.240,22.110,1414.000,295.200,74.640,17.530,157.100,63.490,18.620,7.005,408.400,112.200,32.880,12.830,baseline
1352.000,326.700,81.210,22.180,1414.000,294.100,74.180,17.600,155.300,63.280,18.560,6.995,410.400,112.100,32.960,12.890,baseline
1352.000,326.200,79.950,22.130,1416.000,295.500,75.160,17.600,155.200,63.430,18.650,7.023,410.800,112.600,33.020,12.930,baseline
1354.000,327.900,81.550,22.270,1417.000,296.200,74.500,17.560,155.100,63.640,18.670,7.024,411.700,113.400,33.400,13.070,baseline
1358.000,330.000,80.510,22.310,1417.000,294.700,74.650,17.660,154.000,63.540,18.670,7.062,414.300,113.900,33.540,13.140,baseline
1361.000,330.400,82.190,22.270,1421.000,295.900,74.710,17.600,156.000,63.910,18.770,7.034,413.100,113.000,33.170,12.910,baseline
1352.000,328.000,81.470,22.050,1415.000,294.600,74.030,17.540,158.600,63.470,18.630,6.950,408.700,111.900,32.730,12.820,baseline
1352.000,329.300,80.000,22.040,1413.000,295.300,74.090,17.600,153.700,63.280,18.610,6.983,408.200,112.000,32.810,12.850,baseline
1352.000,329.800,81.550,21.960,1419.000,294.800,74.260,17.620,156.600,63.140,18.700,7.012,409.300,112.100,33.010,12.860,baseline
1352.000,328.300,80.130,22.030,1416.000,294.600,74.250,17.590,155.400,63.460,18.600,6.984,409.700,111.900,32.980,12.900,baseline
