A-DC1,A-DC2,A-DC3,A-DC4,A-DC5,A-DC6,A-DC7,A-DC8,B-DC1,B-DC2,B-DC3,B-DC4,B-DC5,B-DC6,B-DC7,B-DC8,condition
1233.000,271.100,53.610,16.590,993.200,187.500,37.560,9.060,154.600,36.370,8.807,2.667,342.600,88.450,22.810,6.888,baseline
1247.000,275.900,54.920,16.870,999.900,189.800,37.980,9.062,155.600,36.340,8.771,2.696,343.800,88.960,23.060,6.934,baseline
1255.000,276.600,54.440,16.800,1000.000,188.000,37.130,8.986,156.600,36.600,8.815,2.694,341.100,87.740,22.650,6.752,baseline
1223.000,270.300,53.470,16.110,983.100,186.500,36.610,8.883,154.700,36.120,8.672,2.635,335.100,85.950,22.150,6.628,baseline
1216.000,268.100,52.990,16.110,988.000,185.700,37.060,8.945,156.200,35.740,8.606,2.621,333.300,85.310,22.020,6.587,baseline
1219.000,268.200,54.850,16.190,992.500,186.800,35.820,8.932,156.900,35.770,8.608,2.636,333.300,85.570,22.020,6.598,baseline
1220.000,269.600,54.360,16.140,991.800,187.600,37.190,8.913,152.900,35.580,8.634,2.605,332.400,85.380,22.100,6.589,baseline
1223.000,269.800,54.580,16.380,993.900,188.300,36.750,8.968,156.100,35.230,8.605,2.621,332.900,85.350,22.150,6.620,baseline
1229.000,271.700,53.770,16.570,994.900,188.600,37.340,8.986,153.800,35.630,8.631,2.628,332.800,85.570,22.270,6.686,baseline
1239.000,274.000,54.240,16.680,992.500,188.600,36.570,8.928,150.700,35.600,8.611,2.635,334.900,86.110,22.180,6.622,baseline
1224.000,269.400,52.940,16.110,980.000,185.400,36.330,8.818,152.300,35.460,8.609,2.603,327.600,83.740,21.520,6.385,baseline
1208.000,267.600,52.710,15.960,975.800,186.000,37.220,8.813,148.000,35.010,8.537,2.596,324.500,83.730,21.400,6.410,baseline
1209.000,267.500,52.820,16.080,985.700,186.400,37.270,8.858,151.300,34.940,8.480,2.587,326.700,83.230,21.480,6.422,baseline
1214.000,268.400,53.590,16.140,980.500,185.700,37.110,8.808,153.600,35.240,8.530,2.588,325.700,83.400,21.510,6.397,baseline
1214.000,270.800,52.420,16.170,985.600,186.400,36.340,8.869,149.800,35.360,8.547,2.590,327.300,83.630,21.640,6.433,baseline
1222.000,271.500,53.660,16.430,990.700,187.400,36.760,8.906,152.700,35.110,8.501,2.584,328.600,83.990,21.860,6.486,baseline
1233.000,273.900,54.050,16.570,996.500,187.700,36.850,8.926,150.700,35.420,8.566,2.622,330.000,84.530,21.990,6.517,baseline
1238.000,274.300,54.400,16.320,983.300,186.300,36.240,8.812,150.100,35.250,8.529,2.584,325.200,82.870,21.200,6.305,baseline
1209.000,268.000,53.950,16.030,984.100,184.900,36.160,8.834,149.600,35.010,8.438,2.578,320.400,82.090,21.060,6.235,baseline
1212.000,268.000,53.830,16.110,977.500,186.300,36.040,8.828,148.400,35.260,8.468,2.560,321.000,82.170,21.120,6.311,baseline
1218.000,270.700,54.720,16.240,984.400,186.600,36.550,8.829,152.900,34.980,8.460,2.568,321.100,82.340,21.130,6.301,baseline
1219.000,270.800,52.420,16.340,984.600,187.300,36.680,8.879,150.000,35.090,8.465,2.570,322.100,82.280,21.200,6.325,baseline
1225.000,274.000,55.930,16.430,986.600,187.700,36.790,8.907,151.100,35.210,8.503,2.582,323.800,82.800,21.290,6.381,baseline
1236.000,275.200,54.810,16.680,986.300,188.900,37.730,8.982,148.400,35.400,8.548,2.581,325.200,83.090,21.410,6.381,baseline
1246.000,278.600,56.630,16.760,991.300,188.200,36.980,8.822,152.500,35.260,8.547,2.588,325.600,83.060,21.260,6.286,baseline
1223.000,271.800,52.580,16.200,982.500,186.000,36.460,8.766,150.800,35.040,8.461,2.576,319.500,81.160,21.000,6.152,baseline
1220.000,271.400,53.920,16.210,986.400,186.100,37.160,8.842,148.400,35.290,8.470,2.562,320.800,81.540,21.080,6.170,baseline
1225.000,273.900,55.260,16.300,986.800,187.300,36.260,8.876,152.800,35.360,8.563,2.578,321.600,81.840,21.060,6.239,baseline
1229.000,273.100,55.410,16.380,988.400,187.900,37.240,8.906,149.200,35.450,8.524,2.578,322.500,82.230,21.110,6.234,baseline
1232.000,274.900,56.870,16.570,992.100,188.900,37.180,8.895,152.900,35.570,8.580,2.595,323.800,82.630,21.200,6.301,baseline
1244.000,277.600,56.980,16.730,993.300,188.500,37.050,8.938,151.700,35.420,8.564,2.607,326.100,82.890,21.450,6.380,baseline
1255.000,280.400,58.670,17.040,995.600,190.200,36.690,8.978,152.800,35.750,8.646,2.611,328.100,83.660,21.400,6.333,baseline
1249.000,278.400,56.270,16.510,985.100,187.600,36.570,8.785,152.100,35.540,8.626,2.607,322.900,81.880,20.950,6.183,baseline
1229.000,273.800,53.930,16.400,980.200,188.000,36.860,8.776,154.700,35.420,8.550,2.581,321.600,81.700,20.860,6.186,baseline
1230.000,273.800,54.580,16.350,983.200,188.000,36.880,8.824,151.600,35.560,8.563,2.591,323.000,82.190,21.090,6.232,baseline
1234.000,273.600,54.450,16.430,986.900,187.100,36.740,8.756,152.800,35.970,8.646,2.598,324.300,82.250,21.240,6.221,baseline
1237.000,275.900,54.600,16.470,988.100,187.300,36.890,8.829,153.300,35.830,8.642,2.607,324.900,83.230,21.240,6.223,baseline
1243.000,277.400,56.030,16.730,989.700,188.100,37.100,8.850,153.900,36.040,8.679,2.606,328.100,83.400,21.310,6.311,baseline
1254.000,281.300,57.300,16.970,990.900,189.300,36.830,8.936,152.900,36.080,8.733,2.639,329.200,84.000,21.620,6.361,baseline
1264.000,283.900,58.250,16.970,991.900,188.000,36.960,8.842,156.000,36.410,8.840,2.640,329.400,83.650,21.350,6.257,baseline
1239.000,277.200,55.480,16.400,979.900,186.300,36.430,8.794,155.700,36.120,8.729,2.615,325.900,82.500,21.070,6.162,baseline
1234.000,274.600,56.470,16.520,984.300,187.500,36.400,8.769,155.500,36.470,8.747,2.599,325.300,82.760,21.020,6.192,baseline
1234.000,276.100,56.100,16.570,981.700,187.800,36.570,8.805,154.000,36.310,8.754,2.621,325.900,83.110,21.240,6.195,baseline
1241.000,276.400,57.100,16.650,990.500,187.300,36.680,8.795,155.900,36.320,8.733,2.624,326.600,83.450,21.140,6.217,baseline
1244.000,279.900,55.230,16.790,984.600,187.900,37.440,8.816,158.000,36.620,8.802,2.649,328.300,84.250,21.480,6.308,baseline
1254.000,280.300,57.220,17.020,985.900,188.900,37.460,8.884,162.000,37.010,8.849,2.641,331.500,84.540,21.740,6.381,baseline
1264.000,283.300,57.480,17.200,993.700,188.700,37.460,8.907,159.800,37.090,8.915,2.693,333.500,85.700,21.950,6.437,baseline
1274.000,287.000,56.180,17.280,987.900,188.600,35.880,8.834,159.700,37.340,8.978,2.705,334.600,85.370,21.730,6.285,baseline
1250.000,277.800,54.910,16.680,986.400,186.400,36.300,8.772,159.000,36.890,8.884,2.663,329.200,84.010,21.430,6.236,baseline
1244.000,278.600,56.610,16.740,982.800,187.200,36.250,8.763,159.500,37.020,8.808,2.691,329.500,84.160,21.490,6.224,baseline
1243.000,278.600,55.570,16.770,980.800,187.400,36.840,8.780,162.400,37.060,8.926,2.689,331.900,84.650,21.610,6.282,baseline
1250.000,279.100,56.810,16.770,982.700,187.700,37.040,8.826,160.800,37.420,9.011,2.704,332.100,84.990,21.810,6.289,baseline
1253.000,280.900,56.190,16.910,984.400,188.000,37.320,8.843,161.500,37.400,8.987,2.714,335.800,85.890,21.860,6.408,baseline
1261.000,283.200,57.420,17.230,986.700,188.300,36.380,8.938,163.900,37.380,9.082,2.735,337.200,86.610,22.170,6.454,baseline
1273.000,286.700,58.070,17.300,992.100,189.300,37.160,8.981,162.300,37.630,9.087,2.752,340.000,87.340,22.260,6.566,baseline
1282.000,287.500,59.290,17.610,992.700,190.400,37.770,8.978,164.000,38.310,9.133,2.773,341.300,88.030,22.580,6.634,baseline
1290.000,289.300,59.480,17.380,992.800,188.700,36.390,8.824,162.800,38.090,9.189,2.790,341.000,87.020,22.310,6.456,baseline
1260.000,280.200,56.420,16.910,983.400,187.700,37.130,8.787,160.700,37.790,9.083,2.751,338.600,86.500,22.120,6.416,baseline
1257.000,280.800,56.060,16.940,985.200,187.700,36.740,8.837,161.500,38.000,9.137,2.760,338.200,86.870,22.230,6.450,baseline
1258.000,281.600,57.720,17.010,983.200,187.500,37.150,8.825,157.800,38.410,9.214,2.788,340.500,87.110,22.310,6.481,baseline
1262.000,283.500,58.260,16.980,992.700,188.000,36.840,8.824,162.500,38.330,9.212,2.783,340.600,87.490,22.490,6.536,baseline
1266.000,285.300,58.760,17.210,988.600,189.100,36.730,8.930,165.200,38.470,9.237,2.795,343.200,88.040,22.710,6.573,baseline
1276.000,285.100,58.970,17.450,990.300,189.500,37.000,8.947,164.200,38.820,9.329,2.832,344.900,88.850,22.760,6.703,baseline
1286.000,289.700,59.890,17.600,996.700,190.100,37.080,8.970,166.800,38.770,9.406,2.835,347.900,89.620,23.160,6.771,baseline
1296.000,291.200,59.030,17.760,998.200,191.400,36.970,9.021,165.400,39.230,9.405,2.863,349.100,90.090,23.250,6.879,baseline
1307.000,295.500,61.560,18.120,1007.000,191.400,37.390,9.044,164.000,39.030,9.406,2.860,351.700,91.360,23.560,6.918,baseline
1318.000,297.400,63.560,18.210,1010.000,192.200,37.740,9.029,165.800,39.210,9.490,2.899,352.800,90.920,23.350,6.837,baseline
1296.000,292.100,58.090,17.530,994.500,190.100,37.140,8.857,166.800,39.110,9.444,2.867,348.300,89.780,23.070,6.744,baseline
1281.000,288.400,59.040,17.420,999.400,188.800,37.020,8.824,165.800,39.140,9.427,2.853,347.300,89.670,23.070,6.739,baseline
1282.000,289.300,57.910,17.410,1003.000,189.100,37.100,8.951,165.300,39.070,9.516,2.884,349.500,89.960,23.230,6.818,baseline
1285.000,290.900,57.630,17.470,996.200,189.100,37.650,8.895,166.300,39.250,9.493,2.876,350.000,90.600,23.390,6.850,baseline
1287.000,290.300,59.820,17.460,1000.000,189.600,37.440,8.909,167.300,39.370,9.483,2.874,350.800,91.030,23.380,6.909,baseline
1295.000,294.300,60.580,17.640,1002.000,191.700,37.070,9.017,168.300,39.260,9.504,2.899,351.500,91.160,23.640,6.912,baseline
1308.000,296.300,60.810,17.840,1004.000,191.200,37.530,9.009,168.300,39.040,9.544,2.900,354.300,91.700,23.760,7.025,baseline
1317.000,297.300,62.590,18.130,1008.000,193.000,38.020,9.030,169.900,39.670,9.620,2.947,357.400,93.140,24.130,7.131,baseline
1324.000,298.700,61.730,18.310,1008.000,193.700,37.450,9.101,168.900,40.090,9.690,2.975,358.900,93.630,24.250,7.163,baseline
1334.000,302.900,63.110,18.490,1012.000,193.200,37.960,9.013,168.000,40.190,9.711,2.997,360.600,93.620,24.400,7.211,baseline
1325.000,300.000,62.740,17.880,997.000,191.300,37.100,8.884,167.500,39.940,9.657,2.943,356.400,92.340,23.860,7.048,baseline
1299.000,292.700,59.520,17.670,997.900,190.200,37.230,8.899,171.400,39.680,9.618,2.945,355.200,92.140,23.900,7.085,baseline
1298.000,293.300,59.730,17.610,1001.000,189.600,37.650,8.886,167.300,39.710,9.606,2.927,354.000,92.080,23.880,7.083,baseline
1301.000,294.100,59.260,17.620,1005.000,191.000,37.710,8.921,171.200,39.380,9.615,2.938,356.500,92.220,24.000,7.056,baseline
1303.000,292.600,59.360,17.690,1001.000,190.600,37.410,8.930,169.500,39.740,9.641,2.964,356.000,92.750,24.030,7.144,baseline
1308.000,296.300,60.270,17.980,1004.000,191.800,38.950,8.925,168.900,39.670,9.698,2.963,357.800,93.510,24.200,7.188,baseline
1317.000,298.600,61.380,18.030,1008.000,191.600,37.730,9.020,168.400,39.920,9.698,2.988,359.800,93.690,24.360,7.284,baseline
1326.000,300.500,60.790,18.140,1011.000,192.200,37.730,9.048,169.200,39.940,9.739,2.983,361.900,94.650,24.630,7.360,baseline
1335.000,302.300,62.840,18.410,1017.000,193.300,37.750,9.105,170.000,40.090,9.818,3.006,364.700,95.190,24.690,7.425,baseline
1342.000,305.000,63.000,18.230,1010.000,191.700,37.180,8.955,169.900,40.370,9.805,2.995,361.400,93.990,24.420,7.258,baseline
1311.000,295.400,59.040,17.700,1003.000,190.200,37.290,8.880,166.400,40.190,9.735,2.965,357.600,92.910,24.120,7.216,baseline
1304.000,293.900,60.650,17.610,1001.000,190.400,37.400,8.843,170.800,40.030,9.637,2.983,358.800,93.370,24.270,7.239,baseline
1306.000,293.500,60.650,17.740,1002.000,190.800,36.410,8.888,168.200,39.670,9.737,2.979,359.600,93.970,24.420,7.277,baseline
1309.000,296.000,59.800,17.730,1004.000,190.400,37.230,8.923,168.900,40.160,9.737,2.979,360.000,93.930,24.350,7.321,baseline
1310.000,293.900,60.270,17.800,997.100,190.900,37.650,9.013,166.800,40.020,9.744,3.001,360.200,94.390,24.480,7.371,baseline
1318.000,298.600,61.080,18.010,1003.000,191.500,38.060,9.026,170.000,40.180,9.742,3.010,362.000,94.750,24.620,7.419,baseline
1326.000,301.800,61.160,18.270,1008.000,191.200,38.150,9.039,168.800,40.390,9.767,3.026,363.300,95.610,25.030,7.461,baseline
1337.000,302.200,61.130,18.370,1011.000,193.000,38.250,9.133,168.400,40.460,9.825,3.032,365.400,96.390,25.130,7.570,baseline
1343.000,304.000,62.310,18.220,1003.000,190.800,37.380,9.002,167.600,40.650,9.863,3.029,363.800,94.940,24.640,7.379,baseline
1312.000,295.300,59.310,17.610,997.400,190.000,37.350,8.924,168.700,40.210,9.749,3.005,359.000,93.640,24.450,7.333,baseline
1304.000,293.900,61.170,17.630,994.800,189.200,37.070,8.928,168.900,39.900,9.702,2.989,358.800,93.500,24.510,7.342,baseline
1307.000,296.200,60.180,17.700,998.200,189.400,37.170,8.916,169.500,39.910,9.737,3.014,360.300,93.870,24.570,7.383,baseline
1308.000,293.400,61.040,17.680,998.100,189.800,36.900,8.943,167.700,40.110,9.770,3.015,358.700,94.000,24.570,7.339,baseline
1311.000,294.200,60.800,17.900,1002.000,190.100,37.180,8.983,168.100,39.940,9.786,3.018,359.800,93.970,24.690,7.429,baseline
1316.000,293.100,60.110,18.030,997.600,191.100,38.300,9.026,172.400,40.220,9.841,3.015,361.100,94.920,25.010,7.489,baseline
1325.000,297.800,62.130,18.120,1002.000,191.500,37.490,9.046,169.700,40.340,9.810,3.030,363.000,95.150,25.090,7.532,baseline
1333.000,301.300,61.860,18.430,1004.000,191.000,38.230,9.037,170.600,40.320,9.872,3.067,366.100,95.890,25.060,7.540,baseline
1324.000,297.200,58.110,17.830,1000.000,189.300,37.890,8.979,167.600,40.350,9.768,3.021,358.900,93.890,24.460,7.370,baseline
1299.000,292.000,60.110,17.580,995.300,189.100,37.330,8.905,168.900,39.950,9.754,3.010,356.400,93.130,24.310,7.359,baseline
1298.000,291.500,58.320,17.630,991.500,189.000,37.320,8.964,168.300,39.990,9.754,3.013,357.100,93.690,24.630,7.391,baseline
1302.000,291.400,58.130,17.630,995.000,188.900,37.490,8.967,167.600,39.900,9.712,3.020,358.900,93.640,24.460,7.384,baseline
1302.000,292.200,60.050,17.560,990.900,188.700,37.400,8.975,167.900,39.890,9.791,3.000,357.200,93.320,24.430,7.376,baseline
1305.000,293.500,60.110,17.720,996.000,188.900,37.320,9.038,165.400,39.980,9.725,3.012,359.100,93.670,24.770,7.470,baseline
1315.000,296.200,61.590,17.910,996.400,190.300,38.070,9.088,163.800,39.900,9.759,3.027,360.300,94.360,24.860,7.502,baseline
1323.000,297.000,61.060,18.260,1003.000,191.300,37.920,9.037,167.900,39.970,9.754,3.042,362.400,94.920,24.920,7.536,baseline
1324.000,298.600,60.090,17.880,995.000,189.500,37.400,8.979,165.400,40.020,9.730,3.000,358.000,93.290,24.330,7.310,baseline
1295.000,290.600,58.350,17.450,991.300,187.600,37.240,8.942,168.700,39.810,9.658,2.988,354.900,92.590,24.240,7.313,baseline
1293.000,290.500,59.130,17.490,996.500,188.200,37.270,8.972,169.300,39.660,9.610,2.987,355.000,92.720,24.310,7.317,baseline
1297.000,292.400,59.920,17.620,993.200,188.600,37.440,8.962,168.100,40.000,9.717,2.984,355.700,93.100,24.360,7.322,baseline
1296.000,291.700,59.000,17.620,1001.000,189.200,38.230,8.985,166.900,39.640,9.696,3.002,356.200,92.970,24.430,7.362,baseline
1297.000,290.500,58.770,17.710,994.500,189.300,37.330,9.082,166.700,39.710,9.730,3.013,356.700,93.550,24.440,7.437,baseline
1305.000,294.600,59.760,17.900,998.000,190.000,37.770,9.108,166.300,40.160,9.788,3.040,359.700,94.080,24.690,7.501,baseline
1314.000,295.800,61.670,17.980,999.800,190.300,37.600,9.186,168.700,40.180,9.848,3.032,361.400,94.560,24.760,7.520,baseline
1321.000,297.400,60.430,18.000,1001.000,189.100,37.210,9.021,167.000,40.460,9.798,3.016,359.100,93.960,24.500,7.357,baseline
1292.000,287.700,59.470,17.270,984.400,188.500,36.390,8.945,166.600,39.690,9.711,2.999,351.900,92.310,24.110,7.268,baseline
1284.000,286.600,59.950,17.280,989.100,187.300,36.920,8.932,164.000,39.460,9.681,3.008,352.600,92.170,24.410,7.318,baseline
1279.000,285.600,59.880,17.300,978.100,185.800,35.820,8.947,167.300,40.480,9.875,3.074,358.500,94.230,24.870,7.536,baseline
1275.000,284.500,58.660,17.260,981.000,186.400,37.200,8.989,168.400,40.690,10.000,3.099,360.100,95.210,24.900,7.551,baseline
1279.000,284.800,57.710,17.350,979.400,188.200,37.130,9.043,169.800,40.870,10.030,3.109,360.700,95.120,25.090,7.534,baseline
1288.000,290.200,59.090,17.580,993.900,188.600,37.640,9.047,170.700,40.480,10.050,3.074,361.300,95.230,25.080,7.586,baseline
1295.000,291.000,57.710,17.770,991.700,187.900,37.840,9.167,170.300,40.840,10.040,3.113,363.000,95.790,25.160,7.625,baseline
1302.000,291.700,60.040,17.830,993.700,188.700,37.030,9.075,171.900,41.020,10.080,3.127,363.600,95.450,25.110,7.556,baseline
1286.000,285.200,57.650,17.240,985.800,186.600,36.630,8.937,167.500,40.490,9.941,3.065,356.300,93.400,24.460,7.383,baseline
1269.000,282.400,58.000,17.020,982.800,186.200,37.010,8.948,170.500,40.650,9.913,3.056,355.700,93.280,24.430,7.364,baseline
1266.000,283.300,57.250,17.080,981.200,185.400,35.970,8.957,168.600,40.340,9.884,3.093,358.400,93.890,24.670,7.537,baseline
1264.000,280.300,58.110,17.120,984.700,185.900,37.110,9.080,171.300,42.350,10.560,3.301,377.700,101.400,26.710,8.035,baseline
1274.000,283.600,57.650,17.270,993.100,187.000,37.160,9.146,179.600,44.040,10.810,3.346,379.400,101.700,26.760,8.067,baseline
1281.000,282.700,58.390,17.420,988.800,187.500,37.540,9.174,178.800,43.670,10.760,3.331,378.800,101.200,26.710,8.010,baseline
1288.000,287.100,59.080,17.590,992.000,188.200,37.730,9.199,182.100,43.540,10.700,3.317,379.200,101.000,26.490,8.052,baseline
1296.000,288.200,58.910,17.690,995.400,187.900,38.160,9.097,182.300,43.350,10.610,3.297,378.000,101.200,26.630,7.930,baseline
1285.000,285.600,57.250,17.100,987.100,187.800,37.180,8.960,177.500,42.470,10.450,3.235,367.100,97.230,25.550,7.576,baseline
1271.000,283.100,57.240,16.950,993.000,187.700,37.530,8.961,174.500,41.470,10.180,3.133,358.500,94.460,24.550,7.437,baseline
1269.000,280.800,57.170,16.920,987.400,187.600,37.210,8.928,169.600,41.130,10.090,3.115,358.900,94.180,24.730,7.433,baseline
1266.000,281.500,56.380,16.880,984.700,187.100,37.580,8.942,174.100,41.060,10.080,3.106,358.700,94.390,24.690,7.370,baseline
1267.000,282.000,57.140,16.980,987.100,187.700,36.950,8.950,171.400,41.120,10.030,3.096,357.600,93.870,24.680,7.367,baseline
1268.000,283.200,58.690,17.080,987.400,187.400,37.080,8.972,170.700,40.730,10.040,3.090,360.000,94.560,24.480,7.415,baseline
1273.000,284.700,58.970,17.250,987.600,187.500,36.910,9.022,171.300,40.910,9.960,3.072,361.100,94.480,24.790,7.416,baseline
1279.000,285.200,58.740,17.310,990.000,188.800,36.240,9.046,171.700,40.740,9.957,3.080,362.200,94.680,24.870,7.470,baseline
1277.000,283.900,57.620,16.890,985.500,186.700,36.200,8.890,170.900,40.510,9.905,3.055,354.200,92.530,23.990,7.183,baseline
1249.000,277.800,56.720,16.650,974.900,185.800,36.500,8.869,167.300,39.970,9.742,3.014,349.800,90.770,23.640,7.086,baseline
1245.000,276.600,55.800,16.670,977.600,185.500,37.070,8.865,169.000,39.720,9.722,2.986,348.000,90.690,23.700,7.085,baseline
1245.000,278.500,55.740,16.670,976.600,185.500,36.850,8.834,169.200,39.820,9.697,3.000,345.500,90.350,23.600,7.079,baseline
1243.000,276.500,55.490,16.660,975.900,186.200,36.900,8.882,165.500,39.440,9.693,2.957,345.400,89.750,23.460,7.015,baseline
1244.000,277.500,56.430,16.710,978.100,186.200,36.900,8.941,166.100,39.580,9.649,2.984,345.100,90.180,23.510,7.018,baseline
1250.000,278.700,55.140,16.830,980.100,186.500,36.930,8.989,165.100,39.500,9.585,2.947,345.800,89.810,23.500,7.078,baseline
1257.000,282.600,57.860,16.990,982.700,187.200,37.100,8.982,165.300,39.430,9.585,2.970,344.600,90.210,23.730,7.088,baseline
1261.000,281.900,57.460,16.870,980.600,186.800,37.020,8.929,164.300,39.360,9.610,2.959,342.200,88.800,23.100,6.905,baseline
1234.000,274.400,55.260,16.400,971.700,185.300,36.140,8.820,162.100,38.890,9.460,2.905,336.700,87.040,22.780,6.813,baseline
1227.000,274.300,54.490,16.380,973.400,184.600,37.280,8.830,163.700,38.540,9.443,2.908,335.700,86.930,22.810,6.809,baseline
1228.000,275.800,55.440,16.440,970.400,186.400,36.440,8.877,160.100,38.700,9.444,2.906,334.900,86.950,22.650,6.820,baseline
1228.000,273.400,55.260,16.480,969.500,185.100,36.420,8.860,161.900,38.690,9.404,2.885,334.100,86.340,22.560,6.803,baseline
1228.000,274.000,54.320,16.470,969.400,186.200,37.030,8.892,159.600,38.500,9.372,2.887,334.700,87.020,22.660,6.809,baseline
1233.000,276.200,56.450,16.620,973.000,185.800,37.230,8.953,163.900,38.300,9.419,2.907,335.300,87.180,22.780,6.883,baseline
1241.000,275.200,57.200,16.800,983.300,186.800,37.450,8.965,161.500,38.540,9.439,2.931,336.000,87.520,22.960,6.906,baseline
1244.000,277.400,56.410,16.690,976.500,186.200,36.830,8.843,163.000,38.400,9.406,2.892,332.700,86.360,22.470,6.696,baseline
1216.000,270.600,53.700,16.210,969.500,185.400,36.290,8.822,160.300,38.050,9.251,2.858,327.400,84.520,22.180,6.607,baseline
1211.000,271.100,53.570,16.130,970.200,185.400,36.610,8.823,161.100,38.110,9.282,2.864,327.500,84.590,22.080,6.610,baseline
1211.000,270.600,54.290,16.170,970.000,185.200,36.300,8.838,160.500,37.920,9.325,2.864,326.600,84.520,22.110,6.577,baseline
1209.000,270.000,54.230,16.190,966.400,184.800,35.920,8.778,160.300,37.990,9.294,2.854,326.000,84.410,22.000,6.596,baseline
1210.000,271.700,55.460,16.190,970.900,185.900,35.790,8.817,159.800,37.740,9.317,2.852,327.000,84.770,22.160,6.607,baseline
1216.000,271.900,56.690,16.300,972.700,187.100,36.430,8.918,159.500,37.590,9.246,2.855,328.200,85.120,22.160,6.678,baseline
1224.000,274.700,56.300,16.500,974.600,187.100,36.510,8.977,162.300,37.980,9.269,2.873,328.900,85.400,22.330,6.725,baseline
1224.000,271.900,54.580,16.220,969.800,185.300,36.520,8.778,162.000,38.060,9.274,2.848,325.300,84.040,21.800,6.498,baseline
1196.000,267.300,53.290,15.890,965.000,184.500,36.750,8.828,160.600,37.810,9.231,2.828,321.500,82.980,21.620,6.424,baseline
1190.000,265.900,52.880,15.740,958.500,184.500,35.990,8.795,159.400,37.570,9.191,2.835,322.400,83.560,21.940,6.522,baseline
1191.000,264.400,52.230,15.880,967.000,183.700,36.820,8.893,163.800,38.570,9.465,2.951,330.400,86.080,22.410,6.763,baseline
1188.000,261.500,52.090,15.900,958.100,180.900,36.090,8.917,165.600,40.050,9.884,3.066,338.100,89.090,23.610,7.084,baseline
1174.000,262.100,52.600,16.110,945.500,179.600,37.230,8.992,169.500,41.390,10.360,3.191,344.400,92.180,24.730,7.381,baseline
1166.000,259.900,53.720,16.280,942.100,178.500,36.200,9.019,171.600,42.100,10.550,3.279,345.400,93.460,25.240,7.544,baseline
1166.000,260.800,53.010,16.310,937.200,178.300,35.970,9.033,173.400,41.990,10.600,3.269,347.900,93.890,25.190,7.577,baseline
1169.000,260.900,54.040,15.990,947.900,178.700,35.610,8.976,171.100,41.870,10.520,3.210,339.600,90.800,23.980,7.125,baseline
1165.000,258.500,52.780,15.680,974.400,186.200,36.730,8.903,168.300,41.090,10.050,3.068,332.600,86.270,22.300,6.560,baseline
1184.000,265.100,53.770,15.460,967.300,186.300,36.250,8.779,164.300,38.320,9.259,2.798,315.900,80.060,20.730,6.065,baseline
1176.000,275.400,61.010,16.380,977.500,209.400,41.160,9.433,154.300,36.430,8.864,2.683,307.200,78.910,20.330,6.034,baseline
1282.000,304.300,64.060,17.170,1028.000,209.900,41.200,9.459,154.900,36.420,8.918,2.706,308.700,79.230,20.660,6.100,baseline
1265.000,300.100,60.860,17.170,1017.000,206.600,40.210,9.437,156.600,36.650,8.955,2.742,312.700,80.090,20.860,6.163,baseline
1252.000,298.700,60.790,17.370,1005.000,205.200,40.170,9.469,156.400,36.850,8.946,2.735,313.600,80.420,20.940,6.189,baseline
1241.000,295.900,60.950,17.290,999.000,204.000,40.310,9.527,158.800,37.220,8.987,2.752,315.500,80.860,21.040,6.211,baseline
1251.000,302.300,61.660,17.770,1037.000,213.600,41.860,9.782,157.100,36.760,8.941,2.726,312.000,79.890,20.730,6.158,baseline
1338.000,314.300,65.710,17.930,1067.000,216.600,41.600,9.792,153.700,36.360,8.857,2.707,311.600,79.440,20.770,6.119,baseline
1267.000,299.900,61.490,17.310,1025.000,208.800,40.850,9.694,160.300,37.510,9.084,2.774,315.000,80.860,20.870,6.111,baseline
1259.000,304.700,63.340,17.460,1076.000,218.400,42.150,9.912,159.900,37.420,8.958,2.731,308.700,78.050,20.110,5.891,baseline
1369.000,317.100,66.550,17.910,1134.000,224.900,43.430,10.080,155.400,35.630,8.677,2.628,302.700,76.400,19.770,5.840,baseline
1402.000,322.100,66.300,17.760,1103.000,222.000,42.810,10.030,153.100,35.740,8.729,2.657,302.600,76.970,19.880,5.819,baseline
1377.000,321.800,65.600,18.060,1121.000,224.200,43.680,10.080,152.900,35.370,8.592,2.618,301.200,76.320,19.890,5.797,baseline
1408.000,325.300,66.970,18.200,1128.000,225.900,44.180,10.110,152.700,35.390,8.609,2.623,302.700,76.700,20.010,5.891,baseline
1412.000,327.400,66.930,18.350,1122.000,224.600,43.940,10.070,151.300,35.490,8.684,2.657,305.600,78.240,20.470,6.070,baseline
1368.000,321.300,64.160,18.200,1078.000,217.700,42.640,9.890,156.900,36.520,8.979,2.731,315.500,80.610,20.960,6.224,baseline
1340.000,316.300,64.360,18.150,1071.000,215.000,41.980,9.904,160.700,37.060,9.056,2.766,319.300,81.500,21.190,6.298,baseline
1336.000,313.000,63.880,18.250,1063.000,213.400,41.610,9.971,159.600,37.570,9.042,2.765,321.800,82.130,21.250,6.320,baseline
1338.000,315.500,63.780,18.360,1063.000,213.200,41.870,9.873,158.300,37.420,9.064,2.773,320.900,82.200,21.240,6.227,baseline
1314.000,308.600,62.310,17.520,1050.000,210.800,40.930,9.691,157.700,37.110,8.946,2.740,312.500,79.670,20.430,6.028,baseline
1288.000,302.100,62.430,17.340,1046.000,209.200,40.370,9.587,156.400,36.640,8.909,2.711,308.800,78.740,20.260,5.950,baseline
1277.000,299.000,62.090,17.130,1041.000,210.000,40.460,9.690,154.800,36.410,8.854,2.692,308.700,78.430,20.250,5.990,baseline
1276.000,299.300,60.610,17.180,1044.000,208.500,40.230,9.641,155.600,36.570,8.833,2.684,307.000,78.080,20.220,5.921,baseline
1275.000,299.400,60.160,17.110,1038.000,209.300,40.540,9.667,156.100,36.300,8.815,2.687,307.300,78.120,20.180,5.934,baseline
1278.000,300.100,61.940,17.350,1048.000,209.600,41.090,9.746,157.000,36.370,8.869,2.702,307.900,78.550,20.260,6.006,baseline
1286.000,302.600,60.440,17.480,1046.000,210.000,40.250,9.763,159.600,36.530,8.861,2.687,310.300,79.290,20.440,6.074,baseline
1294.000,304.900,61.400,17.620,1050.000,211.400,40.310,9.746,156.800,36.830,8.851,2.708,311.400,79.510,20.550,6.125,baseline
1301.000,306.900,61.400,17.840,1051.000,211.800,41.700,9.817,159.400,37.010,8.928,2.717,314.100,80.040,20.730,6.164,baseline
1311.000,309.000,63.240,18.020,1053.000,212.800,41.980,9.864,161.000,36.990,9.002,2.729,316.000,80.590,20.830,6.265,baseline
1321.000,313.500,62.510,18.150,1058.000,212.000,41.620,9.790,160.800,37.220,8.956,2.742,316.000,80.420,20.750,6.157,baseline
1300.000,306.500,61.510,17.480,1048.000,210.500,41.150,9.732,157.700,36.650,8.913,2.694,310.100,78.320,20.160,5.919,baseline
1281.000,302.600,62.200,17.330,1043.000,209.400,40.150,9.668,155.700,36.450,8.796,2.672,306.100,78.110,20.060,5.896,baseline
1278.000,300.000,60.810,17.330,1042.000,210.500,40.500,9.664,157.500,36.430,8.782,2.667,306.500,77.690,19.960,5.925,baseline
1279.000,300.200,61.940,17.310,1043.000,209.800,40.570,9.664,157.800,36.330,8.797,2.688,306.300,77.600,20.070,5.905,baseline
1280.000,300.400,62.680,17.310,1043.000,209.800,40.400,9.697,156.600,36.250,8.775,2.661,306.400,78.180,20.160,5.945,baseline
1286.000,303.500,61.610,17.590,1043.000,211.500,41.000,9.774,153.500,36.310,8.794,2.675,308.800,78.450,20.200,5.976,baseline
1295.000,304.900,62.120,17.750,1047.000,211.200,41.000,9.796,156.100,36.400,8.811,2.708,311.100,79.300,20.380,6.046,baseline
1305.000,309.300,63.710,18.010,1050.000,212.300,41.980,9.828,157.100,36.670,8.819,2.679,311.800,79.590,20.640,6.122,baseline
1313.000,310.500,63.210,18.230,1058.000,213.700,42.190,9.888,155.400,36.920,8.894,2.700,314.300,80.230,20.820,6.177,baseline
1324.000,313.300,63.950,18.480,1054.000,213.300,41.690,9.901,156.500,36.940,8.950,2.719,316.900,80.790,20.840,6.217,baseline
1318.000,311.400,62.440,17.940,1050.000,211.000,41.140,9.751,154.900,36.730,8.821,2.697,310.300,78.910,20.280,5.978,baseline
1293.000,304.600,62.730,17.610,1049.000,210.500,40.370,9.741,155.500,36.290,8.779,2.687,307.500,77.780,20.050,5.894,baseline
1291.000,305.300,61.310,17.540,1049.000,210.100,40.850,9.722,154.700,36.290,8.725,2.673,307.300,77.870,20.090,5.903,baseline
1293.000,304.800,61.940,17.650,1045.000,211.000,40.720,9.780,154.500,36.530,8.759,2.686,307.500,78.080,20.070,5.917,baseline
1295.000,304.800,62.860,17.670,1055.000,210.800,41.100,9.787,156.800,36.210,8.757,2.672,306.900,77.840,20.110,5.925,baseline
1299.000,306.000,62.910,17.830,1053.000,211.900,40.840,9.780,151.900,35.990,8.769,2.679,308.300,78.470,20.180,5.974,baseline
1308.000,308.800,63.220,18.040,1056.000,212.500,41.350,9.867,158.200,36.480,8.797,2.692,310.900,78.980,20.480,6.067,baseline
1319.000,310.600,63.890,18.250,1056.000,212.400,41.930,9.942,158.500,36.750,8.771,2.700,313.800,79.910,20.770,6.106,baseline
1329.000,313.400,63.510,18.430,1059.000,213.500,41.890,9.953,160.400,36.700,8.844,2.709,315.400,80.560,20.820,6.182,baseline
1340.000,318.600,65.420,18.620,1061.000,214.100,41.290,9.922,161.600,36.980,8.919,2.747,318.600,81.210,20.970,6.210,baseline
1334.000,314.100,62.370,18.140,1058.000,212.200,40.980,9.788,158.500,36.790,8.854,2.714,313.400,79.140,20.360,5.988,baseline
1310.000,310.100,61.920,17.820,1053.000,211.600,40.970,9.822,154.800,36.460,8.725,2.661,308.700,78.340,20.080,5.933,baseline
1308.000,309.000,62.950,17.890,1061.000,212.000,41.690,9.828,155.500,36.080,8.722,2.678,308.600,78.380,20.080,5.938,baseline
1310.000,309.900,62.090,17.970,1053.000,212.000,41.850,9.881,155.200,36.230,8.731,2.672,308.600,78.090,20.030,5.976,baseline
1311.000,310.100,61.810,17.970,1059.000,212.300,41.310,9.858,157.600,36.640,8.740,2.671,307.300,78.140,20.180,5.968,baseline
1316.000,308.400,64.020,18.100,1059.000,212.500,42.160,9.885,158.900,36.400,8.753,2.686,310.100,78.760,20.300,5.990,baseline
1326.000,312.100,63.700,18.310,1060.000,213.300,41.020,9.932,157.500,36.650,8.735,2.691,313.200,79.640,20.460,6.097,baseline
1336.000,317.400,64.590,18.550,1068.000,214.600,41.330,10.010,153.600,36.730,8.859,2.700,315.400,80.200,20.750,6.145,baseline
1346.000,317.700,64.920,18.800,1067.000,215.600,42.230,10.030,157.300,36.730,8.870,2.721,316.300,81.100,20.990,6.208,baseline
1355.000,321.000,65.410,18.880,1072.000,214.400,41.750,9.990,158.900,36.840,8.904,2.732,318.800,81.590,21.030,6.212,baseline
1346.000,316.200,64.390,18.320,1056.000,213.600,41.360,9.848,156.100,36.730,8.814,2.689,313.500,78.760,20.260,5.974,baseline
1321.000,310.400,62.500,18.140,1059.000,212.100,40.830,9.851,156.300,36.400,8.778,2.654,310.500,78.340,20.090,5.939,baseline
1321.000,311.600,63.960,18.160,1057.000,211.900,41.080,9.841,157.100,36.190,8.665,2.668,309.800,78.400,20.190,5.978,baseline
1323.000,313.300,64.400,18.200,1058.000,212.900,41.510,9.866,157.000,36.230,8.752,2.678,310.900,78.840,20.250,5.993,baseline
1325.000,310.900,64.420,18.280,1062.000,212.300,41.990,9.927,156.900,36.330,8.694,2.657,311.500,78.830,20.400,6.032,baseline
1329.000,315.200,63.890,18.260,1060.000,213.300,41.740,9.918,155.600,35.940,8.754,2.673,311.800,79.450,20.480,6.096,baseline
1340.000,315.700,64.280,18.530,1060.000,213.300,40.880,9.983,155.600,36.620,8.809,2.725,314.000,80.150,20.740,6.180,baseline
1347.000,317.000,64.990,18.740,1063.000,214.000,41.410,9.938,157.400,37.040,9.010,2.754,321.800,81.810,21.180,6.315,baseline
1356.000,319.000,63.990,18.810,1067.000,214.800,41.350,10.060,159.000,37.630,9.023,2.792,324.500,83.060,21.430,6.434,baseline
1364.000,321.700,66.530,18.910,1072.000,213.400,41.410,9.892,160.400,37.810,9.111,2.776,326.300,82.810,21.250,6.309,baseline
1339.000,311.500,63.110,18.210,1056.000,211.900,41.620,9.876,159.000,37.510,8.962,2.737,318.600,80.820,20.660,6.156,baseline
1328.000,312.400,62.160,18.120,1057.000,211.900,41.360,9.797,159.100,36.960,8.888,2.754,317.700,80.920,20.740,6.164,baseline
1329.000,310.400,62.890,18.140,1060.000,211.700,41.180,9.802,160.300,37.250,8.962,2.729,318.300,80.940,20.930,6.179,baseline
1331.000,311.700,63.230,18.140,1056.000,211.900,41.290,9.817,155.700,37.360,8.929,2.747,318.400,81.130,20.820,6.167,baseline
1332.000,312.000,63.160,18.250,1058.000,211.300,41.360,9.845,159.400,37.250,8.954,2.724,319.800,81.360,20.930,6.221,baseline
1338.000,314.400,65.320,18.390,1060.000,212.400,41.770,9.910,160.600,36.900,8.960,2.747,320.400,81.850,21.090,6.245,baseline
1347.000,316.700,64.430,18.610,1063.000,213.900,41.250,9.954,160.500,37.150,9.001,2.756,321.500,82.030,21.230,6.265,baseline
1357.000,320.700,66.250,18.860,1064.000,214.400,42.160,9.960,159.400,37.350,9.027,2.773,323.800,82.260,21.350,6.348,baseline
1365.000,318.400,66.030,18.760,1062.000,212.100,41.550,9.834,158.900,37.320,9.018,2.763,322.800,81.700,21.010,6.196,baseline
1337.000,313.300,64.390,18.110,1058.000,211.400,40.980,9.796,161.100,36.700,8.829,2.709,315.300,79.930,20.480,6.096,baseline
1329.000,311.400,63.810,18.180,1057.000,211.700,40.900,9.804,157.600,36.730,8.858,2.704,316.700,80.050,20.640,6.114,baseline
1335.000,313.800,63.670,18.270,1054.000,212.100,41.440,9.804,158.400,36.680,8.869,2.701,317.600,80.530,20.770,6.165,baseline
1335.000,311.500,62.620,18.230,1055.000,211.500,41.210,9.778,158.100,36.760,8.809,2.700,316.400,80.220,20.750,6.118,baseline
1335.000,313.000,63.940,18.290,1054.000,211.000,41.680,9.871,157.000,36.420,8.876,2.709,318.200,80.730,20.750,6.153,baseline
1339.000,315.800,62.120,18.470,1053.000,212.400,42.130,9.872,156.000,36.550,8.911,2.738,318.700,81.350,21.060,6.240,baseline
1348.000,316.300,62.150,18.600,1057.000,212.900,41.760,9.948,159.600,37.070,8.908,2.754,321.300,81.960,21.200,6.321,baseline
1357.000,318.500,66.520,18.650,1059.000,212.700,42.030,9.811,159.600,37.070,8.959,2.744,321.000,81.690,21.160,6.198,baseline
1332.000,311.500,62.350,18.000,1052.000,209.300,40.590,9.757,157.800,36.840,8.855,2.691,315.400,79.680,20.490,6.090,baseline
1320.000,308.900,62.760,17.940,1053.000,209.800,40.900,9.740,156.000,36.620,8.771,2.699,314.600,79.790,20.520,6.099,baseline
1319.000,309.600,62.200,17.950,1047.000,210.500,40.920,9.721,156.500,36.460,8.758,2.712,316.200,80.060,20.640,6.117,baseline
1319.000,308.500,61.590,17.990,1052.000,209.700,40.620,9.752,156.700,36.570,8.821,2.688,315.700,80.290,20.650,6.113,baseline
1318.000,308.100,61.880,17.980,1053.000,209.500,40.440,9.728,156.200,36.620,8.764,2.698,315.000,80.230,20.650,6.117,baseline
1324.000,308.300,64.090,18.160,1050.000,210.600,41.050,9.780,156.700,36.360,8.828,2.689,316.800,80.660,20.810,6.170,baseline
1330.000,311.800,63.560,18.310,1053.000,211.100,40.580,9.801,157.400,36.720,8.893,2.730,318.300,81.380,21.140,6.281,baseline
1335.000,312.500,64.870,18.190,1053.000,210.000,40.920,9.665,157.200,36.550,8.890,2.708,316.900,80.210,20.610,6.075,baseline
1308.000,305.300,61.420,17.590,1038.000,207.800,40.180,9.635,157.300,36.270,8.752,2.683,311.300,78.850,20.260,5.961,baseline
1298.000,304.100,60.970,17.440,1039.000,207.500,40.720,9.610,156.200,35.990,8.743,2.674,311.600,78.610,20.190,5.967,baseline
1295.000,301.500,59.290,17.460,1040.000,207.700,40.230,9.580,152.100,35.900,8.724,2.658,312.400,78.860,20.400,6.010,baseline
1293.000,300.900,61.330,17.400,1032.000,207.600,39.930,9.640,153.800,36.260,8.730,2.661,310.900,78.710,20.290,5.982,baseline
1291.000,301.000,60.750,17.470,1040.000,207.300,41.020,9.660,153.400,36.190,8.769,2.682,311.400,78.960,20.450,6.030,baseline
1297.000,303.300,63.050,17.570,1039.000,207.300,40.490,9.669,156.000,36.010,8.713,2.680,313.800,79.310,20.580,6.091,baseline
1303.000,304.400,61.510,17.770,1042.000,207.800,40.330,9.722,156.500,36.090,8.768,2.679,314.700,80.340,20.700,6.125,baseline
1304.000,301.800,60.700,17.430,1035.000,206.500,40.030,9.518,157.900,36.090,8.707,2.673,311.800,78.510,20.080,5.933,baseline
1273.000,295.400,58.930,17.000,1027.000,206.000,39.130,9.471,152.200,35.450,8.606,2.626,306.200,77.300,19.900,5.809,baseline
1264.000,293.700,58.460,16.860,1025.000,204.000,39.710,9.464,153.000,35.830,8.662,2.629,306.100,76.710,19.810,5.842,baseline
1259.000,292.900,57.890,16.820,1020.000,203.800,40.220,9.443,151.600,35.350,8.584,2.623,306.200,77.170,19.880,5.837,baseline
1257.000,293.600,59.340,16.840,1021.000,204.400,40.340,9.457,153.900,35.380,8.571,2.620,304.800,76.950,19.900,5.821,baseline
1259.000,293.400,58.350,16.970,1021.000,204.700,40.230,9.496,150.700,35.820,8.590,2.624,306.400,77.380,19.900,5.887,baseline
1264.000,295.400,58.460,17.110,1023.000,204.200,40.400,9.554,155.000,35.790,8.658,2.639,307.600,77.700,20.100,5.904,baseline
1270.000,297.300,57.990,17.230,1028.000,205.400,39.660,9.592,155.300,35.910,8.706,2.651,308.800,78.550,20.190,6.001,baseline
1275.000,298.900,59.270,17.060,1023.000,203.600,39.610,9.474,153.800,35.900,8.661,2.650,307.400,77.070,19.810,5.827,baseline
1246.000,290.500,57.710,16.510,1015.000,202.900,39.430,9.384,153.100,35.420,8.522,2.607,302.300,75.940,19.500,5.685,baseline
1234.000,287.400,57.350,16.380,1014.000,202.000,39.200,9.328,154.300,35.280,8.484,2.598,300.200,75.170,19.340,5.672,baseline
1229.000,285.200,56.830,16.440,1012.000,202.700,38.840,9.389,153.600,35.400,8.439,2.586,299.400,75.420,19.410,5.683,baseline
1227.000,284.700,56.420,16.340,1007.000,202.500,39.150,9.334,152.900,35.140,8.497,2.582,299.500,75.180,19.340,5.666,baseline
1228.000,285.700,55.950,16.380,1006.000,202.100,39.510,9.410,153.700,35.310,8.479,2.588,299.600,75.530,19.430,5.725,baseline
1232.000,286.200,56.920,16.480,1012.000,202.900,39.400,9.419,152.800,35.390,8.471,2.595,302.500,76.250,19.610,5.727,baseline
1239.000,288.100,59.020,16.670,1018.000,203.400,39.370,9.491,151.700,35.150,8.564,2.619,303.600,76.610,19.730,5.739,baseline
1247.000,291.600,56.240,16.920,1018.000,203.800,39.720,9.501,155.800,35.540,8.579,2.611,305.700,76.960,19.840,5.847,baseline
1256.000,294.600,57.660,16.980,1019.000,204.800,39.440,9.512,154.600,35.660,8.604,2.641,307.500,77.040,19.660,5.770,baseline
1240.000,289.700,55.520,16.290,1013.000,202.400,39.120,9.373,155.800,35.270,8.485,2.571,300.300,75.020,19.150,5.596,baseline
1222.000,282.400,55.460,16.180,1012.000,202.600,38.890,9.333,150.200,35.140,8.452,2.558,297.800,74.570,18.960,5.512,baseline
1214.000,281.700,55.380,16.090,1005.000,202.000,38.810,9.393,151.300,35.050,8.360,2.561,296.600,74.160,18.950,5.540,baseline
1214.000,283.600,55.960,16.100,1009.000,201.800,39.390,9.347,150.100,34.930,8.421,2.556,296.500,74.010,18.960,5.509,baseline
1213.000,281.400,55.300,16.090,1008.000,201.700,38.500,9.368,149.300,34.770,8.386,2.531,297.800,74.350,19.010,5.532,baseline
1217.000,284.000,57.300,16.230,1012.000,202.400,39.260,9.414,150.000,35.120,8.445,2.563,299.300,74.760,19.210,5.592,baseline
1224.000,285.600,56.880,16.350,1015.000,204.000,39.050,9.504,154.800,35.330,8.504,2.563,300.500,75.380,19.370,5.635,baseline
1231.000,287.500,57.670,16.530,1015.000,204.000,39.430,9.487,150.600,35.330,8.537,2.592,302.300,75.900,19.470,5.663,baseline
1240.000,289.600,57.040,16.650,1019.000,205.000,39.630,9.550,151.600,35.410,8.563,2.597,303.600,76.500,19.620,5.739,baseline
1250.000,292.400,57.100,16.810,1025.000,205.600,40.210,9.581,153.300,35.720,8.598,2.609,306.700,76.960,19.740,5.774,baseline
1260.000,294.000,57.810,16.780,1019.000,205.200,39.850,9.470,152.600,35.790,8.618,2.623,307.000,76.220,19.430,5.612,baseline
1234.000,286.500,57.380,16.390,1014.000,204.000,39.860,9.451,154.300,35.290,8.518,2.565,301.200,75.160,18.990,5.538,baseline
1228.000,286.100,56.390,16.270,1014.000,203.700,39.140,9.410,151.900,35.120,8.435,2.569,299.400,74.970,19.020,5.492,baseline
1226.000,284.500,56.590,16.240,1015.000,203.800,39.890,9.445,153.900,35.040,8.465,2.564,300.000,74.860,19.040,5.510,baseline
1228.000,286.100,57.910,16.280,1018.000,204.100,39.190,9.490,152.600,35.350,8.484,2.545,301.000,75.120,19.020,5.504,baseline
1231.000,286.400,56.840,16.420,1021.000,204.300,39.390,9.494,153.300,35.340,8.480,2.576,302.100,75.640,19.250,5.569,baseline
1238.000,288.300,59.000,16.500,1024.000,205.400,40.130,9.586,151.500,35.320,8.564,2.573,303.300,76.200,19.400,5.635,baseline
1246.000,291.200,58.250,16.720,1023.000,205.800,40.060,9.600,153.900,35.490,8.593,2.609,306.900,76.700,19.640,5.684,baseline
1254.000,291.700,58.240,16.950,1027.000,207.200,39.720,9.619,155.000,35.770,8.613,2.616,309.100,77.500,19.720,5.708,baseline
1265.000,295.400,59.470,17.030,1032.000,207.800,40.570,9.683,154.000,35.600,8.613,2.631,311.300,77.930,19.910,5.762,baseline
1276.000,297.300,58.980,17.270,1032.000,207.500,40.670,9.678,154.600,36.130,8.680,2.655,314.100,78.530,19.910,5.737,baseline
1265.000,295.800,57.870,16.760,1031.000,206.000,40.430,9.630,155.700,35.830,8.645,2.624,308.900,77.270,19.620,5.634,baseline
1255.000,294.500,59.290,16.740,1032.000,205.900,39.930,9.619,152.800,35.960,8.581,2.598,308.200,77.080,19.530,5.654,baseline
1254.000,292.600,56.770,16.660,1031.000,206.900,40.470,9.598,154.900,35.880,8.634,2.612,310.100,77.560,19.650,5.650,baseline
1260.000,293.000,58.410,16.800,1029.000,207.000,40.390,9.617,154.200,35.950,8.604,2.634,309.900,77.590,19.700,5.672,baseline
1262.000,294.200,59.270,16.800,1032.000,208.300,40.390,9.658,154.100,35.930,8.685,2.626,311.500,78.110,19.830,5.722,baseline
1269.000,299.700,58.760,17.070,1043.000,208.300,40.710,9.693,154.700,36.040,8.658,2.635,313.300,78.640,20.010,5.797,baseline
1278.000,300.400,60.410,17.270,1037.000,209.500,40.640,9.778,156.300,36.370,8.796,2.645,316.200,79.550,20.210,5.880,baseline
1287.000,300.800,60.130,17.350,1042.000,210.600,40.820,9.768,158.700,36.480,8.783,2.667,318.400,79.960,20.420,5.927,baseline
1297.000,302.500,60.710,17.550,1048.000,210.600,41.570,9.862,156.400,36.510,8.860,2.677,321.400,80.840,20.620,5.990,baseline
1305.000,304.100,61.050,17.670,1047.000,211.200,40.890,9.767,157.800,36.530,8.898,2.702,320.600,80.870,20.430,5.889,baseline
1288.000,300.000,61.450,17.220,1047.000,209.700,40.800,9.719,156.400,36.540,8.831,2.672,317.800,79.990,20.290,5.852,baseline
1285.000,299.800,59.180,17.190,1042.000,210.000,41.210,9.696,159.700,36.380,8.794,2.655,317.600,79.900,20.380,5.893,baseline
1287.000,301.800,59.550,17.320,1051.000,209.900,40.530,9.792,157.600,36.700,8.823,2.675,318.900,80.430,20.510,5.911,baseline
1291.000,303.900,60.120,17.310,1045.000,210.000,40.800,9.783,159.000,36.690,8.804,2.686,320.800,80.620,20.520,5.932,baseline
1295.000,302.900,59.900,17.510,1049.000,210.300,40.890,9.800,159.300,36.630,8.841,2.696,322.400,81.560,20.740,6.036,baseline
1303.000,305.300,61.960,17.660,1054.000,211.000,40.780,9.876,159.000,37.070,8.937,2.696,323.900,81.940,20.890,6.074,baseline
1312.000,307.600,62.740,17.750,1056.000,212.400,40.640,9.949,158.400,37.260,8.952,2.737,325.800,82.500,21.100,6.136,baseline
1320.000,310.300,62.370,18.040,1059.000,212.700,41.670,9.945,158.900,37.180,8.997,2.747,327.900,83.400,21.400,6.204,baseline
1330.000,313.800,63.150,18.200,1061.000,213.500,42.180,10.020,159.800,37.210,9.061,2.764,330.800,83.950,21.560,6.250,baseline
1331.000,309.400,63.510,17.870,1053.000,212.500,41.000,9.872,159.800,37.410,8.960,2.735,328.800,82.910,21.090,6.130,baseline
1310.000,305.800,60.720,17.640,1056.000,212.300,41.230,9.860,159.700,37.190,9.015,2.738,326.400,82.750,21.080,6.117,baseline
1313.000,306.400,61.970,17.640,1058.000,212.000,41.530,9.865,160.100,37.300,9.029,2.731,326.800,83.160,21.220,6.218,baseline
1316.000,307.700,61.380,17.730,1054.000,212.300,41.600,9.909,159.300,37.110,8.993,2.744,328.700,83.110,21.350,6.214,baseline
1319.000,308.300,62.570,17.870,1059.000,212.700,41.470,9.915,161.900,37.240,9.057,2.752,330.100,83.740,21.520,6.271,baseline
1325.000,309.100,61.540,18.020,1060.000,213.200,41.160,9.977,160.600,37.510,9.040,2.769,331.600,84.220,21.670,6.326,baseline
1331.000,312.300,62.730,18.070,1065.000,213.200,41.810,9.961,157.400,37.470,9.132,2.789,332.600,84.880,21.850,6.384,baseline
1340.000,315.100,62.950,18.330,1069.000,214.800,41.890,10.040,159.500,37.600,9.160,2.804,334.600,85.770,21.960,6.450,baseline
1347.000,315.500,65.480,18.420,1071.000,215.400,41.730,10.060,161.700,38.060,9.228,2.807,337.000,86.270,22.110,6.479,baseline
1356.000,318.300,64.890,18.620,1071.000,214.300,41.650,10.040,163.800,38.150,9.185,2.832,338.800,86.240,22.140,6.504,baseline
1339.000,313.200,63.050,17.990,1061.000,213.300,41.490,9.904,159.200,37.710,9.144,2.788,335.200,85.040,21.810,6.365,baseline
1330.000,309.600,63.280,18.050,1066.000,213.100,41.140,9.972,162.200,37.710,9.135,2.792,335.500,85.310,21.970,6.449,baseline
1329.000,311.600,64.420,18.040,1063.000,213.900,41.560,9.905,161.800,37.730,9.144,2.832,336.000,85.550,21.990,6.432,baseline
1333.000,312.400,63.470,18.100,1063.000,213.300,41.380,9.952,162.300,37.690,9.176,2.823,335.600,85.640,22.040,6.448,baseline
1333.000,311.500,61.620,18.240,1058.000,213.900,41.150,9.992,163.000,37.830,9.123,2.826,335.700,85.990,22.190,6.512,baseline
1339.000,313.500,62.380,18.310,1064.000,214.300,41.650,10.010,163.000,37.830,9.215,2.838,338.900,86.600,22.280,6.570,baseline
1344.000,315.900,62.910,18.350,1067.000,214.500,42.050,10.010,163.400,37.870,9.225,2.836,339.400,87.250,22.490,6.590,baseline
1351.000,316.500,64.990,18.540,1075.000,215.100,42.190,10.080,162.400,38.010,9.287,2.849,340.800,87.560,22.610,6.682,baseline
1356.000,319.600,63.240,18.420,1071.000,213.400,42.460,9.950,163.200,38.110,9.315,2.830,340.000,86.790,22.310,6.534,baseline
1333.000,313.200,62.470,18.080,1061.000,212.500,41.230,9.938,162.000,37.870,9.228,2.837,337.500,86.510,22.240,6.545,baseline
1332.000,311.200,63.900,18.060,1064.000,213.900,41.650,9.969,163.600,38.000,9.215,2.817,337.400,86.660,22.290,6.586,baseline
1334.000,312.900,64.460,18.120,1063.000,212.400,41.580,9.934,162.800,38.020,9.280,2.845,339.700,86.960,22.560,6.589,baseline
1332.000,313.100,64.450,18.120,1059.000,213.000,41.670,9.967,163.200,38.100,9.247,2.844,339.300,86.850,22.360,6.617,baseline
1334.000,312.800,63.390,18.200,1063.000,213.300,41.880,9.918,163.000,38.060,9.281,2.839,339.300,87.320,22.590,6.633,baseline
1339.000,313.800,63.340,18.370,1065.000,213.500,41.030,10.010,162.800,38.290,9.242,2.848,340.500,87.370,22.720,6.737,baseline
1346.000,314.800,63.540,18.440,1069.000,214.000,42.080,9.988,163.600,38.340,9.272,2.865,342.300,88.320,22.860,6.735,baseline
1348.000,316.300,62.610,18.340,1058.000,212.400,41.400,9.899,163.700,38.110,9.331,2.874,340.400,87.070,22.320,6.656,baseline
1324.000,309.700,62.070,17.900,1060.000,212.500,41.470,9.860,160.200,37.700,9.152,2.831,337.700,86.440,22.290,6.605,baseline
1323.000,309.000,62.300,18.000,1063.000,216.800,42.480,10.070,162.200,37.420,9.095,2.791,333.400,84.800,21.980,6.455,baseline
1346.000,321.400,68.580,18.470,1075.000,220.100,43.510,10.050,159.200,36.890,8.974,2.779,331.800,84.820,22.070,6.509,baseline
1340.000,319.000,65.860,18.320,1072.000,219.400,42.810,10.100,158.100,36.950,8.999,2.790,333.100,85.400,22.120,6.540,baseline
1332.000,316.600,64.350,18.330,1067.000,215.300,42.260,10.050,162.100,37.330,9.117,2.816,337.800,86.730,22.420,6.690,baseline
1331.000,314.200,65.320,18.400,1062.000,214.100,42.000,10.040,161.700,37.700,9.216,2.831,340.400,87.090,22.640,6.747,baseline
1335.000,312.900,66.880,18.450,1065.000,213.400,41.680,9.974,166.400,37.780,9.218,2.848,340.800,87.440,22.560,6.692,baseline
1320.000,307.700,63.050,17.730,1049.000,211.600,41.090,9.794,161.000,37.810,9.132,2.818,335.600,85.730,22.160,6.542,baseline
1305.000,304.300,61.190,17.510,1049.000,211.500,40.890,9.810,162.600,37.580,9.161,2.830,332.600,85.370,22.060,6.543,baseline
1300.000,302.400,60.650,17.490,1051.000,210.500,41.150,9.772,162.200,37.300,9.151,2.814,334.000,85.390,22.070,6.562,baseline
1300.000,303.800,61.040,17.490,1046.000,210.500,42.000,9.807,161.200,37.570,9.207,2.828,333.500,85.220,21.960,6.556,baseline
1295.000,303.300,60.360,17.520,1049.000,210.500,40.570,9.802,162.200,37.310,9.124,2.818,333.800,85.280,22.170,6.566,baseline
1300.000,303.500,59.750,17.640,1046.000,211.300,41.410,9.843,160.300,37.410,9.171,2.833,335.200,85.650,22.270,6.625,baseline
1307.000,306.100,60.800,17.730,1051.000,211.200,41.390,9.908,161.500,37.700,9.231,2.859,336.200,86.210,22.510,6.687,baseline
1312.000,306.700,61.050,17.540,1048.000,210.400,40.750,9.764,160.300,37.660,9.191,2.823,333.300,85.220,22.040,6.525,baseline
1284.000,298.600,59.640,17.150,1042.000,208.200,40.290,9.749,159.600,37.290,9.032,2.793,329.300,83.960,21.670,6.454,baseline
1275.000,296.000,59.480,16.920,1040.000,207.900,39.660,9.674,158.300,37.060,9.091,2.792,327.100,83.420,21.600,6.383,baseline
1267.000,293.000,59.320,16.910,1036.000,208.300,39.950,9.718,155.300,37.080,9.086,2.804,326.900,83.270,21.650,6.424,baseline
1268.000,294.800,57.680,16.870,1038.000,207.900,40.170,9.621,160.300,37.250,9.031,2.800,326.000,83.500,21.650,6.409,baseline
1266.000,293.500,58.670,16.970,1038.000,208.000,40.000,9.720,159.300,36.910,9.030,2.787,327.800,83.660,21.850,6.431,baseline
1272.000,295.700,60.420,17.060,1040.000,208.800,40.630,9.772,158.800,37.180,9.084,2.800,328.200,84.100,21.870,6.521,baseline
1280.000,297.700,60.400,17.350,1040.000,209.400,40.320,9.803,155.100,37.200,9.057,2.811,328.300,84.640,21.980,6.541,baseline
1286.000,298.400,59.650,17.440,1043.000,209.800,40.440,9.844,158.600,37.380,9.178,2.820,329.700,84.850,22.160,6.587,baseline
1288.000,299.000,57.990,17.010,1039.000,208.700,40.580,9.745,159.200,37.350,9.072,2.810,326.700,83.370,21.580,6.355,baseline
1261.000,293.600,56.790,16.720,1034.000,207.600,40.410,9.633,157.400,36.950,9.024,2.774,323.300,82.380,21.350,6.318,baseline
1252.000,291.800,57.280,16.420,1032.000,206.800,39.660,9.654,154.500,36.900,8.940,2.783,321.100,82.210,21.210,6.268,baseline
1248.000,287.700,56.740,16.490,1030.000,206.900,40.010,9.654,158.600,37.000,9.023,2.777,320.900,81.750,21.260,6.292,baseline
1247.000,289.900,58.130,16.490,1035.000,206.400,39.760,9.681,159.600,36.710,8.991,2.786,320.000,81.870,21.240,6.309,baseline
1248.000,289.500,58.600,16.600,1028.000,206.500,40.150,9.749,157.700,36.810,9.031,2.766,320.900,82.030,21.170,6.360,baseline
1254.000,290.700,57.520,16.720,1034.000,208.100,40.740,9.774,159.400,36.950,9.083,2.800,322.900,82.790,21.480,6.374,baseline
1262.000,294.000,58.670,16.900,1039.000,209.000,40.780,9.844,157.800,36.990,9.085,2.802,324.100,83.530,21.670,6.440,baseline
1272.000,295.200,58.940,17.120,1046.000,210.100,40.640,9.849,161.100,37.230,9.078,2.819,326.500,83.820,21.750,6.498,baseline
1279.000,298.800,59.220,17.220,1046.000,211.300,40.970,9.930,162.300,37.610,9.138,2.838,327.000,84.380,21.830,6.551,baseline
1289.000,300.900,59.880,17.480,1053.000,211.900,41.650,9.992,157.800,37.670,9.234,2.830,330.300,85.000,22.160,6.592,baseline
1300.000,303.200,61.030,17.640,1052.000,211.200,41.670,9.915,161.500,37.750,9.214,2.849,330.900,84.580,22.010,6.467,baseline
1281.000,295.600,58.600,16.970,1043.000,209.400,41.600,9.775,160.700,37.310,9.113,2.814,324.000,82.730,21.400,6.307,baseline
1263.000,293.700,56.890,16.700,1042.000,209.400,41.400,9.801,159.600,37.090,9.090,2.774,321.200,82.010,21.170,6.264,baseline
1257.000,290.300,58.140,16.710,1046.000,209.300,40.860,9.748,155.400,37.230,9.047,2.774,319.100,81.660,21.110,6.248,baseline
1256.000,291.000,57.300,16.640,1040.000,209.600,40.680,9.774,160.400,37.010,9.031,2.797,319.100,81.580,21.110,6.260,baseline
1257.000,292.500,57.260,16.750,1045.000,210.100,41.090,9.772,158.200,36.920,9.083,2.774,318.200,81.520,21.100,6.296,baseline
1262.000,292.500,59.110,16.910,1045.000,210.400,41.130,9.881,159.200,37.020,9.012,2.791,319.600,81.820,21.310,6.307,baseline
1271.000,294.400,59.470,17.090,1051.000,211.300,41.110,9.958,160.400,37.330,9.121,2.807,321.200,82.310,21.330,6.336,baseline
1278.000,297.200,60.940,17.190,1061.000,212.100,41.010,9.923,161.200,37.170,9.139,2.822,322.800,82.880,21.470,6.386,baseline
1288.000,299.300,59.840,17.460,1056.000,213.500,41.250,10.020,159.000,37.660,9.165,2.817,324.800,83.380,21.760,6.463,baseline
1298.000,302.500,60.590,17.550,1062.000,213.100,42.310,10.070,158.900,37.730,9.182,2.820,326.400,84.260,21.890,6.495,baseline
1305.000,301.600,60.180,17.410,1059.000,213.100,41.430,9.925,162.300,37.640,9.241,2.838,324.100,83.140,21.320,6.322,baseline
1278.000,296.700,58.030,17.090,1048.000,211.500,40.740,9.880,161.200,37.390,9.093,2.806,320.800,81.740,21.110,6.244,baseline
1271.000,295.300,58.710,16.930,1051.000,211.600,41.720,9.868,160.800,37.200,9.104,2.786,318.700,81.000,20.950,6.174,baseline
1269.000,293.300,58.280,17.030,1051.000,211.400,41.270,9.896,156.500,36.970,9.037,2.791,317.900,80.980,20.950,6.179,baseline
1272.000,294.600,58.040,16.950,1055.000,211.600,41.420,9.902,158.700,37.330,8.994,2.789,317.100,80.970,20.910,6.215,baseline
1274.000,295.700,58.980,17.030,1054.000,212.600,41.430,9.937,161.100,37.180,9.061,2.788,319.100,81.430,21.090,6.244,baseline
1282.000,296.800,59.700,17.220,1059.000,213.100,41.470,10.010,161.800,37.760,9.152,2.817,320.100,81.770,21.240,6.271,baseline
1290.000,299.600,61.360,17.450,1062.000,213.500,41.820,10.020,160.900,37.830,9.206,2.805,321.000,82.320,21.340,6.398,baseline
1299.000,304.400,61.940,17.650,1065.000,214.600,41.480,10.090,163.700,37.780,9.215,2.833,323.300,82.910,21.430,6.400,baseline
1308.000,305.800,61.670,17.750,1073.000,215.800,42.360,10.120,163.300,37.910,9.212,2.843,326.100,83.400,21.680,6.461,baseline
1314.000,304.900,59.510,17.570,1067.000,213.700,41.920,9.996,161.800,37.980,9.234,2.833,322.200,82.370,21.110,6.261,baseline
1290.000,300.200,59.650,17.390,1059.000,213.900,41.580,10.020,162.500,37.540,9.139,2.816,317.400,81.340,21.030,6.167,baseline
1291.000,300.200,58.490,17.260,1061.000,213.700,41.350,10.020,163.800,37.730,9.122,2.815,318.000,81.040,20.880,6.199,baseline
1293.000,302.300,59.290,17.290,1064.000,214.600,41.810,10.050,162.300,37.500,9.132,2.824,319.300,81.480,21.090,6.210,baseline
1295.000,302.300,61.470,17.440,1064.000,215.000,41.780,10.120,161.700,37.610,9.144,2.796,317.300,81.470,21.000,6.229,baseline
1300.000,303.000,60.180,17.690,1072.000,215.700,42.510,10.120,161.600,37.640,9.156,2.821,320.000,81.570,21.100,6.277,baseline
1309.000,304.800,61.900,17.820,1071.000,216.800,42.450,10.160,160.900,37.820,9.239,2.835,322.800,82.760,21.440,6.345,baseline
1318.000,306.900,61.160,17.960,1072.000,216.900,42.840,10.230,162.100,38.040,9.301,2.854,323.800,82.810,21.580,6.364,baseline
1328.000,310.300,63.150,18.140,1080.000,217.300,43.680,10.270,162.300,38.020,9.261,2.860,326.100,83.880,21.740,6.471,baseline
1338.000,311.700,63.630,18.400,1085.000,218.800,43.080,10.220,163.800,38.220,9.400,2.869,328.500,83.940,21.700,6.412,baseline
1323.000,307.900,61.320,17.750,1071.000,215.800,42.630,10.070,164.200,38.040,9.265,2.837,320.500,81.990,21.100,6.258,baseline
1309.000,304.600,60.610,17.630,1076.000,216.400,42.120,10.100,162.800,37.970,9.225,2.813,319.100,81.610,21.030,6.249,baseline
1310.000,306.800,60.470,17.610,1073.000,215.800,42.800,10.160,163.000,37.900,9.210,2.824,320.000,81.660,21.130,6.252,baseline
1312.000,306.900,59.970,17.750,1077.000,216.600,43.340,10.160,162.900,37.920,9.280,2.842,320.900,81.510,21.210,6.243,baseline
1314.000,307.700,60.670,17.720,1073.000,217.400,42.640,10.210,162.600,37.990,9.218,2.853,320.500,81.970,21.200,6.299,baseline
1321.000,310.600,62.050,17.990,1078.000,217.600,43.270,10.270,162.400,38.150,9.300,2.860,322.800,82.610,21.350,6.347,baseline
1330.000,310.400,62.130,18.190,1084.000,218.700,43.060,10.270,161.600,37.960,9.274,2.858,324.400,83.310,21.580,6.400,baseline
1338.000,314.800,62.100,18.410,1087.000,219.100,42.560,10.370,166.000,38.420,9.325,2.887,326.100,83.820,21.760,6.485,baseline
1348.000,317.200,64.510,18.540,1092.000,220.400,43.050,10.390,162.300,38.650,9.394,2.902,328.700,84.710,21.920,6.495,baseline
1357.000,317.200,63.770,18.540,1081.000,218.500,42.350,10.290,167.300,38.820,9.439,2.878,327.800,83.660,21.610,6.404,baseline
1330.000,310.700,63.500,17.870,1076.000,218.000,42.840,10.180,162.500,38.280,9.308,2.853,321.100,82.160,21.240,6.267,baseline
1323.000,309.700,62.690,17.930,1077.000,217.500,42.440,10.200,162.500,38.260,9.289,2.848,320.000,82.280,21.120,6.280,baseline
1322.000,308.500,60.450,17.950,1081.000,218.800,42.540,10.240,162.200,38.030,9.307,2.849,320.700,82.370,21.080,6.288,baseline
1325.000,309.400,63.050,18.050,1079.000,218.100,43.040,10.270,162.800,38.220,9.343,2.843,321.400,81.680,21.090,6.305,baseline
1327.000,312.500,61.300,18.080,1079.000,218.200,42.890,10.220,163.500,38.450,9.276,2.867,321.900,82.530,21.200,6.315,baseline
1333.000,312.000,62.950,18.250,1084.000,219.900,43.840,10.330,164.000,38.420,9.357,2.885,322.900,83.260,21.560,6.375,baseline
1342.000,315.900,64.490,18.310,1087.000,219.400,43.300,10.310,165.100,38.420,9.362,2.900,326.100,84.170,21.750,6.458,baseline
1352.000,318.500,64.820,18.670,1093.000,221.000,43.920,10.450,163.600,38.690,9.374,2.908,327.500,84.680,21.840,6.542,baseline
1360.000,320.400,65.320,18.900,1092.000,221.300,43.760,10.480,164.800,38.600,9.465,2.919,329.400,85.000,22.140,6.611,baseline
1367.000,323.100,65.650,18.760,1088.000,220.600,43.700,10.280,165.400,38.980,9.505,2.924,328.100,84.260,21.720,6.424,baseline
1338.000,313.900,62.590,18.220,1088.000,219.000,42.200,10.240,165.600,38.230,9.327,2.874,323.700,82.490,21.280,6.336,baseline
1331.000,313.500,61.850,18.210,1088.000,218.500,42.610,10.240,163.400,38.370,9.308,2.883,321.500,82.280,21.170,6.328,baseline
1329.000,311.000,62.440,18.150,1080.000,218.800,42.790,10.240,163.700,38.240,9.349,2.858,321.600,82.400,21.310,6.336,baseline
1331.000,312.900,62.410,18.090,1082.000,218.800,42.630,10.240,161.300,38.390,9.338,2.874,322.000,82.500,21.420,6.341,baseline
1331.000,312.600,63.670,18.300,1084.000,219.000,43.740,10.300,162.800,38.370,9.315,2.873,322.600,82.800,21.390,6.364,baseline
1338.000,314.400,62.480,18.450,1081.000,218.800,43.570,10.340,163.100,38.410,9.349,2.890,324.100,83.720,21.640,6.421,baseline
1347.000,318.100,63.220,18.650,1082.000,220.200,43.720,10.350,165.100,38.690,9.393,2.917,326.100,84.180,21.880,6.506,baseline
1356.000,318.500,63.950,18.790,1092.000,221.100,43.650,10.380,165.800,38.680,9.447,2.937,328.900,85.040,21.990,6.570,baseline
1364.000,322.000,65.610,18.960,1098.000,221.400,44.030,10.500,167.100,39.060,9.475,2.927,331.300,85.490,22.220,6.616,baseline
1372.000,324.000,65.970,18.910,1090.000,220.100,43.690,10.310,163.700,39.130,9.479,2.939,329.700,84.640,21.830,6.466,baseline
1342.000,315.900,63.930,18.250,1081.000,218.000,42.930,10.220,163.900,38.580,9.374,2.892,324.100,82.890,21.440,6.343,baseline
1332.000,313.000,62.730,18.200,1082.000,218.400,42.720,10.280,165.500,38.460,9.320,2.898,323.200,82.660,21.330,6.332,baseline
1333.000,312.900,64.100,18.200,1083.000,217.900,43.210,10.270,162.500,38.260,9.383,2.889,323.500,82.970,21.320,6.397,baseline
1334.000,313.500,64.850,18.270,1082.000,219.300,42.350,10.290,162.900,38.300,9.394,2.888,323.200,82.920,21.380,6.383,baseline
1335.000,315.100,62.770,18.360,1085.000,219.000,43.760,10.290,166.700,38.270,9.332,2.892,324.000,83.300,21.440,6.425,baseline
1342.000,315.500,64.190,18.450,1084.000,219.700,42.960,10.350,167.700,38.720,9.393,2.931,325.900,83.630,21.850,6.482,baseline
1351.000,318.600,64.510,18.670,1091.000,221.000,43.500,10.330,164.700,38.810,9.471,2.913,328.000,84.360,22.020,6.536,baseline
1360.000,321.200,64.410,18.930,1087.000,221.000,43.660,10.400,167.700,38.890,9.517,2.934,329.700,85.150,22.130,6.627,baseline
1368.000,323.400,64.210,19.130,1091.000,221.800,44.290,10.440,164.200,38.800,9.486,2.936,333.100,86.180,22.390,6.697,baseline
1376.000,326.800,66.440,19.040,1096.000,220.000,43.230,10.310,167.200,39.100,9.508,2.946,331.200,85.000,21.950,6.553,baseline
1346.000,317.200,64.270,18.280,1078.000,218.600,42.610,10.240,163.800,38.650,9.389,2.901,324.700,83.080,21.510,6.367,baseline
1336.000,314.500,62.950,18.340,1084.000,219.400,43.280,10.270,163.400,38.370,9.312,2.906,322.800,83.280,21.350,6.387,baseline
1337.000,314.800,63.150,18.340,1083.000,218.600,42.970,10.250,164.400,38.360,9.351,2.889,324.700,83.160,21.670,6.425,baseline
1339.000,316.100,64.170,18.300,1083.000,218.800,42.940,10.260,164.600,38.490,9.391,2.890,324.200,82.820,21.530,6.422,baseline
1340.000,314.800,65.450,18.440,1084.000,218.800,43.520,10.280,163.000,38.340,9.356,2.896,325.300,83.770,21.610,6.467,baseline
1346.000,316.100,65.050,18.570,1091.000,220.400,43.040,10.330,165.000,38.610,9.438,2.903,327.600,84.210,21.860,6.535,baseline
1355.000,318.700,63.070,18.740,1091.000,220.700,43.230,10.390,164.100,38.770,9.427,2.924,329.100,84.880,22.090,6.586,baseline
1364.000,321.000,66.750,19.030,1092.000,221.400,43.600,10.470,167.300,38.760,9.494,2.952,331.600,85.350,22.200,6.668,baseline
1372.000,322.000,64.970,19.200,1090.000,221.100,43.870,10.460,168.200,38.880,9.517,2.957,333.300,86.030,22.510,6.710,baseline
1376.000,325.500,64.900,18.960,1089.000,219.500,43.670,10.300,166.900,39.110,9.537,2.957,330.100,84.890,21.860,6.523,baseline
1342.000,315.400,63.970,18.410,1079.000,217.800,43.210,10.250,163.000,38.460,9.328,2.891,323.800,83.360,21.550,6.412,baseline
1335.000,312.100,62.480,18.300,1079.000,218.500,43.120,10.280,165.000,38.420,9.285,2.910,323.900,83.100,21.410,6.444,baseline
1336.000,315.200,63.130,18.440,1084.000,218.700,42.900,10.280,164.600,38.500,9.415,2.893,325.900,83.310,21.650,6.436,baseline
1336.000,313.600,64.990,18.360,1079.000,218.600,43.200,10.290,164.200,38.160,9.358,2.908,324.800,83.230,21.580,6.399,baseline
1338.000,315.500,64.720,18.380,1080.000,218.200,43.390,10.260,163.900,38.310,9.389,2.915,325.800,83.900,21.800,6.497,baseline
1344.000,318.000,64.920,18.710,1086.000,219.300,43.610,10.330,166.900,38.500,9.412,2.910,326.800,84.210,21.950,6.577,baseline
1353.000,317.000,66.410,18.770,1086.000,220.600,43.540,10.370,164.700,38.670,9.481,2.943,329.900,84.900,22.180,6.642,baseline
1362.000,323.500,65.060,19.080,1086.000,221.400,43.210,10.430,166.100,38.610,9.475,2.942,331.400,85.910,22.400,6.739,baseline
1370.000,324.600,66.150,19.280,1090.000,221.100,43.090,10.390,166.500,38.700,9.519,2.938,333.600,86.320,22.480,6.678,baseline
1356.000,320.100,65.090,18.620,1077.000,218.400,42.810,10.230,165.200,38.680,9.428,2.914,326.400,83.470,21.600,6.435,baseline
1334.000,311.900,62.320,18.300,1079.000,218.000,43.150,10.220,162.800,37.850,9.329,2.896,323.300,83.250,21.530,6.413,baseline
1333.000,311.900,61.810,18.300,1075.000,218.300,43.580,10.240,164.000,38.330,9.320,2.910,324.700,83.340,21.610,6.453,baseline
1337.000,313.700,63.710,18.430,1077.000,217.800,42.690,10.280,161.800,38.220,9.375,2.903,324.500,83.290,21.630,6.424,baseline
1333.000,313.200,63.450,18.380,1077.000,217.700,43.440,10.300,162.500,38.400,9.317,2.914,324.300,83.680,21.640,6.479,baseline
1337.000,315.000,62.550,18.480,1077.000,218.000,43.160,10.300,162.700,38.350,9.339,2.896,326.100,83.800,21.870,6.511,baseline
1344.000,317.700,64.350,18.690,1080.000,218.600,42.910,10.320,164.900,38.390,9.407,2.913,328.000,84.740,21.900,6.576,baseline
1351.000,318.400,65.460,18.780,1089.000,219.700,43.660,10.400,166.500,38.500,9.425,2.907,328.900,84.910,22.100,6.649,baseline
1360.000,320.400,66.640,18.930,1080.000,219.700,42.950,10.320,165.500,38.750,9.438,2.918,330.200,85.050,21.980,6.518,baseline
1336.000,313.300,62.550,18.310,1071.000,216.500,42.420,10.180,164.900,38.150,9.358,2.898,322.700,82.990,21.450,6.403,baseline
1325.000,311.000,64.280,18.250,1076.000,217.600,42.850,10.200,163.800,38.090,9.271,2.887,323.000,82.720,21.510,6.450,baseline
1330.000,311.400,63.940,18.350,1078.000,218.100,42.790,10.240,163.400,38.260,9.297,2.915,324.800,83.460,21.630,6.485,baseline
1332.000,312.100,63.830,18.340,1073.000,216.800,41.990,10.230,163.300,38.050,9.343,2.908,323.200,83.290,21.400,6.437,baseline
1331.000,313.100,63.510,18.260,1073.000,217.100,43.090,10.240,162.200,37.970,9.254,2.924,324.900,83.110,21.710,6.516,baseline
1335.000,315.600,63.810,18.580,1078.000,217.300,43.170,10.310,162.900,37.970,9.286,2.899,326.800,83.950,21.920,6.535,baseline
1343.000,316.900,63.080,18.690,1075.000,218.400,43.770,10.370,165.000,38.230,9.447,2.929,328.200,84.770,21.950,6.615,baseline
1351.000,319.700,65.280,18.740,1078.000,217.500,43.200,10.270,165.900,38.510,9.431,2.941,329.000,84.290,21.730,6.478,baseline
1326.000,310.400,62.020,18.060,1067.000,215.500,42.290,10.170,164.000,38.000,9.327,2.866,319.900,82.020,21.280,6.316,baseline
1313.000,308.600,61.870,17.970,1064.000,214.900,42.110,10.140,162.400,37.620,9.271,2.869,320.400,81.960,21.200,6.351,baseline
1314.000,310.800,63.070,17.950,1067.000,216.500,41.970,10.210,160.800,37.870,9.261,2.884,321.000,82.090,21.260,6.396,baseline
1314.000,310.600,61.660,17.980,1067.000,215.500,42.300,10.120,161.900,37.660,9.258,2.868,321.400,81.990,21.250,6.359,baseline
1311.000,308.600,61.410,18.030,1066.000,215.400,42.600,10.150,163.600,37.870,9.232,2.888,320.800,82.550,21.400,6.365,baseline
1318.000,310.500,63.000,18.140,1066.000,216.400,43.140,10.180,164.200,37.760,9.313,2.869,322.100,82.690,21.540,6.427,baseline
1326.000,310.400,63.520,18.390,1074.000,217.300,43.100,10.280,161.900,37.920,9.291,2.916,325.000,83.820,21.760,6.512,baseline
1332.000,312.900,63.160,18.300,1065.000,215.200,42.880,10.140,162.400,38.010,9.325,2.881,323.600,82.650,21.520,6.311,baseline
1302.000,304.100,61.060,17.520,1061.000,213.800,42.380,10.000,162.100,37.650,9.204,2.836,315.200,80.400,20.840,6.196,baseline
1287.000,301.900,59.250,17.450,1051.000,213.600,41.790,10.010,159.600,37.240,9.179,2.826,314.100,80.170,20.760,6.187,baseline
1282.000,300.700,60.400,17.520,1051.000,212.900,41.490,10.040,157.500,37.130,9.133,2.846,314.900,80.380,20.920,6.236,baseline
1282.000,298.900,59.450,17.380,1051.000,212.200,41.780,10.020,158.700,37.360,9.102,2.823,313.200,80.040,20.700,6.183,baseline
1281.000,302.100,59.720,17.550,1050.000,212.700,41.770,10.070,159.200,37.090,9.110,2.822,314.400,80.170,20.840,6.221,baseline
1285.000,302.100,60.690,17.560,1051.000,213.400,42.620,10.110,160.300,37.450,9.155,2.854,316.500,80.860,20.990,6.288,baseline
1293.000,302.800,61.400,17.760,1056.000,215.100,41.870,10.130,162.100,37.510,9.197,2.854,317.900,81.230,21.250,6.302,baseline
1301.000,307.000,61.370,17.970,1058.000,213.800,41.780,10.060,159.800,37.650,9.231,2.865,319.600,81.310,21.110,6.256,baseline
1279.000,298.300,59.040,17.010,1045.000,209.900,41.620,9.897,159.300,37.320,9.077,2.801,310.900,78.630,20.340,6.055,baseline
1257.000,293.500,58.400,16.910,1039.000,211.000,41.590,9.861,157.600,36.740,9.010,2.790,308.300,78.260,20.310,5.986,baseline
1250.000,292.500,57.560,16.830,1038.000,209.700,41.270,9.904,155.400,36.510,8.967,2.781,306.400,78.210,20.330,6.023,baseline
1250.000,291.400,57.320,16.860,1040.000,209.200,41.230,9.894,156.700,36.830,8.987,2.793,307.000,77.970,20.210,5.950,baseline
1246.000,292.000,57.920,16.890,1040.000,209.700,40.870,9.914,157.500,36.720,8.968,2.794,306.400,77.760,20.190,6.022,baseline
1249.000,292.500,57.620,16.940,1042.000,209.700,41.180,9.940,156.400,36.750,8.994,2.805,307.200,78.660,20.380,6.092,baseline
1257.000,293.400,59.900,17.140,1045.000,210.800,41.220,9.995,159.700,36.890,9.060,2.799,310.400,79.370,20.550,6.140,baseline
1265.000,295.200,60.220,17.400,1047.000,212.000,41.350,10.040,158.800,36.780,9.045,2.813,312.500,79.950,20.780,6.225,baseline
1274.000,297.800,58.840,17.220,1042.000,211.500,40.870,9.876,157.100,37.220,9.157,2.819,311.900,79.070,20.430,6.017,baseline
1244.000,289.000,56.090,16.530,1034.000,208.400,40.570,9.797,158.200,36.610,8.898,2.757,303.200,76.760,19.820,5.842,baseline
1227.000,284.800,56.990,16.430,1029.000,208.000,39.960,9.771,154.200,36.240,8.884,2.766,301.000,76.300,19.680,5.845,baseline
1223.000,284.400,55.840,16.340,1030.000,208.400,40.940,9.800,157.700,35.950,8.888,2.765,302.200,76.140,19.800,5.884,baseline
1223.000,283.500,55.520,16.350,1028.000,207.700,40.720,9.795,156.800,36.250,8.852,2.744,302.200,75.960,19.700,5.862,baseline
1222.000,285.900,55.870,16.450,1034.000,208.800,41.530,9.769,156.800,36.180,8.904,2.744,302.800,76.320,19.840,5.878,baseline
1229.000,286.800,55.790,16.640,1034.000,208.300,41.460,9.825,155.800,36.430,8.903,2.762,304.100,76.980,19.880,5.924,baseline
1237.000,289.100,57.710,16.830,1039.000,209.800,40.860,9.913,156.200,36.540,8.975,2.790,304.900,77.480,20.020,5.993,baseline
1246.000,290.800,57.390,16.830,1040.000,211.500,40.880,9.958,157.900,36.630,9.010,2.793,307.800,78.310,20.340,6.088,baseline
1256.000,293.700,58.900,17.060,1047.000,210.400,42.180,9.894,160.500,36.840,9.034,2.806,310.200,78.590,20.290,6.022,baseline
1237.000,288.600,56.510,16.430,1032.000,206.900,40.000,9.779,156.500,36.250,8.967,2.741,300.300,75.730,19.480,5.803,baseline
1215.000,281.400,56.460,16.260,1033.000,206.600,40.410,9.771,156.300,35.990,8.836,2.710,298.500,75.280,19.340,5.719,baseline
1211.000,282.100,57.100,16.190,1029.000,207.300,40.740,9.706,154.200,36.130,8.814,2.723,297.700,75.480,19.550,5.762,baseline
1211.000,280.300,55.520,16.210,1028.000,207.400,40.270,9.760,153.300,36.040,8.760,2.732,297.200,75.040,19.310,5.747,baseline
1210.000,282.900,55.820,16.180,1023.000,207.500,40.760,9.807,153.200,35.780,8.804,2.727,297.400,74.930,19.460,5.759,baseline
1214.000,284.000,55.570,16.310,1027.000,208.200,40.440,9.806,155.400,36.110,8.821,2.741,298.800,75.750,19.520,5.826,baseline
1221.000,283.800,55.270,16.470,1031.000,208.000,40.750,9.874,155.400,36.320,8.862,2.728,301.400,76.380,19.760,5.881,baseline
1230.000,287.900,57.940,16.690,1037.000,209.600,40.740,9.949,153.900,36.220,8.888,2.767,304.100,76.830,20.000,5.944,baseline
1238.000,287.100,57.140,16.630,1032.000,208.800,40.880,9.770,155.400,36.160,8.922,2.780,302.400,76.000,19.580,5.762,baseline
1213.000,282.700,54.990,16.070,1026.000,206.500,39.890,9.745,154.700,36.080,8.702,2.711,295.500,74.410,19.140,5.660,baseline
1203.000,281.800,56.130,16.070,1022.000,206.800,40.150,9.743,154.800,35.800,8.748,2.706,295.800,74.220,19.150,5.636,baseline
1207.000,283.200,56.230,16.140,1027.000,207.700,41.060,9.749,152.600,35.850,8.834,2.724,296.300,74.780,19.210,5.705,baseline
1207.000,282.300,56.240,16.090,1028.000,207.300,40.080,9.802,156.700,35.850,8.714,2.713,295.700,74.270,19.150,5.674,baseline
1208.000,282.500,56.100,16.220,1029.000,207.600,40.540,9.857,153.900,35.980,8.815,2.718,296.700,74.600,19.370,5.729,baseline
1216.000,283.100,55.680,16.390,1029.000,208.300,39.920,9.863,152.500,36.100,8.817,2.730,299.300,75.470,19.370,5.810,baseline
1226.000,284.800,57.120,16.510,1035.000,209.700,41.000,9.893,153.700,35.940,8.826,2.747,301.200,75.910,19.520,5.814,baseline
1235.000,287.500,58.450,16.790,1035.000,208.600,41.060,9.821,153.800,36.320,8.849,2.748,301.700,75.700,19.540,5.728,baseline
1215.000,281.700,55.480,16.080,1028.000,206.500,40.180,9.761,154.600,35.940,8.735,2.679,293.400,73.740,18.830,5.586,baseline
1199.000,279.400,54.410,16.060,1024.000,206.800,40.930,9.770,156.800,35.270,8.666,2.666,292.500,73.380,18.880,5.582,baseline
1200.000,279.400,54.670,16.080,1025.000,206.300,40.520,9.766,155.000,35.920,8.727,2.688,292.500,73.890,19.040,5.582,baseline
1205.000,279.400,54.260,16.060,1028.000,206.100,40.030,9.783,156.000,35.480,8.695,2.698,293.400,73.540,18.970,5.592,baseline
1206.000,283.800,55.510,16.180,1026.000,208.200,41.120,9.823,153.200,35.950,8.684,2.680,294.600,73.770,19.020,5.625,baseline
1212.000,285.500,55.030,16.390,1031.000,208.400,40.700,9.872,154.500,35.820,8.700,2.714,296.200,74.320,19.200,5.659,baseline
1224.000,285.800,56.030,16.640,1037.000,208.700,40.710,9.937,154.600,36.120,8.787,2.738,297.400,75.120,19.390,5.755,baseline
1234.000,287.900,57.250,16.800,1043.000,209.500,41.380,9.930,157.800,35.920,8.869,2.742,300.300,75.610,19.460,5.729,baseline
1221.000,283.700,57.440,16.120,1022.000,206.800,40.620,9.749,154.700,35.940,8.743,2.681,291.300,73.150,18.610,5.488,baseline
1198.000,279.300,54.780,15.870,1022.000,207.100,40.740,9.698,155.400,35.390,8.600,2.665,288.500,72.390,18.430,5.437,baseline
1195.000,278.600,56.050,15.910,1023.000,206.700,41.130,9.748,151.800,35.430,8.607,2.657,289.900,71.800,18.370,5.468,baseline
1198.000,279.200,54.700,16.070,1027.000,206.600,40.550,9.710,154.900,35.230,8.617,2.670,288.600,71.950,18.470,5.435,baseline
1197.000,279.700,55.260,16.040,1023.000,207.300,40.850,9.759,151.600,35.300,8.574,2.653,289.600,71.970,18.510,5.433,baseline
1203.000,282.700,55.250,16.190,1029.000,207.700,41.080,9.856,151.500,35.330,8.632,2.671,290.400,72.710,18.680,5.554,baseline
1213.000,284.700,55.990,16.440,1032.000,209.300,41.320,9.893,152.900,35.370,8.701,2.680,292.600,73.270,18.840,5.622,baseline
1224.000,286.400,55.500,16.600,1038.000,209.000,41.040,9.936,150.600,35.840,8.709,2.699,295.500,74.000,19.070,5.659,baseline
1234.000,290.000,56.670,16.710,1035.000,208.800,41.390,9.776,156.900,35.960,8.757,2.694,294.400,73.280,18.700,5.451,baseline
1207.000,282.200,54.270,15.960,1025.000,206.600,40.310,9.708,153.600,35.280,8.589,2.666,285.700,70.860,18.160,5.297,baseline
1193.000,277.000,55.450,15.900,1024.000,205.700,39.320,9.662,151.000,34.920,8.581,2.616,284.300,70.350,18.040,5.282,baseline
1190.000,278.500,54.230,15.870,1017.000,206.200,40.800,9.709,152.200,35.160,8.471,2.636,284.900,70.430,18.160,5.307,baseline
1193.000,281.100,54.410,15.890,1025.000,207.400,39.760,9.681,151.800,35.230,8.515,2.637,284.000,70.400,18.010,5.305,baseline
1195.000,278.200,55.880,16.010,1025.000,207.800,39.650,9.739,154.700,35.270,8.571,2.645,283.600,70.640,18.190,5.334,baseline
1202.000,282.000,55.210,16.210,1025.000,208.500,40.540,9.817,153.800,35.270,8.561,2.635,286.700,71.590,18.390,5.419,baseline
1212.000,284.500,56.450,16.420,1026.000,208.900,40.870,9.842,150.600,35.480,8.605,2.645,288.800,72.190,18.580,5.442,baseline
1222.000,288.200,56.310,16.530,1031.000,209.500,41.480,9.914,152.800,35.700,8.637,2.672,291.400,72.800,18.770,5.512,baseline
1233.000,289.700,58.320,16.850,1033.000,210.400,40.400,9.903,156.300,35.810,8.639,2.684,293.700,73.350,18.820,5.572,baseline
1229.000,287.200,56.430,16.280,1027.000,206.600,41.560,9.718,155.100,35.680,8.610,2.653,286.800,71.150,18.140,5.281,baseline
1200.000,281.100,55.410,15.910,1021.000,206.600,40.620,9.700,151.800,34.880,8.511,2.621,282.900,69.990,17.840,5.204,baseline
1198.000,281.500,54.330,15.920,1022.000,207.300,40.420,9.782,150.600,34.970,8.465,2.625,282.300,69.420,17.720,5.256,baseline
1199.000,280.500,55.640,15.990,1025.000,207.400,39.920,9.742,153.700,34.910,8.490,2.629,283.000,70.130,17.870,5.213,baseline
1203.000,282.100,55.410,16.140,1022.000,207.400,40.360,9.810,151.300,35.050,8.544,2.639,283.500,70.140,17.880,5.263,baseline
1207.000,285.600,56.300,16.200,1027.000,208.600,40.810,9.829,151.500,35.060,8.529,2.635,284.100,70.310,18.010,5.279,baseline
1219.000,286.400,56.380,16.350,1029.000,208.900,40.950,9.872,155.300,35.180,8.605,2.655,286.400,71.290,18.260,5.373,baseline
1225.000,289.300,57.100,16.600,1035.000,210.800,41.000,9.907,153.400,35.380,8.662,2.663,289.200,72.080,18.600,5.455,baseline
1236.000,292.000,57.820,16.860,1039.000,211.500,41.650,10.000,153.400,35.610,8.656,2.686,291.200,72.610,18.650,5.499,baseline
1247.000,292.800,59.450,16.910,1045.000,211.400,41.850,9.999,153.500,35.700,8.737,2.703,294.300,73.450,18.830,5.558,baseline
1248.000,292.400,57.030,16.680,1033.000,208.600,40.890,9.818,155.700,35.780,8.679,2.689,288.000,71.340,18.180,5.279,baseline
1216.000,285.000,55.740,16.230,1030.000,208.200,40.920,9.781,152.200,35.270,8.501,2.629,284.500,70.140,17.930,5.230,baseline
1215.000,283.900,55.900,16.200,1027.000,209.200,41.120,9.807,153.100,34.680,8.536,2.627,283.300,70.150,17.970,5.214,baseline
1217.000,286.700,56.160,16.340,1030.000,208.500,40.620,9.837,152.700,35.280,8.509,2.636,284.600,70.170,17.890,5.237,baseline
1220.000,287.100,56.440,16.320,1033.000,208.700,40.970,9.832,152.600,35.160,8.549,2.642,284.700,70.380,18.060,5.263,baseline
1224.000,287.700,57.710,16.430,1031.000,209.100,40.740,9.850,151.800,35.250,8.567,2.659,285.700,70.810,18.220,5.369,baseline
1234.000,291.000,58.990,16.710,1043.000,210.500,40.580,9.946,155.400,35.360,8.627,2.663,290.000,71.620,18.420,5.401,baseline
1242.000,291.500,58.360,16.820,1039.000,210.900,41.370,9.991,153.300,35.400,8.678,2.692,290.800,72.220,18.590,5.447,baseline
1252.000,295.300,59.500,16.990,1050.000,211.600,41.450,10.060,153.700,35.400,8.671,2.680,293.400,72.910,18.720,5.508,baseline
1259.000,295.700,59.230,16.880,1037.000,210.200,41.520,9.914,154.300,35.630,8.660,2.679,290.200,71.670,18.210,5.294,baseline
1230.000,287.900,56.810,16.410,1030.000,209.100,41.130,9.832,153.100,35.370,8.563,2.643,285.300,70.550,17.930,5.276,baseline
1229.000,288.500,56.770,16.470,1035.000,209.700,41.450,9.889,152.300,35.070,8.547,2.645,286.900,70.910,18.070,5.292,baseline
1237.000,291.400,56.190,16.650,1037.000,209.900,40.980,9.928,152.600,35.400,8.615,2.658,288.500,71.080,18.130,5.320,baseline
1238.000,289.800,57.510,16.610,1036.000,210.900,41.260,9.947,152.800,35.200,8.601,2.647,288.500,71.250,18.210,5.314,baseline
1241.000,294.200,59.200,16.810,1042.000,211.800,40.730,9.972,151.900,35.490,8.634,2.687,290.000,71.750,18.440,5.414,baseline
1252.000,296.100,56.320,16.900,1046.000,211.100,41.450,10.010,152.000,35.620,8.740,2.689,291.900,72.620,18.600,5.489,baseline
1263.000,297.900,58.250,17.190,1046.000,213.300,41.780,10.060,153.100,35.700,8.746,2.717,295.500,73.630,18.870,5.576,baseline
1273.000,300.100,61.230,17.390,1049.000,212.500,40.720,9.984,154.800,35.740,8.789,2.726,297.000,73.550,18.840,5.520,baseline
1258.000,295.200,59.070,16.710,1042.000,211.100,41.950,9.871,155.800,35.510,8.637,2.659,288.200,71.130,18.000,5.269,baseline
1242.000,293.400,58.030,16.630,1041.000,210.500,40.980,9.919,150.700,35.130,8.613,2.664,288.600,70.770,18.050,5.291,baseline
1242.000,291.300,58.920,16.640,1039.000,211.400,40.760,9.932,153.800,35.510,8.635,2.652,289.600,71.700,18.250,5.367,baseline
1248.000,294.600,56.440,16.740,1041.000,211.200,41.440,9.939,156.100,35.400,8.616,2.686,290.400,71.590,18.250,5.326,baseline
1248.000,292.800,57.560,16.740,1041.000,211.700,41.640,9.977,154.600,35.250,8.670,2.682,291.200,71.990,18.350,5.376,baseline
1256.000,296.600,57.860,16.930,1048.000,211.700,41.280,10.000,152.400,35.730,8.671,2.680,292.300,73.100,18.690,5.482,baseline
1266.000,299.800,59.410,17.010,1046.000,212.100,41.700,10.070,155.200,35.860,8.720,2.720,296.300,73.370,18.820,5.582,baseline
1276.000,299.300,60.040,17.330,1054.000,214.000,41.900,10.140,155.800,36.320,8.808,2.726,299.300,74.720,19.160,5.608,baseline
1283.000,302.700,59.980,17.270,1050.000,212.600,41.560,9.941,158.300,36.150,8.779,2.726,296.900,73.480,18.630,5.418,baseline
1253.000,292.400,58.420,16.580,1041.000,210.000,40.920,9.863,155.000,35.480,8.656,2.661,289.800,71.510,18.200,5.333,baseline
1244.000,290.800,57.600,16.540,1041.000,210.200,41.450,9.854,151.200,35.380,8.641,2.665,290.400,71.120,18.250,5.308,baseline
1244.000,291.200,57.530,16.620,1039.000,210.800,41.360,9.888,150.100,35.340,8.668,2.657,290.300,71.650,18.280,5.388,baseline
1247.000,292.700,58.500,16.560,1044.000,210.300,40.760,9.888,156.600,35.440,8.612,2.675,291.200,71.840,18.350,5.353,baseline
1248.000,292.900,59.190,16.620,1043.000,211.300,41.210,9.918,151.400,35.550,8.694,2.688,293.100,72.290,18.400,5.399,baseline
1257.000,294.600,58.860,16.870,1042.000,212.600,41.420,9.899,152.300,35.730,8.728,2.691,293.700,72.800,18.710,5.482,baseline
1265.000,296.800,59.160,17.000,1052.000,212.000,41.790,10.020,155.500,35.970,8.764,2.712,297.900,73.980,18.880,5.541,baseline
1274.000,299.400,58.100,17.140,1047.000,213.100,41.610,10.110,158.000,36.210,8.837,2.749,300.200,74.570,19.080,5.655,baseline
1283.000,301.600,59.650,17.270,1050.000,210.900,41.620,9.964,153.300,35.900,8.853,2.757,300.200,74.260,18.910,5.503,baseline
1257.000,294.300,56.490,16.430,1038.000,209.800,41.000,9.839,155.900,35.910,8.696,2.687,291.800,71.730,18.240,5.360,baseline
1242.000,290.000,56.760,16.420,1037.000,209.300,41.010,9.804,153.100,35.510,8.663,2.684,290.800,71.740,18.330,5.335,baseline
1240.000,291.100,56.850,16.400,1039.000,207.500,40.780,9.854,155.700,35.530,8.645,2.692,293.100,72.140,18.430,5.380,baseline
1243.000,289.400,56.750,16.410,1038.000,208.600,40.750,9.874,155.000,35.540,8.670,2.704,292.500,72.170,18.400,5.418,baseline
1244.000,288.500,56.930,16.450,1040.000,209.100,40.900,9.899,155.700,35.550,8.650,2.677,293.300,72.490,18.560,5.450,baseline
1251.000,291.900,58.460,16.560,1047.000,210.000,40.780,9.952,153.900,35.930,8.768,2.712,295.400,73.270,18.760,5.520,baseline
1261.000,293.200,58.720,16.800,1047.000,210.200,41.100,9.998,155.100,36.130,8.795,2.732,298.100,74.250,19.110,5.607,baseline
1271.000,296.400,59.800,17.130,1055.000,211.100,41.030,10.060,158.400,36.330,8.828,2.748,301.100,74.730,19.180,5.652,baseline
1281.000,299.300,59.110,17.280,1051.000,212.600,40.590,10.000,154.300,36.370,8.940,2.779,302.600,75.780,19.270,5.647,baseline
1272.000,295.600,57.970,16.720,1038.000,208.700,41.370,9.863,155.600,36.290,8.824,2.726,295.400,73.070,18.560,5.405,baseline
1243.000,289.200,55.770,16.340,1033.000,208.100,40.830,9.811,154.700,35.490,8.690,2.682,292.600,72.270,18.400,5.399,baseline
1239.000,287.600,56.140,16.350,1037.000,207.900,40.780,9.761,156.100,35.470,8.692,2.686,294.000,72.470,18.500,5.445,baseline
1241.000,289.500,57.430,16.390,1038.000,207.900,40.890,9.837,156.400,35.450,8.762,2.719,294.600,72.710,18.460,5.396,baseline
1241.000,289.000,57.040,16.370,1030.000,207.400,41.200,9.841,156.100,35.950,8.707,2.703,293.500,72.330,18.550,5.442,baseline
1244.000,289.300,56.700,16.490,1037.000,208.200,40.790,9.885,155.700,35.970,8.747,2.712,295.800,73.340,18.710,5.514,baseline
1253.000,292.000,57.350,16.660,1040.000,210.400,41.020,10.000,155.500,35.880,8.813,2.736,297.900,73.560,19.010,5.607,baseline
1263.000,294.700,58.950,16.860,1046.000,210.100,41.800,9.994,159.300,35.840,8.768,2.747,300.200,74.710,19.220,5.694,baseline
1272.000,296.200,59.720,17.040,1051.000,210.800,41.820,10.040,156.900,36.390,8.867,2.781,303.500,75.720,19.540,5.733,baseline
1276.000,297.200,58.770,16.770,1039.000,208.800,40.080,9.832,154.700,36.320,8.890,2.744,300.300,74.030,18.860,5.498,baseline
1243.000,287.800,57.890,16.350,1033.000,207.100,41.370,9.818,155.100,35.580,8.716,2.694,293.600,72.580,18.560,5.460,baseline
1236.000,286.100,57.000,16.300,1033.000,207.700,41.230,9.818,156.400,35.570,8.709,2.709,293.500,72.750,18.530,5.474,baseline
1238.000,286.100,56.410,16.290,1032.000,207.700,41.130,9.845,154.700,35.710,8.727,2.718,294.800,73.060,18.710,5.478,baseline
1237.000,289.400,55.950,16.340,1034.000,207.400,40.950,9.867,154.500,35.660,8.718,2.713,295.400,73.180,18.690,5.464,baseline
1239.000,288.100,56.150,16.350,1039.000,207.300,41.160,9.893,156.300,35.940,8.712,2.729,296.300,73.580,18.750,5.509,baseline
1245.000,289.000,56.880,16.520,1039.000,208.100,41.490,9.958,157.400,35.850,8.791,2.740,298.700,74.310,19.040,5.585,baseline
1254.000,292.300,57.670,16.730,1045.000,209.600,40.890,10.020,155.000,36.290,8.882,2.750,301.300,74.830,19.280,5.673,baseline
1265.000,293.200,58.500,16.890,1046.000,210.200,41.050,9.959,157.300,36.300,8.869,2.764,302.700,75.190,19.120,5.625,baseline
1254.000,290.300,58.250,16.410,1035.000,207.800,40.350,9.842,157.800,36.000,8.750,2.720,295.700,73.110,18.570,5.431,baseline
1233.000,287.100,56.310,16.180,1032.000,207.200,39.990,9.806,154.800,35.550,8.716,2.702,295.800,72.910,18.560,5.474,baseline
1234.000,286.400,56.490,16.380,1035.000,207.900,39.900,9.873,154.400,35.850,8.740,2.715,297.100,73.690,18.890,5.547,baseline
1238.000,287.300,56.490,16.350,1029.000,207.500,40.680,9.854,154.300,35.990,8.743,2.719,297.000,73.460,18.740,5.496,baseline
1238.000,285.500,56.590,16.430,1033.000,208.600,41.320,9.895,154.000,35.840,8.730,2.734,296.700,73.760,18.920,5.563,baseline
1242.000,289.500,57.680,16.660,1039.000,209.400,41.160,10.000,155.000,36.110,8.835,2.731,299.700,74.410,19.110,5.648,baseline
1253.000,290.700,58.730,16.810,1037.000,209.700,41.620,10.070,156.500,36.130,8.846,2.750,301.700,75.250,19.350,5.718,baseline
1262.000,295.200,57.740,17.010,1044.000,210.200,41.370,9.954,159.200,36.420,8.920,2.764,304.300,75.650,19.360,5.702,baseline
1252.000,290.900,57.680,16.470,1036.000,207.700,40.780,9.842,156.100,36.200,8.752,2.715,296.500,73.210,18.640,5.461,baseline
1230.000,285.200,55.410,16.140,1026.000,207.600,40.060,9.805,152.800,35.430,8.716,2.711,294.800,72.590,18.680,5.436,baseline
1229.000,286.100,55.630,16.310,1033.000,208.300,40.600,9.898,156.200,35.900,8.702,2.714,295.700,73.250,18.740,5.541,baseline
1232.000,287.100,55.510,16.420,1032.000,208.600,40.940,9.860,154.700,36.080,8.721,2.724,296.100,73.250,18.760,5.492,baseline
1232.000,287.300,56.520,16.240,1032.000,208.700,40.250,9.879,155.300,35.730,8.779,2.717,296.000,73.410,18.740,5.534,baseline
1237.000,287.200,56.000,16.430,1037.000,208.700,41.220,9.961,157.600,35.810,8.811,2.734,298.600,74.200,19.020,5.600,baseline
1245.000,289.300,58.420,16.670,1038.000,210.000,40.860,10.010,156.300,35.910,8.826,2.743,301.000,74.770,19.120,5.686,baseline
1255.000,289.400,57.040,16.890,1047.000,210.200,41.200,10.010,154.800,36.460,8.853,2.781,302.300,75.370,19.280,5.653,baseline
1246.000,287.300,56.680,16.320,1031.000,207.600,40.370,9.833,158.300,36.270,8.889,2.703,294.800,72.630,18.540,5.421,baseline
1219.000,283.000,54.710,16.080,1028.000,206.400,40.880,9.834,154.700,35.720,8.753,2.705,292.500,72.270,18.440,5.366,baseline
1216.000,282.300,55.520,16.040,1026.000,207.100,40.580,9.841,154.500,35.670,8.679,2.695,292.100,72.310,18.410,5.456,baseline
1216.000,281.800,54.790,16.130,1028.000,206.200,40.250,9.872,151.900,35.520,8.662,2.698,293.500,72.480,18.440,5.414,baseline
1216.000,285.400,55.560,16.070,1028.000,206.400,40.800,9.839,154.100,35.660,8.640,2.711,292.000,72.380,18.530,5.439,baseline
1219.000,282.500,55.010,16.190,1033.000,207.400,40.000,9.924,152.100,35.730,8.805,2.714,294.500,72.910,18.780,5.462,baseline
1227.000,286.500,55.410,16.410,1032.000,208.500,40.810,9.959,153.800,35.650,8.777,2.733,296.400,73.820,18.980,5.584,baseline
1237.000,290.600,56.910,16.720,1034.000,209.600,41.480,10.040,153.800,36.250,8.828,2.750,299.100,74.360,19.150,5.631,baseline
1240.000,287.400,57.310,16.340,1027.000,207.000,40.990,9.831,157.900,35.960,8.760,2.733,292.600,72.460,18.520,5.371,baseline
1209.000,279.800,52.650,15.800,1026.000,206.300,40.080,9.773,154.600,35.510,8.670,2.694,287.000,71.290,18.210,5.321,baseline
1201.000,277.900,54.600,15.820,1016.000,206.100,40.410,9.779,152.400,35.170,8.634,2.669,287.500,70.940,18.250,5.355,baseline
1201.000,278.400,53.350,15.870,1022.000,205.100,40.490,9.793,152.300,35.370,8.616,2.681,288.300,71.300,18.170,5.311,baseline
1201.000,279.900,54.110,15.870,1017.000,206.200,40.620,9.809,155.000,35.580,8.663,2.675,288.100,70.940,18.210,5.307,baseline
1202.000,281.800,54.140,15.930,1021.000,206.100,40.880,9.840,152.500,35.440,8.593,2.663,289.500,71.600,18.420,5.385,baseline
1210.000,283.400,55.620,16.110,1023.000,207.200,40.670,9.918,153.600,35.540,8.720,2.703,291.100,72.510,18.640,5.487,baseline
1220.000,283.200,54.750,16.300,1032.000,208.100,41.680,9.994,154.700,35.810,8.778,2.746,293.600,72.910,18.740,5.530,baseline
1229.000,286.600,54.740,16.480,1032.000,208.800,41.150,9.962,155.300,35.790,8.745,2.767,296.000,73.530,18.890,5.558,baseline
1227.000,283.500,54.510,16.150,1029.000,207.100,40.000,9.849,154.900,35.920,8.736,2.694,289.400,71.140,18.110,5.319,baseline
1198.000,276.800,54.190,15.700,1020.000,205.800,39.750,9.801,154.100,35.320,8.568,2.661,285.100,70.260,17.890,5.232,baseline
1193.000,276.400,55.040,15.680,1019.000,206.100,39.670,9.778,152.700,35.170,8.546,2.649,284.800,69.970,17.850,5.231,baseline
1193.000,276.900,54.810,15.740,1017.000,205.500,39.640,9.776,153.200,35.340,8.646,2.654,284.700,70.230,18.010,5.285,baseline
1193.000,276.900,55.490,15.800,1017.000,206.400,40.610,9.791,149.900,35.260,8.619,2.673,284.500,70.240,17.870,5.272,baseline
1196.000,278.800,54.940,15.920,1026.000,207.000,40.240,9.911,157.100,35.310,8.676,2.679,284.800,70.690,18.070,5.291,baseline
1204.000,280.700,54.470,16.100,1025.000,207.000,41.310,9.938,149.500,35.390,8.712,2.688,287.900,71.460,18.240,5.378,baseline
1213.000,280.400,55.850,16.350,1035.000,208.400,41.560,9.996,155.500,35.660,8.699,2.699,290.000,71.710,18.510,5.415,baseline
1223.000,284.400,54.850,16.510,1041.000,208.800,41.260,9.969,153.200,35.720,8.782,2.727,291.000,72.910,18.710,5.519,baseline
1231.000,287.100,56.440,16.450,1032.000,208.700,40.620,9.935,154.100,35.700,8.834,2.746,294.300,72.530,18.380,5.378,baseline
1211.000,281.900,54.610,15.820,1025.000,205.700,40.940,9.830,153.100,35.160,8.646,2.676,284.000,69.770,17.790,5.203,baseline
1195.000,277.800,53.630,15.740,1020.000,206.000,40.250,9.842,152.500,35.070,8.574,2.651,282.000,69.590,17.660,5.166,baseline
1192.000,278.300,54.260,15.810,1025.000,206.600,40.400,9.836,153.300,34.980,8.597,2.667,282.000,69.750,17.920,5.192,baseline
1195.000,278.500,54.900,15.750,1027.000,206.600,40.070,9.851,152.500,35.000,8.552,2.660,282.200,69.610,17.830,5.179,baseline
1195.000,278.300,55.150,15.810,1022.000,206.300,40.680,9.890,152.500,35.310,8.603,2.671,283.800,69.730,17.900,5.240,baseline
1203.000,280.700,53.850,16.040,1031.000,208.900,41.160,9.945,152.200,35.590,8.587,2.692,285.000,70.570,18.040,5.325,baseline
1214.000,283.300,55.810,16.250,1034.000,208.700,41.600,9.969,150.900,35.370,8.679,2.713,286.900,71.200,18.260,5.358,baseline
1224.000,284.300,55.850,16.430,1038.000,210.300,40.840,10.060,156.700,35.790,8.755,2.725,288.900,72.080,18.420,5.428,baseline
1229.000,287.400,56.740,16.320,1032.000,207.900,40.810,9.879,152.800,35.770,8.764,2.700,288.200,70.770,18.040,5.239,baseline
1202.000,277.400,55.240,15.820,1020.000,207.200,40.290,9.837,154.200,35.430,8.588,2.653,281.700,69.150,17.640,5.117,baseline
1193.000,278.100,53.780,15.660,1022.000,206.400,40.470,9.840,152.100,35.100,8.528,2.669,280.500,69.060,17.620,5.177,baseline
1194.000,278.900,54.210,15.820,1025.000,207.100,40.590,9.801,150.100,35.170,8.601,2.672,281.500,69.400,17.750,5.166,baseline
1194.000,277.500,54.830,15.800,1027.000,206.800,40.640,9.846,151.000,34.990,8.599,2.672,281.200,69.490,17.770,5.190,baseline
1198.000,280.200,54.690,15.820,1029.000,207.600,40.590,9.910,149.300,35.180,8.554,2.673,282.700,69.640,17.770,5.213,baseline
1205.000,283.400,55.070,16.100,1034.000,208.200,41.510,9.973,149.700,35.420,8.678,2.690,284.200,70.710,17.990,5.311,baseline
1215.000,284.300,56.090,16.220,1038.000,209.300,41.410,10.020,154.800,35.470,8.757,2.683,286.700,71.280,18.190,5.353,baseline
1226.000,286.500,57.240,16.390,1034.000,208.200,41.720,9.945,155.500,35.530,8.714,2.707,285.600,70.910,18.120,5.244,baseline
1205.000,281.100,56.560,15.850,1032.000,207.300,40.550,9.827,153.200,35.270,8.611,2.648,280.800,69.110,17.520,5.121,baseline
1197.000,278.400,55.770,15.850,1029.000,206.700,40.810,9.891,150.600,35.060,8.600,2.649,280.000,69.300,17.660,5.157,baseline
1203.000,281.600,55.650,16.010,1027.000,208.200,40.960,9.892,153.300,35.420,8.606,2.698,282.200,69.840,17.820,5.212,baseline
1205.000,280.200,55.410,16.000,1032.000,207.800,40.620,9.892,154.100,35.130,8.642,2.679,282.000,69.700,17.840,5.215,baseline
1208.000,281.900,54.510,16.100,1032.000,208.400,41.540,9.937,154.100,35.420,8.621,2.696,283.300,69.910,17.990,5.253,baseline
1215.000,284.500,55.560,16.280,1040.000,209.600,41.800,9.963,153.200,35.600,8.704,2.702,286.300,70.880,18.170,5.337,baseline
1225.000,288.200,57.640,16.450,1041.000,209.900,41.970,10.050,153.100,35.560,8.735,2.729,287.600,71.830,18.460,5.387,baseline
1236.000,290.900,56.470,16.610,1046.000,210.500,41.360,9.969,154.500,35.990,8.806,2.742,290.000,71.550,18.290,5.333,baseline
1217.000,283.200,54.910,15.960,1030.000,207.600,40.970,9.827,152.700,35.800,8.624,2.689,281.100,69.220,17.590,5.151,baseline
1199.000,280.000,56.010,15.850,1030.000,207.100,40.830,9.877,152.400,35.140,8.609,2.657,279.900,69.100,17.560,5.145,baseline
1202.000,280.000,55.140,15.880,1032.000,208.400,41.230,9.901,152.200,35.540,8.605,2.682,281.500,69.610,17.830,5.188,baseline
1205.000,282.800,54.140,15.940,1030.000,208.800,40.610,9.849,153.300,35.420,8.671,2.714,281.200,69.330,17.750,5.159,baseline
1204.000,280.700,55.410,16.100,1028.000,208.800,41.110,9.877,155.500,35.530,8.654,2.701,282.600,70.000,17.850,5.197,baseline
1213.000,282.900,55.800,16.230,1028.000,209.400,41.100,9.972,153.400,35.610,8.681,2.713,284.800,70.600,18.100,5.320,baseline
1223.000,285.700,56.340,16.370,1035.000,210.500,42.040,10.070,153.800,35.770,8.766,2.746,287.300,71.570,18.430,5.401,baseline
1234.000,289.600,56.670,16.740,1044.000,211.100,41.640,10.110,154.200,36.110,8.823,2.739,289.400,72.110,18.510,5.429,baseline
1233.000,286.700,54.890,16.320,1032.000,208.600,41.770,9.902,155.300,36.010,8.783,2.719,283.700,69.530,17.690,5.167,baseline
1202.000,281.000,54.940,15.910,1029.000,208.400,41.670,9.828,154.300,35.390,8.647,2.676,278.500,68.810,17.460,5.092,baseline
1199.000,281.500,55.190,15.900,1035.000,207.600,41.040,9.863,153.700,35.020,8.618,2.678,278.500,68.830,17.600,5.131,baseline
1201.000,283.600,54.850,16.010,1033.000,207.800,41.310,9.907,155.100,35.620,8.670,2.684,280.100,69.130,17.690,5.146,baseline
1204.000,282.200,58.040,15.980,1030.000,207.900,40.610,9.906,154.500,35.380,8.690,2.695,280.400,69.190,17.740,5.152,baseline
1206.000,282.100,55.770,16.120,1034.000,209.400,41.000,9.932,155.000,35.590,8.689,2.694,281.000,69.700,17.830,5.224,baseline
1217.000,285.500,55.950,16.250,1040.000,209.800,41.310,10.020,154.000,35.940,8.712,2.723,284.000,70.700,18.160,5.347,baseline
1226.000,286.600,57.340,16.490,1039.000,211.600,41.540,10.060,157.100,35.910,8.806,2.740,287.700,71.520,18.340,5.412,baseline
1237.000,291.300,57.250,16.720,1044.000,211.900,41.840,10.130,155.500,36.280,8.850,2.778,290.500,72.120,18.550,5.478,baseline
1244.000,290.200,57.740,16.470,1036.000,209.200,41.840,9.922,157.100,36.260,8.884,2.751,286.700,70.530,17.870,5.230,baseline
1209.000,282.800,55.010,15.910,1033.000,208.500,41.120,9.854,153.800,35.550,8.717,2.681,279.200,68.900,17.590,5.130,baseline
1203.000,280.300,54.650,15.940,1031.000,207.700,41.390,9.884,151.900,35.440,8.687,2.701,279.400,69.170,17.600,5.143,baseline
1203.000,281.100,56.300,16.010,1033.000,208.200,41.170,9.900,153.800,35.360,8.680,2.699,280.900,69.410,17.750,5.157,baseline
1205.000,280.600,56.060,15.970,1028.000,208.500,40.900,9.919,155.000,35.950,8.721,2.699,280.500,69.100,17.680,5.149,baseline
1206.000,283.100,55.070,16.100,1035.000,208.800,41.310,10.000,153.400,35.610,8.759,2.715,280.100,69.860,17.910,5.246,baseline
1216.000,286.300,56.700,16.220,1038.000,209.300,41.480,10.030,154.000,35.640,8.748,2.733,283.400,70.710,18.030,5.327,baseline
1225.000,287.600,56.360,16.510,1041.000,211.200,41.560,10.120,153.900,36.020,8.842,2.762,287.000,71.360,18.380,5.398,baseline
1236.000,288.900,58.610,16.730,1044.000,212.000,41.630,10.180,154.200,36.280,8.949,2.786,289.500,72.320,18.650,5.463,baseline
1246.000,293.600,60.030,16.880,1049.000,212.500,41.930,10.200,158.700,36.320,8.985,2.787,293.100,73.200,18.940,5.564,baseline
1255.000,293.600,58.410,16.680,1039.000,210.100,41.510,9.939,156.400,36.550,8.953,2.785,288.000,71.360,18.040,5.250,baseline
1217.000,284.100,55.320,16.030,1032.000,208.400,40.680,9.884,156.600,35.640,8.777,2.730,280.200,69.590,17.760,5.179,baseline
1211.000,281.900,55.600,16.010,1027.000,207.700,40.450,9.906,154.400,35.720,8.794,2.715,280.900,69.460,17.840,5.209,baseline
1213.000,284.400,55.520,16.120,1032.000,208.500,41.400,9.922,155.400,35.880,8.739,2.724,282.700,69.950,17.850,5.210,baseline
1212.000,281.600,56.130,16.080,1033.000,209.300,41.910,10.010,155.900,35.490,8.828,2.746,282.100,70.050,17.870,5.251,baseline
1214.000,283.300,54.700,16.210,1034.000,209.500,41.310,9.989,154.500,36.060,8.806,2.734,284.500,70.470,17.950,5.299,baseline
1223.000,288.000,57.070,16.360,1044.000,210.500,41.350,10.030,156.000,36.320,8.887,2.763,286.300,71.120,18.400,5.396,baseline
1234.000,289.300,57.590,16.600,1044.000,211.000,41.570,10.110,154.300,36.270,8.969,2.803,289.800,72.300,18.620,5.453,baseline
1244.000,291.000,58.780,16.700,1048.000,211.800,41.600,10.200,156.400,36.810,8.971,2.819,292.300,72.760,18.800,5.548,baseline
1254.000,293.700,59.390,17.040,1058.000,213.600,41.800,10.210,156.000,36.780,9.033,2.817,294.800,73.620,18.840,5.563,baseline
1247.000,290.500,57.900,16.470,1035.000,210.100,40.570,9.925,155.400,36.500,8.933,2.783,286.400,70.960,18.050,5.236,baseline
1217.000,285.000,56.330,16.140,1034.000,209.000,40.660,9.900,156.100,36.170,8.823,2.747,282.100,70.210,17.940,5.232,baseline
1215.000,282.600,56.380,16.110,1037.000,209.100,41.310,9.977,154.700,36.210,8.790,2.741,283.700,70.280,18.030,5.278,baseline
1220.000,285.100,55.260,16.230,1035.000,209.300,41.080,9.985,158.100,35.990,8.826,2.752,285.100,70.580,18.090,5.258,baseline
1219.000,285.200,57.460,16.280,1035.000,209.600,40.640,10.000,155.700,36.070,8.863,2.747,284.000,70.600,18.100,5.292,baseline
1223.000,286.400,55.630,16.370,1040.000,210.100,41.150,10.040,158.100,35.920,8.889,2.759,286.900,71.300,18.260,5.388,baseline
1234.000,290.200,56.560,16.580,1046.000,210.900,41.660,10.160,155.500,36.280,9.006,2.798,289.500,72.220,18.580,5.492,baseline
1244.000,290.700,56.460,16.780,1044.000,211.400,42.190,10.150,156.500,36.710,9.000,2.821,292.200,72.810,18.850,5.557,baseline
1254.000,294.200,58.430,16.940,1057.000,212.200,41.430,10.250,157.600,36.870,9.039,2.842,294.500,73.870,19.120,5.601,baseline
1261.000,295.200,57.740,16.800,1044.000,211.200,41.420,9.975,156.800,36.990,9.103,2.817,293.200,72.560,18.460,5.394,baseline
1229.000,286.700,55.460,16.130,1033.000,208.700,41.760,9.956,155.200,36.370,8.893,2.762,284.600,70.410,18.070,5.256,baseline
1220.000,284.100,57.550,16.090,1038.000,209.200,41.460,9.975,155.900,35.930,8.825,2.769,285.100,70.770,18.040,5.318,baseline
1222.000,286.300,57.470,16.250,1042.000,209.800,41.400,10.050,157.500,36.190,8.960,2.757,286.700,71.060,18.200,5.336,baseline
1223.000,284.100,56.460,16.210,1038.000,209.900,41.210,10.050,158.000,36.140,8.889,2.781,285.400,70.910,18.180,5.342,baseline
1224.000,285.400,57.340,16.320,1037.000,209.800,41.250,10.050,155.800,36.100,8.883,2.787,287.600,71.120,18.190,5.359,baseline
1231.000,286.600,55.910,16.460,1040.000,209.900,42.310,10.090,156.500,36.340,8.937,2.782,289.400,72.140,18.540,5.465,baseline
1238.000,290.300,56.820,16.620,1046.000,211.600,41.240,10.190,159.200,36.640,9.085,2.818,291.700,72.670,18.670,5.551,baseline
1248.000,292.200,58.620,16.720,1052.000,211.100,42.000,10.070,157.700,36.910,9.050,2.850,293.700,73.310,18.780,5.504,baseline
1241.000,289.300,56.350,16.310,1040.000,209.500,40.990,10.010,157.300,36.460,8.963,2.796,286.500,71.030,18.090,5.271,baseline
1216.000,283.600,54.740,16.000,1035.000,208.600,41.350,9.940,154.300,36.170,8.869,2.773,284.700,70.480,17.990,5.278,baseline
1214.000,282.700,56.130,16.090,1037.000,209.400,40.810,10.020,153.000,36.270,8.922,2.769,285.000,70.670,18.110,5.336,baseline
1220.000,285.300,55.800,16.130,1035.000,209.000,41.150,9.979,155.000,36.140,8.911,2.782,286.600,70.720,18.070,5.307,baseline
1217.000,282.100,55.070,16.180,1041.000,208.500,40.790,10.020,155.100,36.410,8.925,2.778,286.000,70.980,18.270,5.344,baseline
1222.000,284.100,56.770,16.250,1044.000,209.200,41.040,10.010,156.900,36.520,8.987,2.772,287.600,71.430,18.370,5.377,baseline
1230.000,286.900,58.070,16.460,1044.000,210.400,41.320,10.120,156.600,36.540,8.979,2.825,290.000,72.260,18.550,5.454,baseline
1239.000,290.000,58.350,16.570,1042.000,211.700,40.980,10.100,159.800,36.690,9.089,2.846,292.600,72.760,18.750,5.481,baseline
1240.000,288.600,56.590,16.200,1037.000,209.300,41.230,9.961,158.200,36.630,8.950,2.803,286.800,70.790,18.080,5.204,baseline
1209.000,283.200,53.900,15.810,1028.000,207.300,40.610,9.936,154.800,36.020,8.828,2.770,282.300,69.970,17.890,5.219,baseline
1206.000,280.800,54.200,15.810,1033.000,207.800,41.230,9.918,155.900,36.180,8.794,2.769,282.600,69.790,17.840,5.257,baseline
1209.000,281.200,54.680,15.900,1035.000,208.000,41.050,9.906,156.400,36.210,8.869,2.762,283.500,70.260,17.920,5.237,baseline
1208.000,279.000,54.830,15.860,1037.000,207.400,40.680,9.957,155.200,36.290,8.917,2.786,283.000,70.340,18.080,5.246,baseline
1209.000,280.900,55.130,15.910,1036.000,209.100,40.740,10.020,155.700,36.530,8.925,2.776,284.800,70.680,18.190,5.345,baseline
1217.000,284.000,55.840,16.160,1036.000,208.200,41.430,10.030,154.400,36.570,8.981,2.789,287.100,71.710,18.430,5.401,baseline
1226.000,286.700,57.260,16.310,1044.000,209.600,41.730,10.080,156.100,36.650,9.033,2.828,290.200,72.020,18.610,5.442,baseline
1233.000,286.700,56.700,16.180,1036.000,208.500,40.270,9.912,158.600,36.660,9.013,2.816,287.000,70.650,18.050,5.221,baseline
1199.000,279.300,53.660,15.580,1026.000,206.800,40.370,9.888,155.100,36.010,8.859,2.761,279.100,68.950,17.640,5.127,baseline
1191.000,275.800,53.230,15.610,1030.000,206.000,40.650,9.833,154.500,35.700,8.808,2.740,280.800,69.190,17.680,5.126,baseline
1193.000,276.600,53.710,15.610,1025.000,206.500,40.250,9.888,155.800,36.000,8.878,2.746,279.700,69.390,17.710,5.144,baseline
1192.000,277.200,53.690,15.610,1019.000,206.500,40.270,9.835,154.800,35.740,8.804,2.747,279.500,68.930,17.740,5.149,baseline
1193.000,279.400,53.220,15.620,1026.000,206.500,40.920,9.903,155.600,35.970,8.840,2.757,280.600,69.670,17.810,5.216,baseline
1201.000,281.000,54.130,15.810,1028.000,208.300,41.270,10.010,153.800,36.090,8.879,2.782,284.700,70.370,18.100,5.256,baseline
1210.000,281.200,53.970,16.050,1032.000,207.700,41.040,9.982,158.300,36.230,8.982,2.808,285.400,71.090,18.230,5.343,baseline
1217.000,285.900,55.800,16.140,1040.000,209.100,41.140,10.050,157.700,36.480,8.996,2.800,287.400,71.480,18.330,5.376,baseline
1217.000,283.300,55.380,15.720,1033.000,206.900,40.290,9.823,154.600,36.290,8.913,2.791,281.700,69.230,17.620,5.094,baseline
1185.000,275.200,53.730,15.280,1025.000,205.000,40.470,9.807,152.600,35.510,8.779,2.722,276.300,68.150,17.460,5.026,baseline
1180.000,274.200,53.400,15.270,1024.000,205.700,40.160,9.831,152.800,35.550,8.755,2.733,275.200,67.730,17.480,5.047,baseline
1180.000,275.800,53.580,15.300,1017.000,205.800,39.940,9.776,157.000,35.690,8.788,2.745,276.000,68.110,17.390,5.030,baseline
1178.000,273.700,52.920,15.340,1018.000,205.600,40.500,9.836,152.500,35.570,8.763,2.742,276.200,68.030,17.430,5.043,baseline
1180.000,273.200,53.780,15.420,1020.000,205.600,40.200,9.853,153.200,35.720,8.806,2.753,277.700,68.710,17.600,5.135,baseline
1188.000,277.900,52.910,15.600,1020.000,206.700,40.090,9.919,152.900,35.690,8.851,2.762,279.600,69.520,17.830,5.215,baseline
1197.000,280.700,54.210,15.820,1025.000,207.200,40.990,9.996,156.000,36.100,8.854,2.781,282.900,70.140,17.970,5.247,baseline
1205.000,282.000,54.930,15.930,1031.000,208.300,41.310,10.050,156.000,36.200,9.012,2.779,283.800,70.760,18.200,5.294,baseline
1213.000,284.100,56.020,16.090,1032.000,209.300,40.810,10.030,155.800,36.530,8.996,2.817,286.700,71.480,18.440,5.351,baseline
1211.000,281.100,55.360,15.700,1025.000,206.400,40.580,9.835,156.400,36.410,8.904,2.758,278.800,68.920,17.420,5.046,baseline
1178.000,273.400,52.500,15.320,1019.000,205.000,40.480,9.808,157.100,35.850,8.768,2.733,276.100,67.900,17.280,5.003,baseline
1175.000,272.700,53.310,15.200,1016.000,205.100,40.360,9.795,153.000,35.650,8.805,2.738,274.600,67.710,17.390,5.012,baseline
1175.000,272.000,54.070,15.270,1018.000,205.300,39.930,9.819,154.400,35.870,8.790,2.733,274.600,67.770,17.280,5.029,baseline
1173.000,271.600,53.200,15.320,1013.000,205.200,40.130,9.837,153.700,35.730,8.793,2.723,275.500,68.080,17.380,5.049,baseline
1176.000,274.300,53.250,15.400,1016.000,205.700,40.180,9.867,152.500,35.700,8.773,2.745,276.400,68.150,17.520,5.112,baseline
1185.000,275.000,53.300,15.540,1025.000,206.400,40.270,9.914,153.900,35.990,8.880,2.759,279.200,69.380,17.640,5.169,baseline
1194.000,277.400,55.110,15.750,1024.000,207.900,41.230,9.953,155.700,36.210,8.925,2.788,281.500,69.780,18.010,5.227,baseline
1203.000,278.500,55.610,15.920,1026.000,208.200,41.400,10.070,158.900,36.400,8.928,2.784,284.200,70.540,18.120,5.315,baseline
1211.000,281.900,54.850,16.160,1036.000,208.600,41.420,10.050,159.000,36.530,9.052,2.822,285.900,71.080,18.290,5.388,baseline
1222.000,286.700,55.620,16.230,1039.000,209.400,41.020,9.990,157.700,36.800,9.106,2.837,287.800,71.500,18.260,5.299,baseline
1205.000,278.500,54.050,15.540,1022.000,206.600,40.560,9.863,154.500,36.330,8.894,2.776,277.700,68.530,17.520,5.077,baseline
1183.000,275.900,53.750,15.460,1021.000,206.200,40.490,9.816,155.300,35.920,8.774,2.755,275.900,68.100,17.390,5.029,baseline
1181.000,274.300,53.830,15.340,1022.000,205.900,40.700,9.879,156.100,35.880,8.785,2.749,276.100,68.070,17.360,5.071,baseline
1183.000,274.300,53.610,15.400,1024.000,206.300,40.320,9.873,154.100,35.700,8.777,2.736,276.000,68.020,17.450,5.051,baseline
1182.000,274.600,52.800,15.480,1021.000,206.600,40.290,9.899,155.000,35.840,8.795,2.765,277.900,68.650,17.480,5.096,baseline
1188.000,276.700,53.690,15.650,1027.000,206.400,40.570,9.979,156.100,35.950,8.905,2.754,280.200,69.170,17.700,5.205,baseline
1198.000,278.900,55.400,15.770,1033.000,208.700,41.210,9.999,155.300,36.300,8.881,2.785,282.800,70.020,18.100,5.215,baseline
1207.000,281.700,54.900,15.960,1029.000,209.400,41.010,10.040,158.700,36.350,8.992,2.810,284.800,70.740,18.210,5.303,baseline
1217.000,284.000,56.640,16.270,1038.000,209.100,41.900,10.090,156.100,36.530,8.986,2.830,285.600,71.300,18.300,5.351,baseline
1227.000,287.700,56.210,16.380,1042.000,210.500,42.050,10.150,155.700,36.850,9.065,2.820,288.600,72.170,18.530,5.402,baseline
1228.000,284.800,54.850,15.950,1032.000,207.400,41.340,9.898,161.200,36.750,9.078,2.815,283.700,69.760,17.640,5.141,baseline
1197.000,278.600,53.270,15.570,1031.000,206.600,41.490,9.890,156.100,36.060,8.845,2.760,278.800,69.050,17.600,5.127,baseline
1195.000,278.700,54.010,15.650,1025.000,206.800,40.520,9.930,155.600,36.090,8.862,2.749,279.200,69.000,17.750,5.162,baseline
1199.000,278.600,54.920,15.710,1023.000,207.800,40.590,9.955,155.800,36.280,8.897,2.766,280.800,69.150,17.760,5.177,baseline
1199.000,280.500,55.370,15.680,1032.000,207.800,40.840,9.942,155.300,35.990,8.840,2.789,280.300,69.560,17.700,5.188,baseline
1203.000,281.000,55.160,15.800,1032.000,208.700,41.310,10.020,155.600,36.240,8.927,2.771,282.100,70.100,17.890,5.225,baseline
1212.000,283.300,55.700,16.000,1035.000,209.800,41.550,10.070,156.100,36.160,8.960,2.806,285.300,70.550,18.180,5.311,baseline
1221.000,284.900,56.980,16.160,1038.000,210.800,41.530,10.110,160.000,36.760,8.988,2.818,288.300,71.500,18.420,5.409,baseline
1231.000,287.700,56.850,16.490,1042.000,211.600,41.800,10.160,156.600,36.400,9.050,2.844,289.000,72.200,18.520,5.478,baseline
1242.000,291.500,57.120,16.480,1043.000,209.900,41.350,10.070,159.500,37.050,9.116,2.849,291.100,71.950,18.330,5.310,baseline
1218.000,283.100,55.190,15.870,1031.000,207.800,41.540,9.981,156.800,36.500,8.944,2.782,281.200,69.310,17.880,5.178,baseline
1208.000,281.600,54.610,15.960,1030.000,208.700,41.060,9.977,156.000,36.470,8.867,2.782,282.000,69.730,17.900,5.245,baseline
1213.000,282.300,55.660,15.980,1035.000,209.100,41.270,9.992,155.800,36.480,8.879,2.793,285.300,70.250,18.090,5.263,baseline
1216.000,282.700,56.640,16.050,1037.000,209.400,40.930,9.976,156.700,36.330,9.006,2.793,284.200,70.100,18.050,5.251,baseline
1217.000,284.400,56.370,16.090,1041.000,210.200,40.790,10.120,157.300,36.360,8.937,2.807,284.800,70.820,18.060,5.329,baseline
1227.000,285.500,56.580,16.330,1043.000,210.700,41.800,10.080,155.800,36.550,9.020,2.832,287.700,71.650,18.380,5.409,baseline
1237.000,289.700,57.560,16.510,1049.000,211.800,41.710,10.230,160.200,36.940,9.074,2.853,290.100,72.480,18.590,5.494,baseline
1248.000,291.300,57.780,16.700,1053.000,213.200,42.010,10.240,159.500,37.210,9.126,2.866,293.600,73.590,19.000,5.593,baseline
1258.000,294.000,58.930,16.880,1048.000,211.300,42.360,10.110,158.700,37.280,9.191,2.883,294.400,73.110,18.620,5.420,baseline
1230.000,286.000,56.510,16.100,1036.000,208.400,41.110,9.946,156.700,36.570,9.002,2.796,284.200,70.170,17.930,5.269,baseline
1214.000,282.900,56.890,16.010,1036.000,209.000,41.680,9.995,155.700,36.240,8.874,2.795,284.000,70.290,17.930,5.263,baseline
1219.000,282.600,55.440,16.090,1039.000,209.600,41.760,9.980,158.300,36.460,8.972,2.807,285.500,70.750,18.220,5.294,baseline
1221.000,285.200,55.630,16.120,1034.000,208.700,41.430,10.020,159.900,36.420,8.983,2.806,286.100,70.690,18.100,5.297,baseline
1220.000,284.900,55.420,16.140,1037.000,209.100,41.390,10.060,157.000,36.580,9.008,2.808,287.000,71.290,18.260,5.353,baseline
1226.000,286.700,57.880,16.330,1045.000,209.900,42.350,10.060,156.900,36.870,8.973,2.816,289.100,71.940,18.480,5.416,baseline
1238.000,289.900,57.600,16.580,1049.000,212.300,42.000,10.160,160.000,37.030,9.111,2.852,292.600,73.130,18.890,5.522,baseline
1248.000,292.600,57.030,16.760,1047.000,213.000,42.490,10.160,160.500,36.870,9.148,2.868,295.400,73.580,19.100,5.589,baseline
1249.000,290.400,57.410,16.460,1041.000,209.900,41.340,10.020,160.100,36.960,9.122,2.820,288.000,71.100,18.210,5.284,baseline
1217.000,282.200,56.160,15.900,1039.000,208.800,40.720,9.953,155.900,36.500,8.911,2.781,283.900,70.170,17.950,5.235,baseline
1216.000,283.600,56.870,16.000,1033.000,208.700,40.990,9.996,155.100,36.150,8.881,2.803,284.700,70.320,17.940,5.277,baseline
1218.000,283.800,56.370,16.080,1036.000,209.100,41.140,9.972,156.700,36.650,8.928,2.790,286.200,70.860,18.090,5.289,baseline
1219.000,285.300,55.680,16.120,1037.000,208.700,40.520,9.993,155.100,36.560,8.934,2.800,284.700,70.620,18.180,5.290,baseline
1224.000,283.700,55.450,16.250,1037.000,210.400,41.640,10.050,157.000,36.350,8.998,2.807,287.800,71.720,18.380,5.368,baseline
1232.000,288.600,56.130,16.430,1042.000,210.800,41.540,10.110,156.200,36.750,9.026,2.828,289.100,72.150,18.570,5.463,baseline
1241.000,289.900,57.950,16.630,1049.000,211.500,42.090,10.160,157.400,36.550,9.080,2.866,293.600,73.510,18.900,5.632,baseline
1255.000,291.900,56.810,16.580,1047.000,210.700,41.430,9.984,159.400,36.950,9.171,2.873,292.100,72.050,18.440,5.368,baseline
1221.000,282.400,54.670,15.970,1036.000,208.600,40.510,9.952,154.700,36.240,8.938,2.789,283.100,70.050,17.940,5.237,baseline
1215.000,283.100,54.570,15.910,1035.000,208.500,40.890,9.947,157.700,36.120,8.872,2.770,282.900,69.890,17.920,5.217,baseline
1217.000,283.600,56.350,16.050,1042.000,209.100,41.270,9.971,154.700,36.250,8.912,2.799,283.600,70.280,18.080,5.229,baseline
1220.000,285.600,55.570,15.950,1036.000,209.000,40.920,9.979,158.100,36.490,8.868,2.793,284.200,70.300,18.030,5.292,baseline
1222.000,285.900,57.670,16.130,1039.000,209.700,41.800,10.100,154.900,36.260,8.894,2.793,285.300,71.040,18.220,5.335,baseline
1233.000,286.400,56.280,16.340,1042.000,210.100,41.350,10.110,158.800,36.160,8.993,2.834,288.500,71.730,18.340,5.424,baseline
1243.000,289.100,57.680,16.690,1048.000,211.900,41.870,10.200,158.600,36.900,9.122,2.856,290.900,72.850,18.820,5.548,baseline
1254.000,293.100,58.310,16.630,1043.000,210.300,41.730,9.987,158.900,37.230,9.088,2.848,288.900,71.690,18.290,5.302,baseline
1218.000,280.800,54.980,15.870,1029.000,207.600,40.860,9.879,155.700,36.200,8.899,2.780,281.500,69.530,17.640,5.143,baseline
1204.000,278.800,52.930,15.750,1034.000,207.100,40.720,9.879,156.700,36.180,8.813,2.780,280.200,69.270,17.630,5.188,baseline
1204.000,280.800,54.920,15.840,1028.000,208.300,40.860,9.887,156.900,35.900,8.873,2.789,281.300,69.420,17.900,5.226,baseline
1206.000,281.100,54.100,15.800,1032.000,207.600,40.620,9.928,155.500,36.080,8.860,2.772,281.600,69.620,17.780,5.192,baseline
1207.000,282.700,54.280,15.820,1032.000,207.500,41.150,9.963,155.100,36.030,8.885,2.785,282.000,70.060,17.940,5.252,baseline
1214.000,282.100,55.550,16.080,1036.000,208.400,41.890,10.020,154.300,36.190,8.984,2.810,286.300,70.840,18.230,5.305,baseline
1223.000,285.900,55.830,16.290,1032.000,208.500,41.180,9.993,159.100,36.120,8.945,2.834,288.100,71.930,18.430,5.399,baseline
1225.000,283.700,55.860,15.880,1030.000,206.500,40.220,9.816,157.900,36.620,8.959,2.801,282.600,69.620,17.690,5.126,baseline
1191.000,275.000,53.350,15.380,1020.000,205.500,40.460,9.754,153.900,35.830,8.804,2.751,276.900,68.320,17.490,5.079,baseline
1187.000,275.000,53.930,15.330,1017.000,205.100,40.540,9.754,153.800,35.750,8.827,2.757,278.500,68.490,17.620,5.115,baseline
1190.000,276.000,53.910,15.460,1020.000,205.400,39.810,9.745,150.200,35.860,8.823,2.766,280.000,69.370,17.620,5.169,baseline
1190.000,275.200,54.200,15.460,1015.000,205.300,40.720,9.732,154.100,36.110,8.848,2.758,280.100,69.040,17.670,5.153,baseline
1193.000,277.600,52.800,15.560,1023.000,206.200,40.940,9.867,157.000,35.870,8.885,2.771,280.800,69.680,17.850,5.210,baseline
1201.000,278.900,53.910,15.880,1028.000,205.700,40.220,9.865,155.200,36.080,8.940,2.808,284.600,70.440,18.070,5.315,baseline
1213.000,281.700,56.090,16.040,1030.000,207.700,41.170,9.884,155.100,36.260,9.036,2.827,288.000,71.370,18.390,5.346,baseline
1207.000,281.100,53.390,15.460,1014.000,203.900,40.110,9.689,155.200,36.510,8.880,2.772,279.500,68.870,17.480,5.102,baseline
1179.000,273.200,52.430,15.160,1016.000,203.900,40.120,9.753,152.300,35.550,8.789,2.737,276.800,68.000,17.300,5.044,baseline
1176.000,271.700,52.990,15.120,1013.000,204.200,39.680,9.707,152.200,35.650,8.781,2.737,278.100,68.210,17.380,5.085,baseline
1178.000,272.500,52.720,15.210,1013.000,204.000,39.140,9.706,154.500,35.700,8.870,2.768,277.800,68.700,17.510,5.099,baseline
1179.000,271.500,53.730,15.210,1014.000,203.900,39.850,9.694,154.800,35.750,8.815,2.759,278.600,68.530,17.520,5.145,baseline
1182.000,275.300,53.260,15.360,1013.000,205.100,40.490,9.844,153.600,36.020,8.874,2.766,280.500,69.260,17.770,5.209,baseline
1192.000,277.500,53.340,15.560,1020.000,204.900,40.270,9.811,155.200,36.200,8.878,2.771,281.700,70.320,18.050,5.275,baseline
1202.000,280.200,53.370,15.780,1028.000,206.800,40.210,9.882,154.300,36.160,8.987,2.805,286.500,70.680,18.240,5.350,baseline
1202.000,278.700,52.920,15.490,1019.000,202.800,40.260,9.651,156.300,36.080,8.942,2.797,281.000,68.500,17.580,5.052,baseline
1169.000,270.500,52.160,15.030,1010.000,202.000,39.470,9.635,154.500,35.640,8.749,2.723,275.300,67.380,17.330,5.022,baseline
1166.000,272.400,51.410,15.020,1010.000,202.200,39.910,9.611,153.900,35.470,8.772,2.728,275.300,67.590,17.350,5.025,baseline
1168.000,270.800,50.640,15.140,1007.000,202.300,39.960,9.582,152.900,35.500,8.740,2.762,275.900,68.000,17.340,5.060,baseline
1169.000,269.800,50.710,15.110,1007.000,202.900,39.470,9.643,151.700,35.730,8.756,2.752,276.100,68.140,17.390,5.070,baseline
1173.000,269.800,52.190,15.200,1015.000,203.900,40.170,9.722,152.500,35.710,8.815,2.753,277.400,68.780,17.630,5.153,baseline
1184.000,274.600,52.270,15.400,1014.000,204.100,39.540,9.787,154.700,35.890,8.876,2.780,280.900,69.440,17.860,5.237,baseline
1195.000,275.200,54.620,15.580,1024.000,205.600,39.900,9.823,156.600,36.200,8.910,2.795,283.600,70.710,18.090,5.308,baseline
1206.000,280.300,54.440,15.710,1021.000,205.200,40.530,9.792,156.100,36.470,8.998,2.829,284.500,70.510,17.990,5.194,baseline
1184.000,272.000,51.800,15.030,1006.000,202.000,39.880,9.624,153.700,35.810,8.805,2.731,276.100,67.710,17.160,4.950,baseline
1166.000,270.200,51.960,14.890,1003.000,202.500,40.210,9.610,153.700,35.460,8.725,2.723,274.100,67.630,17.280,4.971,baseline
1166.000,268.100,50.970,15.030,1006.000,202.100,39.810,9.681,153.600,35.510,8.710,2.722,275.500,68.080,17.410,5.055,baseline
1170.000,270.400,52.000,14.960,1008.000,202.600,40.170,9.681,152.700,35.790,8.733,2.743,276.100,68.010,17.340,5.018,baseline
1170.000,270.100,51.660,15.060,1014.000,203.000,40.060,9.665,154.900,35.630,8.824,2.746,277.400,68.030,17.380,5.070,baseline
1177.000,271.800,52.660,15.220,1014.000,204.000,39.990,9.757,153.800,35.810,8.808,2.756,279.300,69.060,17.760,5.175,baseline
1188.000,274.700,52.970,15.490,1023.000,205.300,39.990,9.845,152.700,36.150,8.913,2.782,281.900,70.020,17.960,5.251,baseline
1199.000,277.700,52.600,15.720,1030.000,205.500,40.490,9.904,158.200,36.350,8.913,2.800,285.900,70.830,18.200,5.322,baseline
1209.000,279.800,56.070,15.850,1025.000,206.200,40.090,9.818,159.000,36.470,9.042,2.816,287.700,71.280,18.260,5.228,baseline
1192.000,273.900,53.400,15.140,1017.000,203.300,39.700,9.650,158.600,36.170,8.836,2.761,276.600,67.920,17.280,5.015,baseline
1170.000,268.300,53.940,14.930,1009.000,202.900,39.290,9.643,154.900,35.710,8.795,2.725,275.300,67.620,17.340,4.990,baseline
1173.000,269.800,52.670,15.030,1010.000,203.900,39.040,9.683,156.400,35.660,8.758,2.753,277.700,68.360,17.420,5.083,baseline
1175.000,270.900,53.300,15.060,1013.000,203.900,40.010,9.706,155.800,35.520,8.846,2.754,276.500,68.220,17.370,5.042,baseline
1176.000,270.700,51.710,15.090,1020.000,203.600,39.910,9.742,153.000,35.770,8.826,2.762,277.800,68.500,17.440,5.089,baseline
1183.000,273.500,51.030,15.340,1017.000,205.700,40.060,9.779,156.600,35.800,8.833,2.779,280.300,69.200,17.790,5.198,baseline
1194.000,277.100,52.970,15.590,1022.000,205.900,40.790,9.898,155.300,36.150,8.911,2.786,282.900,70.250,18.020,5.317,baseline
1204.000,278.300,53.330,15.800,1031.000,207.400,41.480,9.929,155.600,36.190,8.928,2.817,286.200,71.280,18.290,5.356,baseline
1216.000,284.600,54.330,15.940,1038.000,208.100,41.480,9.945,156.300,36.600,8.999,2.844,289.400,72.350,18.470,5.432,baseline
1220.000,282.500,54.540,15.640,1026.000,205.800,41.190,9.735,158.000,36.280,8.958,2.802,282.300,68.980,17.580,5.118,baseline
1182.000,272.300,52.860,15.080,1024.000,204.900,40.450,9.774,153.800,35.820,8.812,2.741,277.500,68.140,17.380,5.032,baseline
1182.000,274.000,52.720,15.230,1020.000,205.400,40.090,9.796,154.600,35.730,8.764,2.748,279.200,68.700,17.510,5.150,baseline
1187.000,273.900,54.210,15.270,1024.000,204.300,40.070,9.770,154.100,36.130,8.826,2.769,280.000,69.340,17.650,5.154,baseline
1187.000,274.500,53.210,15.350,1022.000,205.200,40.620,9.803,157.400,35.860,8.887,2.762,279.400,69.150,17.610,5.149,baseline
1191.000,274.500,53.150,15.460,1027.000,206.200,40.040,9.828,155.900,36.140,8.905,2.795,282.200,69.650,17.890,5.231,baseline
1202.000,278.700,56.270,15.650,1030.000,207.600,41.310,9.957,157.100,36.290,8.947,2.806,284.300,70.970,18.220,5.329,baseline
1214.000,281.300,55.480,15.800,1031.000,208.300,40.590,10.020,159.100,36.430,9.015,2.822,287.300,72.010,18.430,5.408,baseline
1225.000,285.500,56.340,16.130,1033.000,208.800,41.450,9.965,159.400,36.570,9.118,2.848,290.000,72.050,18.360,5.353,baseline
1208.000,279.000,53.650,15.520,1021.000,205.000,40.870,9.810,158.500,36.280,8.891,2.771,280.400,69.030,17.590,5.082,baseline
1190.000,276.000,52.060,15.390,1024.000,205.500,40.760,9.835,154.800,35.890,8.862,2.750,279.000,68.920,17.590,5.173,baseline
1196.000,277.600,53.770,15.580,1028.000,206.500,40.100,9.871,155.600,36.210,8.922,2.800,282.700,69.980,17.900,5.208,baseline
1202.000,277.500,54.670,15.600,1027.000,205.700,41.210,9.895,158.200,36.030,8.896,2.795,282.800,69.860,17.860,5.216,baseline
1203.000,278.700,54.130,15.590,1032.000,207.400,40.470,9.942,156.700,35.910,8.910,2.780,283.200,70.150,17.910,5.237,baseline
1209.000,281.000,54.040,15.860,1035.000,207.400,40.960,10.010,154.900,36.150,8.939,2.815,285.700,71.040,18.270,5.356,baseline
1222.000,284.900,55.920,16.080,1041.000,208.700,41.330,10.070,157.000,36.840,9.010,2.848,288.600,72.070,18.510,5.441,baseline
1233.000,286.100,56.190,16.270,1038.000,209.800,41.450,10.040,157.300,36.850,9.101,2.867,292.900,73.070,18.680,5.447,baseline
1223.000,281.900,54.630,15.760,1028.000,206.900,41.150,9.841,159.200,36.540,8.962,2.812,283.200,69.990,17.680,5.119,baseline
1197.000,276.500,52.900,15.390,1021.000,205.900,40.570,9.895,154.800,35.670,8.833,2.770,280.100,69.140,17.500,5.137,baseline
1199.000,279.100,53.840,15.570,1024.000,206.500,41.200,9.900,152.600,35.930,8.845,2.764,279.800,69.730,17.840,5.255,baseline
1204.000,277.900,54.080,15.620,1027.000,206.400,41.250,9.851,157.300,36.390,8.891,2.791,283.400,69.920,17.810,5.204,baseline
1203.000,279.500,54.410,15.620,1031.000,207.800,41.020,9.865,153.300,36.130,8.923,2.785,283.600,70.030,17.940,5.257,baseline
1209.000,280.300,53.260,15.800,1034.000,207.700,41.560,9.969,156.100,36.080,8.905,2.801,285.500,70.790,18.230,5.318,baseline
1219.000,283.800,55.380,15.950,1037.000,208.100,41.620,10.040,157.700,36.410,9.024,2.851,289.600,71.990,18.430,5.441,baseline
1231.000,288.000,55.930,16.240,1036.000,210.100,41.480,10.090,156.100,36.670,9.078,2.858,291.100,72.840,18.790,5.500,baseline
1230.000,285.500,55.230,15.780,1027.000,205.900,39.970,9.847,157.900,36.870,9.004,2.822,284.300,69.940,17.770,5.166,baseline
1194.000,275.400,53.860,15.260,1027.000,205.200,39.960,9.784,154.600,35.900,8.806,2.768,277.800,68.780,17.540,5.109,baseline
1191.000,275.300,53.050,15.350,1022.000,205.900,40.420,9.872,155.800,35.630,8.857,2.753,279.400,69.020,17.710,5.151,baseline
