A-DC1,A-DC2,A-DC3,A-DC4,A-DC5,A-DC6,A-DC7,A-DC8,B-DC1,B-DC2,B-DC3,B-DC4,B-DC5,B-DC6,B-DC7,B-DC8,condition
1099.000,266.100,59.070,17.030,1023.000,234.700,50.950,13.500,91.800,31.870,9.494,3.347,247.500,76.780,25.040,8.261,baseline
1097.000,265.100,58.920,17.050,1022.000,234.500,50.950,13.540,87.970,31.900,9.531,3.357,249.100,77.290,24.890,8.331,baseline
1097.000,265.900,59.170,17.080,1026.000,234.100,50.980,13.540,88.140,31.930,9.453,3.367,250.100,77.830,25.050,8.307,baseline
1098.000,264.200,59.660,17.110,1023.000,234.800,50.920,13.540,87.650,32.020,9.597,3.375,248.400,77.670,25.110,8.415,baseline
1100.000,265.100,59.430,17.120,1022.000,234.000,50.920,13.510,90.370,32.050,9.558,3.438,249.800,78.210,25.320,8.395,baseline
1101.000,264.400,59.880,17.150,1026.000,234.300,51.270,13.540,89.300,31.640,9.527,3.363,250.400,78.150,25.470,8.420,baseline
1098.000,264.200,59.470,16.900,1021.000,233.900,50.660,13.430,88.300,31.930,9.536,3.402,250.800,76.750,24.890,8.224,baseline
1090.000,261.600,59.390,16.720,1016.000,233.800,50.870,13.430,88.360,32.220,9.346,3.341,247.100,76.860,24.680,8.187,baseline
1088.000,260.900,58.220,16.800,1019.000,232.900,50.310,13.430,92.890,31.520,9.449,3.335,246.000,76.630,24.810,8.286,baseline
1089.000,262.500,57.840,16.780,1015.000,232.600,50.870,13.440,88.580,31.900,9.487,3.337,247.800,77.140,25.010,8.216,baseline
1088.000,260.900,57.940,16.760,1017.000,233.100,51.030,13.390,86.670,32.250,9.467,3.361,247.000,76.420,24.870,8.226,baseline
1086.000,260.600,57.780,16.830,1014.000,232.900,51.100,13.410,90.190,31.880,9.613,3.358,247.400,77.160,24.970,8.255,baseline
1088.000,261.200,58.480,16.850,1013.000,232.600,51.260,13.440,88.830,32.050,9.505,3.374,249.300,77.310,24.940,8.321,baseline
1089.000,262.500,58.980,16.860,1015.000,232.700,51.070,13.440,90.350,32.150,9.516,3.330,249.700,77.590,25.100,8.306,baseline
1089.000,262.600,59.790,16.950,1013.000,233.200,50.320,13.490,90.700,32.330,9.598,3.396,251.300,77.600,25.200,8.446,baseline
1092.000,263.000,60.750,17.010,1014.000,233.000,51.230,13.470,89.080,32.560,9.631,3.361,251.500,78.010,25.420,8.386,baseline
1087.000,261.700,59.070,16.740,1018.000,232.200,50.080,13.340,89.600,32.090,9.460,3.358,246.300,76.310,24.510,8.128,baseline
1079.000,258.900,57.900,16.540,1011.000,231.800,50.690,13.400,88.150,31.630,9.586,3.359,247.400,76.360,24.650,8.121,baseline
1077.000,258.000,57.970,16.540,1010.000,231.300,50.630,13.350,89.420,31.550,9.471,3.337,246.200,76.710,24.430,8.134,baseline
1078.000,259.700,58.340,16.560,1010.000,232.400,50.780,13.390,88.070,31.750,9.491,3.364,246.100,76.260,24.590,8.159,baseline
1076.000,258.500,58.240,16.590,1010.000,232.100,50.660,13.350,90.060,31.430,9.471,3.340,246.000,76.970,24.730,8.130,baseline
1067.000,257.300,58.460,16.680,999.800,232.800,51.840,13.590,89.640,32.080,9.586,3.379,245.600,75.610,24.270,8.194,baseline
1059.000,261.800,60.480,16.950,993.800,235.800,52.700,13.640,89.070,31.280,9.385,3.400,247.200,74.620,24.160,8.236,baseline
1060.000,263.900,60.550,16.950,994.800,235.700,52.630,13.630,88.620,32.020,9.424,3.359,249.800,77.870,24.560,8.221,baseline
1063.000,264.900,60.740,16.980,997.100,237.000,52.620,13.640,88.070,33.820,9.534,3.346,254.200,80.220,24.820,8.292,baseline
1066.000,264.000,61.570,17.060,999.200,237.700,52.930,13.670,89.140,33.600,9.520,3.359,255.400,80.960,24.880,8.381,baseline
1067.000,265.300,61.970,16.980,992.100,236.700,52.680,13.600,94.650,33.870,9.503,3.380,256.000,80.080,24.840,8.170,baseline
1058.000,262.800,61.350,16.680,992.000,236.500,52.320,13.590,88.480,33.180,9.440,3.356,253.200,80.000,24.310,8.150,baseline
1057.000,262.500,61.850,16.740,994.600,237.000,52.630,13.600,90.480,33.880,9.354,3.358,256.300,79.900,24.610,8.150,baseline
1059.000,263.300,61.780,16.750,991.500,237.500,52.930,13.620,93.590,33.670,9.526,3.334,254.100,80.380,24.640,8.137,baseline
1060.000,262.400,60.440,16.780,994.700,237.800,52.780,13.620,92.820,34.430,9.509,3.331,255.100,79.440,24.400,8.149,baseline
1062.000,262.700,60.640,16.770,995.900,237.700,52.960,13.680,91.570,33.680,9.592,3.378,254.500,80.730,24.720,8.208,baseline
1065.000,264.800,61.950,16.790,998.100,238.100,53.290,13.680,95.080,34.540,9.538,3.363,256.500,80.570,24.970,8.125,baseline
1069.000,264.100,60.440,16.900,999.100,239.200,53.190,13.710,95.830,34.550,9.639,3.415,256.000,81.100,24.810,8.289,baseline
1073.000,267.200,60.990,17.050,1002.000,239.500,53.750,13.770,91.320,34.320,9.652,3.395,258.400,82.120,24.910,8.255,baseline
1075.000,268.200,61.450,17.120,1000.000,240.000,53.710,13.780,92.740,34.440,9.748,3.399,259.900,81.780,25.350,8.351,baseline
1079.000,268.200,62.170,17.130,1004.000,240.500,53.610,13.820,93.760,34.630,9.685,3.414,260.400,81.570,25.190,8.301,baseline
1074.000,266.000,62.220,16.970,995.500,239.400,53.290,13.730,95.860,34.350,9.588,3.365,257.200,81.060,24.880,8.167,baseline
1070.000,265.500,60.990,16.900,1001.000,240.200,53.240,13.750,93.810,34.470,9.594,3.383,255.600,81.350,24.830,8.124,baseline
1073.000,266.000,61.140,16.900,1004.000,240.700,53.250,13.840,93.400,34.500,9.810,3.328,258.100,81.350,24.760,8.200,baseline
1075.000,265.600,62.340,16.890,1002.000,240.500,53.750,13.860,91.790,34.810,9.743,3.349,256.200,81.260,24.810,8.198,baseline
1075.000,266.200,62.450,16.900,1002.000,240.900,53.300,13.800,92.400,34.140,9.722,3.442,256.800,81.050,24.830,8.208,baseline
1078.000,267.400,62.520,16.960,1007.000,241.300,53.470,13.830,96.290,34.500,9.676,3.437,259.500,81.300,25.330,8.280,baseline
1081.000,267.000,62.010,17.040,1004.000,241.800,54.020,13.850,94.310,35.150,9.716,3.435,259.200,81.870,25.100,8.291,baseline
1085.000,269.200,62.820,17.110,1009.000,242.600,53.890,13.920,89.730,34.310,9.728,3.425,260.600,82.170,25.120,8.382,baseline
1089.000,269.400,61.580,17.210,1010.000,242.600,54.370,13.910,95.320,35.150,9.864,3.437,262.400,82.550,25.290,8.364,baseline
1091.000,270.200,63.000,17.210,1014.000,242.700,53.660,13.900,94.420,34.930,9.882,3.435,259.800,81.680,25.200,8.300,baseline
1084.000,267.600,60.840,16.920,1013.000,242.100,53.910,13.880,92.810,35.010,9.672,3.442,256.500,81.650,24.900,8.157,baseline
1082.000,268.100,61.490,16.810,1009.000,242.600,53.920,13.920,93.240,34.810,9.816,3.395,255.500,81.240,25.030,8.240,baseline
1084.000,265.800,61.270,17.040,1010.000,242.700,53.790,13.930,98.250,34.620,9.728,3.452,257.200,81.350,25.080,8.238,baseline
1086.000,268.000,62.200,16.940,1012.000,242.800,54.000,13.970,92.460,34.430,9.719,3.407,258.800,81.480,25.010,8.210,baseline
1085.000,268.400,62.610,17.040,1009.000,243.300,54.290,13.960,92.120,34.740,9.824,3.425,258.700,82.420,24.980,8.306,baseline
1082.000,268.700,62.930,17.140,1005.000,243.100,54.430,13.980,94.320,35.160,9.800,3.426,261.200,82.400,25.040,8.285,baseline
1084.000,269.900,63.620,17.220,1006.000,243.100,54.180,14.010,93.640,35.220,9.796,3.464,261.800,82.420,25.270,8.349,baseline
1087.000,269.900,63.070,17.290,1003.000,243.200,54.570,14.060,94.970,35.510,9.706,3.435,261.500,83.380,25.180,8.306,baseline
1089.000,270.800,63.270,17.420,1008.000,243.200,55.150,14.030,98.750,35.570,9.778,3.470,264.700,83.500,25.520,8.390,baseline
1089.000,271.500,64.290,17.440,1005.000,243.100,54.560,13.960,93.410,35.700,9.906,3.429,263.600,83.260,25.240,8.235,baseline
1083.000,269.000,60.650,17.190,999.900,242.800,54.130,13.980,96.540,35.880,9.891,3.392,261.000,82.380,24.980,8.155,baseline
1080.000,268.500,62.590,17.040,1002.000,242.400,54.160,13.960,96.560,35.390,9.782,3.360,261.200,82.980,25.060,8.148,baseline
1080.000,268.700,63.060,17.150,1002.000,243.500,54.780,13.970,98.320,35.590,9.884,3.385,261.200,82.510,25.190,8.228,baseline
1084.000,270.000,62.820,17.140,1001.000,244.000,54.490,14.030,96.220,35.260,9.951,3.433,261.200,82.950,25.200,8.244,baseline
1083.000,270.700,63.500,17.280,1002.000,245.600,55.090,14.080,96.020,35.420,9.909,3.430,261.800,82.860,25.290,8.219,baseline
1086.000,272.000,65.090,17.340,1005.000,246.300,54.780,14.110,96.150,35.900,10.010,3.402,260.800,82.840,25.570,8.159,baseline
1093.000,274.500,63.670,17.420,1005.000,245.900,54.920,14.130,97.430,35.870,10.020,3.396,261.900,82.800,25.930,8.231,baseline
1095.000,273.900,65.050,17.540,1004.000,246.500,55.260,14.100,94.380,35.550,9.970,3.425,265.300,83.950,25.660,8.270,baseline
1097.000,274.900,65.370,17.570,1003.000,247.200,55.250,14.110,92.280,35.870,10.020,3.412,265.200,84.490,26.140,8.318,baseline
1100.000,275.700,64.640,17.680,1008.000,247.100,55.700,14.160,97.790,35.840,10.020,3.482,267.900,84.520,25.850,8.350,baseline
1099.000,275.400,64.640,17.490,1008.000,246.800,55.370,14.080,100.600,36.730,9.975,3.391,264.700,83.240,25.470,8.251,baseline
1095.000,271.800,62.820,17.350,1007.000,246.900,55.280,14.170,95.070,35.400,10.020,3.428,262.100,82.720,25.660,8.162,baseline
1095.000,273.800,63.080,17.410,1011.000,246.500,54.990,14.100,95.320,35.580,10.080,3.380,262.800,82.950,25.420,8.201,baseline
1099.000,273.700,63.850,17.470,1008.000,246.700,55.340,14.130,95.920,35.710,9.994,3.465,262.800,82.910,25.410,8.191,baseline
1097.000,274.300,64.210,17.420,1012.000,246.600,54.900,14.170,94.790,35.510,10.050,3.458,262.000,83.370,25.520,8.191,baseline
1099.000,273.600,64.370,17.440,1010.000,248.000,54.750,14.180,96.560,35.380,10.030,3.415,262.700,83.580,25.700,8.278,baseline
1101.000,275.300,64.860,17.550,1014.000,247.800,55.460,14.240,96.480,35.850,10.110,3.419,264.100,83.690,25.680,8.312,baseline
1104.000,275.900,65.320,17.620,1016.000,248.800,55.520,14.230,100.800,35.720,10.160,3.458,265.200,83.950,25.990,8.324,baseline
1108.000,276.800,65.620,17.650,1016.000,249.600,55.660,14.260,94.320,35.530,9.989,3.472,264.400,84.040,26.000,8.393,baseline
1111.000,276.900,65.150,17.540,1023.000,248.800,55.610,14.190,93.020,35.820,10.180,3.497,261.600,83.310,25.550,8.277,baseline
1106.000,275.000,63.520,17.460,1022.000,249.700,55.160,14.220,96.020,35.300,10.050,3.453,259.400,82.660,25.340,8.285,baseline
1110.000,274.900,62.920,17.470,1024.000,249.700,55.770,14.240,95.010,35.120,10.210,3.466,258.900,82.410,25.460,8.387,baseline
1112.000,276.500,64.620,17.620,1024.000,249.700,55.790,14.280,94.150,35.490,10.240,3.449,260.900,83.300,25.660,8.327,baseline
1114.000,275.500,63.870,17.560,1027.000,249.800,55.870,14.300,96.680,35.660,10.160,3.472,262.600,82.680,25.840,8.316,baseline
1117.000,277.000,64.140,17.660,1031.000,249.700,55.670,14.320,96.940,35.390,10.190,3.473,259.000,82.720,25.760,8.393,baseline
1121.000,276.800,64.670,17.690,1037.000,251.100,55.980,14.370,98.230,35.460,10.100,3.481,263.600,83.150,26.000,8.473,baseline
1126.000,277.400,65.710,17.710,1037.000,250.800,55.630,14.370,92.480,35.450,10.010,3.509,263.400,83.950,26.480,8.550,baseline
1128.000,278.500,64.920,17.770,1040.000,250.300,55.930,14.380,96.140,35.040,10.210,3.533,265.300,84.440,26.500,8.665,baseline
1131.000,280.000,64.030,17.810,1034.000,250.800,55.800,14.310,97.660,35.880,10.300,3.517,264.800,84.060,26.220,8.496,baseline
1122.000,276.600,63.500,17.530,1034.000,249.700,55.080,14.270,93.870,35.330,10.240,3.460,262.800,82.570,25.840,8.334,baseline
1118.000,275.700,63.180,17.480,1036.000,250.100,55.460,14.250,95.930,35.770,10.070,3.419,262.500,81.390,25.670,8.318,baseline
1120.000,277.000,63.160,17.520,1038.000,250.900,55.810,14.280,94.700,35.350,10.230,3.452,261.400,82.020,25.950,8.395,baseline
1124.000,276.800,64.270,17.530,1039.000,251.100,55.700,14.300,94.600,35.420,10.180,3.488,258.400,82.480,25.890,8.382,baseline
1123.000,277.800,63.070,17.560,1039.000,251.100,55.820,14.330,94.600,35.420,10.130,3.456,260.200,82.450,25.980,8.470,baseline
1127.000,277.300,63.420,17.620,1045.000,251.200,55.730,14.320,99.380,35.710,10.240,3.547,263.000,82.020,25.880,8.433,baseline
1130.000,278.900,63.890,17.640,1050.000,251.200,55.060,14.350,97.310,35.960,10.330,3.487,262.900,83.570,26.160,8.562,baseline
1134.000,278.900,64.660,17.740,1051.000,252.500,56.170,14.390,94.170,35.690,10.270,3.551,264.300,83.190,26.220,8.561,baseline
1138.000,280.300,64.680,17.800,1053.000,253.000,55.970,14.410,97.000,35.770,10.360,3.511,265.300,83.820,26.320,8.670,baseline
1141.000,280.400,64.760,17.840,1053.000,253.000,55.220,14.320,95.500,35.460,10.330,3.538,266.900,83.590,26.290,8.474,baseline
1134.000,278.100,63.910,17.490,1053.000,251.900,55.640,14.310,93.390,35.330,10.190,3.488,262.200,83.480,25.620,8.418,baseline
1131.000,277.000,64.790,17.490,1054.000,253.000,55.240,14.340,97.230,35.410,10.300,3.495,261.400,82.590,25.670,8.475,baseline
1133.000,277.500,63.970,17.500,1057.000,252.800,55.660,14.300,92.540,35.280,10.280,3.469,263.500,81.950,25.790,8.527,baseline
1133.000,277.300,64.690,17.520,1055.000,252.600,56.040,14.290,99.770,35.310,10.270,3.515,262.800,82.890,25.760,8.393,baseline
1133.000,278.700,63.300,17.600,1057.000,252.900,55.570,14.350,98.540,35.370,10.210,3.479,261.800,82.940,26.050,8.431,baseline
1135.000,277.600,63.330,17.610,1059.000,253.000,55.700,14.390,94.780,35.370,10.060,3.474,264.300,82.740,26.010,8.477,baseline
1137.000,279.700,64.040,17.700,1059.000,253.000,56.300,14.350,98.630,35.270,10.250,3.520,264.600,82.940,26.160,8.448,baseline
1139.000,277.800,64.430,17.730,1058.000,253.000,56.650,14.430,98.070,35.470,10.190,3.561,266.100,83.120,26.220,8.601,baseline
1141.000,280.600,64.840,17.770,1060.000,253.100,56.040,14.430,97.520,35.550,10.280,3.526,267.300,83.870,26.290,8.616,baseline
1144.000,280.200,66.130,17.720,1060.000,252.600,55.370,14.330,98.220,35.320,10.300,3.510,266.000,82.820,25.630,8.478,baseline
1132.000,278.200,64.290,17.460,1054.000,252.600,54.990,14.340,96.700,35.490,10.230,3.466,263.600,83.190,25.630,8.430,baseline
1129.000,276.500,65.070,17.480,1055.000,251.800,55.180,14.320,94.170,35.220,10.230,3.503,262.900,82.730,25.740,8.379,baseline
1131.000,278.200,64.430,17.510,1053.000,252.300,55.860,14.320,100.600,35.570,10.140,3.494,262.300,82.320,25.880,8.394,baseline
1131.000,278.100,64.580,17.500,1058.000,252.600,55.610,14.300,93.180,35.270,10.220,3.538,262.800,83.130,25.740,8.379,baseline
1131.000,278.000,64.290,17.450,1061.000,253.000,55.580,14.330,93.770,35.960,10.230,3.503,263.400,82.700,25.570,8.474,baseline
1133.000,277.800,64.200,17.570,1060.000,252.800,56.340,14.320,98.540,35.250,10.190,3.496,263.600,82.780,25.830,8.466,baseline
1134.000,278.500,63.140,17.620,1061.000,252.600,56.220,14.410,95.850,35.200,10.030,3.545,265.100,83.510,25.930,8.538,baseline
1137.000,278.800,63.640,17.690,1059.000,252.500,56.300,14.330,96.020,36.000,10.200,3.536,266.200,83.500,26.320,8.555,baseline
1138.000,278.100,63.490,17.510,1061.000,252.600,55.880,14.260,92.050,35.650,10.170,3.535,263.000,83.250,25.610,8.458,baseline
1131.000,276.600,64.290,17.370,1062.000,252.500,55.550,14.280,93.820,35.420,10.160,3.493,263.700,83.090,25.610,8.384,baseline
1132.000,276.900,64.130,17.320,1063.000,252.700,55.540,14.340,95.610,35.100,10.110,3.539,263.200,82.710,25.810,8.416,baseline
1133.000,277.800,63.970,17.380,1064.000,252.700,55.590,14.330,96.840,36.000,10.190,3.532,262.300,83.010,25.940,8.489,baseline
1133.000,278.100,64.030,17.410,1062.000,252.700,55.600,14.310,93.620,35.370,10.250,3.504,264.500,83.380,25.760,8.441,baseline
1133.000,277.200,64.620,17.430,1063.000,253.700,55.820,14.300,95.550,35.140,10.200,3.534,263.600,83.730,25.770,8.483,baseline
1135.000,277.900,64.960,17.510,1064.000,253.200,56.060,14.370,97.620,35.630,10.260,3.536,265.700,83.960,26.000,8.563,baseline
1134.000,278.200,64.250,17.590,1062.000,252.900,55.800,14.360,96.720,35.350,10.270,3.555,264.700,83.870,26.020,8.659,baseline
1135.000,279.300,63.720,17.610,1059.000,253.100,55.920,14.320,95.240,35.220,10.320,3.567,265.900,84.220,26.070,8.663,baseline
1136.000,279.400,64.980,17.760,1063.000,252.500,56.000,14.340,93.560,35.560,10.210,3.568,267.300,84.710,26.240,8.650,baseline
1135.000,278.300,64.260,17.550,1056.000,251.600,55.650,14.210,90.820,35.790,10.280,3.558,266.600,83.610,25.710,8.500,baseline
1123.000,276.800,63.210,17.250,1055.000,251.200,55.210,14.210,97.210,35.440,10.190,3.513,263.500,83.210,25.800,8.380,baseline
1122.000,276.700,63.590,17.340,1050.000,251.000,55.760,14.260,94.960,35.820,10.120,3.513,264.200,83.640,25.750,8.333,baseline
1124.000,276.300,62.900,17.310,1057.000,250.900,55.550,14.270,96.250,35.500,10.150,3.512,264.200,83.340,25.770,8.388,baseline
1123.000,275.800,64.540,17.340,1053.000,250.700,55.240,14.250,96.990,35.440,10.250,3.506,262.700,83.730,25.800,8.422,baseline
1123.000,276.800,63.470,17.350,1053.000,251.400,55.160,14.280,96.610,35.540,10.180,3.533,264.900,83.640,26.000,8.356,baseline
1125.000,275.800,63.380,17.360,1054.000,251.700,55.220,14.320,94.580,35.720,10.300,3.520,265.500,83.840,26.070,8.538,baseline
1125.000,277.200,64.420,17.470,1054.000,251.700,54.980,14.270,95.150,36.370,10.290,3.592,265.400,83.950,26.030,8.536,baseline
1126.000,278.900,63.220,17.510,1052.000,251.100,55.760,14.280,95.580,35.830,10.330,3.566,265.600,84.490,26.190,8.605,baseline
1126.000,277.300,63.200,17.630,1048.000,251.600,55.760,14.290,98.130,36.030,10.310,3.518,269.000,85.310,25.990,8.581,baseline
1126.000,278.000,64.050,17.410,1051.000,250.500,55.410,14.200,92.020,35.900,10.270,3.569,269.100,84.380,25.900,8.538,baseline
1116.000,276.500,63.470,17.260,1045.000,249.600,55.700,14.190,93.140,36.140,10.200,3.564,263.900,83.620,25.710,8.386,baseline
1114.000,275.700,63.440,17.280,1043.000,250.100,54.850,14.210,96.890,35.870,10.200,3.566,265.100,83.950,25.860,8.510,baseline
1116.000,275.500,63.700,17.310,1043.000,249.500,55.400,14.220,94.960,35.750,10.350,3.597,265.100,83.880,25.970,8.450,baseline
1116.000,276.100,64.210,17.370,1043.000,249.900,55.750,14.200,94.880,35.710,10.270,3.553,264.200,83.390,25.920,8.434,baseline
1117.000,275.600,64.430,17.300,1043.000,249.300,55.490,14.230,97.350,35.720,10.350,3.571,266.000,83.550,26.160,8.503,baseline
1119.000,276.800,64.420,17.450,1047.000,249.900,54.660,14.250,95.690,35.960,10.270,3.549,266.000,84.300,25.810,8.542,baseline
1121.000,276.600,64.290,17.500,1044.000,250.000,55.470,14.290,93.250,36.220,10.320,3.529,266.200,84.240,26.020,8.510,baseline
1124.000,277.900,64.710,17.540,1049.000,250.600,54.930,14.300,92.450,35.530,10.220,3.605,268.100,84.810,26.210,8.665,baseline
1127.000,277.100,64.670,17.630,1048.000,250.100,55.210,14.300,96.660,36.250,10.280,3.625,266.700,84.750,26.430,8.648,baseline
1126.000,277.700,64.930,17.410,1044.000,250.100,55.260,14.110,97.130,36.000,10.240,3.578,264.900,84.310,26.070,8.505,baseline
1119.000,276.800,63.040,17.350,1048.000,249.800,55.020,14.200,93.950,35.960,10.250,3.580,265.800,83.940,25.890,8.497,baseline
1120.000,275.700,63.640,17.360,1048.000,249.400,55.380,14.180,95.890,35.620,10.300,3.559,264.900,84.080,25.910,8.509,baseline
1122.000,277.500,63.330,17.420,1052.000,249.700,55.310,14.200,95.030,35.650,10.280,3.526,267.400,84.100,26.060,8.501,baseline
1121.000,277.600,63.180,17.390,1049.000,249.900,54.820,14.220,93.790,35.540,10.260,3.574,264.800,84.270,26.190,8.586,baseline
1125.000,275.300,62.890,17.460,1047.000,249.600,55.070,14.260,95.830,36.010,10.250,3.554,266.100,84.230,26.070,8.439,baseline
1125.000,276.500,65.380,17.520,1051.000,250.100,55.220,14.290,96.040,35.140,10.340,3.558,266.500,84.130,26.430,8.543,baseline
1126.000,278.400,64.820,17.530,1050.000,250.600,55.090,14.270,91.810,36.290,10.360,3.576,267.900,85.430,26.530,8.664,baseline
1129.000,279.800,64.920,17.610,1052.000,250.000,55.550,14.310,95.540,36.020,10.310,3.599,269.500,85.060,26.550,8.678,baseline
1131.000,278.000,65.450,17.690,1045.000,249.700,55.340,14.220,93.120,35.620,10.390,3.570,268.400,84.670,26.220,8.470,baseline
1123.000,275.700,64.030,17.420,1042.000,248.800,55.590,14.160,94.510,35.660,10.210,3.581,264.800,83.750,26.370,8.482,baseline
1122.000,277.700,64.270,17.420,1045.000,249.100,54.750,14.220,92.770,35.560,10.240,3.558,265.300,84.160,26.150,8.398,baseline
1123.000,278.000,63.630,17.480,1045.000,249.500,54.800,14.230,96.550,35.580,10.300,3.551,262.800,84.260,25.930,8.440,baseline
1125.000,278.400,63.770,17.460,1046.000,248.800,55.410,14.240,92.380,35.340,10.200,3.537,265.400,84.470,26.090,8.464,baseline
1125.000,279.000,64.430,17.510,1047.000,249.500,55.740,14.190,93.710,35.430,10.260,3.534,266.100,84.170,26.020,8.446,baseline
1127.000,277.100,63.970,17.480,1046.000,249.400,55.050,14.230,94.210,35.460,10.270,3.542,267.100,84.210,26.230,8.496,baseline
1130.000,278.700,63.710,17.640,1050.000,249.800,55.010,14.250,92.600,35.240,10.230,3.564,266.600,84.920,26.320,8.677,baseline
1131.000,278.400,64.780,17.750,1047.000,249.500,55.150,14.240,95.840,35.610,10.260,3.557,268.500,84.880,26.470,8.643,baseline
1133.000,280.900,65.270,17.690,1048.000,249.600,54.930,14.260,95.610,36.030,10.180,3.595,269.300,85.500,26.330,8.673,baseline
1133.000,280.800,65.950,17.730,1046.000,249.200,54.600,14.110,93.870,35.250,10.390,3.558,266.500,84.860,26.110,8.551,baseline
1124.000,276.800,64.700,17.440,1040.000,247.700,54.630,14.080,96.470,35.580,10.340,3.530,264.600,84.340,25.870,8.408,baseline
1121.000,276.100,63.890,17.400,1040.000,247.700,54.860,14.110,92.360,35.370,10.230,3.520,264.500,83.840,25.650,8.447,baseline
1119.000,277.100,64.470,17.460,1041.000,247.200,54.430,14.140,97.420,35.800,10.100,3.514,264.800,83.180,25.810,8.402,baseline
1120.000,276.400,62.770,17.450,1037.000,247.500,54.550,14.110,92.030,35.390,10.130,3.534,263.000,84.030,25.900,8.444,baseline
1118.000,276.800,64.460,17.420,1037.000,247.000,54.880,14.100,90.300,35.550,10.080,3.495,261.600,84.420,25.900,8.433,baseline
1117.000,276.900,64.460,17.530,1034.000,247.400,55.300,14.120,93.250,35.600,10.040,3.492,264.300,84.220,26.070,8.456,baseline
1119.000,278.000,64.380,17.590,1034.000,246.500,54.870,14.160,92.930,35.770,10.210,3.526,264.900,85.290,26.220,8.543,baseline
1121.000,278.300,64.130,17.620,1031.000,247.700,54.550,14.100,96.880,35.450,10.190,3.500,268.200,85.040,26.270,8.481,baseline
1122.000,279.900,64.570,17.660,1032.000,247.200,54.930,14.170,95.200,35.800,10.390,3.534,270.200,85.560,26.420,8.557,baseline
1124.000,279.800,65.830,17.730,1028.000,246.700,55.200,14.160,98.760,36.090,10.340,3.523,270.600,85.800,26.580,8.653,baseline
1125.000,280.000,64.410,17.660,1027.000,246.900,54.660,14.060,95.500,35.950,10.210,3.508,268.500,85.260,26.340,8.427,baseline
1114.000,276.600,66.090,17.390,1033.000,245.900,53.830,14.070,96.820,36.590,10.110,3.507,265.200,84.940,26.130,8.436,baseline
1114.000,275.700,64.110,17.530,1028.000,246.000,54.150,14.040,95.410,35.700,10.180,3.483,265.300,84.560,26.130,8.412,baseline
1115.000,276.500,64.690,17.570,1026.000,246.200,54.260,14.050,96.260,35.980,10.170,3.491,268.300,84.500,25.840,8.411,baseline
1114.000,276.300,63.890,17.490,1024.000,245.700,54.910,14.040,96.190,35.550,10.090,3.504,266.100,84.330,26.040,8.389,baseline
1114.000,276.800,64.420,17.570,1024.000,245.200,54.260,13.980,96.290,35.580,10.180,3.485,267.600,84.630,26.320,8.461,baseline
1115.000,277.600,64.310,17.610,1027.000,246.300,55.490,14.020,97.460,35.670,10.220,3.564,268.200,84.820,26.460,8.371,baseline
1116.000,279.300,65.000,17.660,1025.000,246.200,54.880,14.030,94.110,35.780,10.310,3.482,266.300,85.520,26.180,8.527,baseline
1118.000,279.800,65.180,17.810,1026.000,246.300,54.760,14.100,98.820,35.900,10.210,3.529,270.600,85.380,26.430,8.537,baseline
1121.000,279.700,64.660,17.790,1023.000,245.900,54.160,13.980,95.670,35.970,10.100,3.488,269.400,85.270,26.370,8.386,baseline
1113.000,276.900,64.750,17.520,1018.000,245.400,54.180,14.030,99.570,35.980,10.180,3.476,267.400,84.560,26.120,8.398,baseline
1111.000,276.100,65.150,17.550,1022.000,245.100,54.080,14.010,96.700,36.050,10.190,3.491,266.300,84.180,26.120,8.339,baseline
1113.000,277.500,65.300,17.640,1020.000,245.500,54.740,14.030,99.360,36.160,10.160,3.477,267.600,84.800,26.220,8.355,baseline
1113.000,278.000,65.580,17.610,1020.000,245.300,54.080,14.010,93.990,35.940,10.190,3.463,268.300,85.150,25.980,8.403,baseline
1112.000,277.300,65.510,17.620,1016.000,245.600,54.410,14.070,92.270,35.570,10.160,3.483,267.100,84.950,26.070,8.393,baseline
1114.000,278.600,64.390,17.730,1017.000,245.600,54.460,14.070,96.980,35.960,10.150,3.478,265.300,84.940,26.230,8.393,baseline
1116.000,279.300,65.380,17.920,1018.000,247.500,55.170,14.140,97.590,36.230,10.240,3.453,271.000,85.270,26.410,8.560,baseline
1119.000,282.600,66.110,17.990,1019.000,246.900,55.350,14.130,97.910,35.570,10.230,3.483,268.400,85.560,26.580,8.503,baseline
1120.000,280.700,64.680,17.780,1012.000,246.700,54.390,14.010,97.390,35.870,10.170,3.466,267.800,84.730,26.200,8.425,baseline
1110.000,278.000,64.190,17.630,1016.000,246.700,54.850,14.030,96.860,35.680,10.130,3.450,265.600,84.600,25.900,8.345,baseline
1110.000,279.900,65.450,17.700,1012.000,246.300,55.090,14.080,101.500,36.240,10.050,3.448,265.400,84.020,25.980,8.322,baseline
1112.000,280.100,66.370,17.760,1012.000,247.600,55.120,14.080,98.110,36.160,10.200,3.445,267.600,84.040,25.950,8.376,baseline
1111.000,281.600,66.810,17.820,1017.000,249.000,55.130,14.180,98.540,35.470,10.210,3.469,267.900,83.890,25.680,8.285,baseline
1114.000,281.500,66.890,17.820,1011.000,248.900,55.170,14.110,97.100,36.070,10.110,3.446,268.300,84.250,26.150,8.349,baseline
1116.000,282.000,66.490,17.890,1011.000,249.100,55.020,14.140,101.200,35.790,10.120,3.445,268.800,84.910,26.320,8.337,baseline
1118.000,282.700,67.280,17.940,1011.000,248.400,54.810,14.170,98.140,35.530,10.130,3.464,268.200,84.900,26.360,8.430,baseline
1122.000,283.200,66.800,17.990,1015.000,248.100,55.180,14.150,94.030,36.210,10.170,3.496,272.000,85.540,26.220,8.313,baseline
1118.000,281.800,65.680,17.740,1010.000,247.400,55.170,14.080,93.900,36.470,10.050,3.444,267.200,83.610,25.790,8.257,baseline
1110.000,280.300,65.110,17.670,1010.000,247.600,54.960,14.120,96.460,35.480,10.020,3.445,263.800,83.240,25.680,8.204,baseline
1110.000,280.600,65.990,17.700,1009.000,247.800,54.760,14.080,94.920,35.660,10.030,3.429,265.100,83.170,25.760,8.148,baseline
1112.000,280.700,65.640,17.610,1007.000,247.400,54.820,14.100,95.300,35.760,10.210,3.451,265.800,84.020,25.990,8.257,baseline
1110.000,279.700,65.970,17.680,1006.000,247.300,54.910,14.110,100.200,35.910,10.080,3.442,266.800,83.840,25.740,8.199,baseline
1111.000,280.400,65.180,17.670,1009.000,248.100,54.980,14.120,94.280,35.200,10.030,3.437,264.800,83.950,25.830,8.209,baseline
1112.000,280.500,65.260,17.780,1004.000,247.600,54.780,14.140,98.810,35.910,10.250,3.422,266.600,83.740,25.640,8.260,baseline
1114.000,280.700,66.840,17.800,1009.000,247.600,54.800,14.140,94.690,35.910,10.180,3.474,268.300,84.620,26.110,8.263,baseline
1115.000,280.800,67.010,17.910,1010.000,247.400,54.730,14.170,97.020,36.280,10.270,3.457,270.300,84.480,26.150,8.341,baseline
1116.000,280.900,65.810,17.690,1002.000,246.800,55.150,14.030,97.160,36.350,10.200,3.425,266.800,83.430,25.530,8.152,baseline
1104.000,278.000,64.260,17.500,996.800,246.500,54.520,14.010,99.260,36.290,10.120,3.406,264.500,83.210,25.400,8.104,baseline
1103.000,277.200,64.730,17.490,1001.000,246.600,55.100,14.020,99.940,36.310,10.180,3.442,264.400,82.450,25.320,8.020,baseline
1103.000,277.500,65.000,17.520,998.000,247.200,55.020,14.020,96.000,36.510,10.040,3.432,264.000,83.130,25.400,8.008,baseline
1104.000,277.800,64.310,17.460,996.900,246.100,55.260,14.050,97.260,35.890,10.060,3.429,263.600,83.620,25.510,8.116,baseline
1103.000,278.700,64.200,17.440,1000.000,247.000,54.750,14.030,95.820,36.080,10.100,3.421,264.100,82.910,25.380,8.087,baseline
1104.000,279.300,65.320,17.560,1003.000,246.900,54.900,14.090,95.280,36.210,10.090,3.444,266.000,83.290,25.490,8.184,baseline
1106.000,279.400,65.620,17.600,1003.000,247.300,55.010,14.080,99.190,35.940,10.190,3.440,266.000,83.520,25.660,8.257,baseline
1107.000,279.400,65.080,17.630,1001.000,247.400,54.580,14.110,97.700,36.500,10.280,3.445,267.000,84.050,25.800,8.232,baseline
1110.000,279.500,65.790,17.710,1005.000,248.000,54.680,14.120,98.290,36.400,10.210,3.495,267.800,84.130,26.060,8.313,baseline
1109.000,279.200,65.120,17.470,1001.000,246.300,54.780,14.030,98.890,35.890,10.170,3.451,266.200,83.630,25.690,8.073,baseline
1099.000,276.300,65.000,17.340,997.400,246.400,54.760,14.030,97.430,35.920,10.210,3.435,265.300,83.420,25.450,8.002,baseline
1099.000,275.400,65.300,17.320,997.300,246.700,54.410,14.030,101.000,36.500,10.210,3.482,265.100,82.580,25.380,8.107,baseline
1099.000,276.100,64.090,17.370,993.200,245.800,54.870,14.010,100.800,36.410,10.090,3.410,266.700,83.070,25.340,8.054,baseline
1099.000,276.100,64.450,17.400,994.900,247.000,54.870,14.040,98.530,36.610,10.030,3.429,264.200,83.130,25.210,8.098,baseline
1099.000,276.600,65.080,17.420,993.000,247.400,55.090,14.060,99.780,36.640,10.160,3.469,266.300,83.710,25.530,8.078,baseline
1101.000,276.700,65.270,17.480,994.700,247.300,54.710,14.140,96.250,36.450,10.300,3.475,266.200,83.820,25.500,8.168,baseline
1102.000,278.600,64.110,17.460,999.900,247.300,55.010,14.150,95.630,36.370,10.280,3.456,266.400,84.180,25.940,8.249,baseline
1105.000,278.000,64.920,17.580,1000.000,248.000,55.680,14.140,96.780,36.620,10.320,3.445,268.400,84.570,25.980,8.233,baseline
1106.000,278.900,65.440,17.620,1003.000,248.200,54.430,14.100,98.680,36.490,10.240,3.467,268.700,84.550,25.950,8.129,baseline
1101.000,276.600,65.340,17.380,995.100,247.500,54.560,14.060,97.270,36.770,10.200,3.438,266.100,83.770,25.330,8.030,baseline
1097.000,275.300,65.410,17.350,997.700,248.400,54.640,14.060,97.770,36.740,10.250,3.483,265.500,83.300,25.480,8.036,baseline
1100.000,277.300,65.610,17.440,997.400,248.500,54.820,14.130,98.300,36.540,10.330,3.471,267.300,83.390,25.620,8.056,baseline
1101.000,277.500,64.990,17.380,995.800,248.900,54.650,14.130,94.360,36.880,10.350,3.483,266.900,83.300,25.710,7.998,baseline
1102.000,277.600,64.750,17.410,994.400,248.900,55.760,14.140,100.300,37.110,10.210,3.467,268.100,83.420,25.600,8.209,baseline
1104.000,278.200,64.000,17.460,996.700,249.800,55.760,14.190,98.060,36.570,10.310,3.483,267.600,83.720,25.580,8.163,baseline
1107.000,279.200,65.850,17.530,996.300,249.800,55.870,14.240,101.500,36.840,10.310,3.491,267.900,84.840,25.960,8.218,baseline
1111.000,279.400,65.700,17.650,1003.000,250.200,55.850,14.210,99.540,37.190,10.350,3.503,269.500,84.810,25.970,8.261,baseline
1116.000,280.900,64.260,17.690,1007.000,250.200,55.640,14.200,99.350,37.130,10.340,3.498,269.500,85.040,25.740,8.233,baseline
1110.000,278.400,64.430,17.350,1002.000,249.500,55.850,14.150,103.000,36.470,10.370,3.492,267.200,83.860,25.680,8.106,baseline
1107.000,278.400,64.510,17.310,1002.000,249.900,55.250,14.180,102.900,36.750,10.360,3.443,265.600,83.340,25.780,8.123,baseline
1108.000,277.000,65.240,17.340,999.900,250.600,55.350,14.190,96.930,37.250,10.360,3.502,268.300,83.390,25.830,8.099,baseline
1109.000,277.500,64.510,17.410,999.800,250.300,55.760,14.200,97.660,36.880,10.400,3.554,266.700,84.110,25.550,8.139,baseline
1108.000,277.700,65.120,17.400,1003.000,250.600,55.380,14.190,96.840,37.070,10.420,3.468,266.900,84.180,25.780,8.203,baseline
1111.000,277.500,65.260,17.490,1004.000,251.200,55.080,14.250,99.450,37.120,10.460,3.518,266.700,84.490,25.760,8.245,baseline
1113.000,277.500,65.220,17.580,1005.000,251.100,55.890,14.300,101.100,37.160,10.460,3.513,269.300,84.730,26.140,8.257,baseline
1116.000,279.100,64.350,17.620,1009.000,250.700,56.310,14.300,97.110,37.770,10.460,3.537,270.900,84.910,26.390,8.270,baseline
1118.000,280.000,66.950,17.690,1010.000,251.300,56.440,14.300,97.900,36.970,10.410,3.551,270.700,86.150,26.090,8.360,baseline
1121.000,280.100,65.080,17.760,1015.000,251.900,56.130,14.340,99.540,37.260,10.480,3.541,271.600,85.550,26.350,8.362,baseline
1121.000,280.500,65.520,17.520,1011.000,251.800,55.950,14.250,99.050,37.300,10.480,3.539,269.100,84.350,25.980,8.256,baseline
1112.000,276.500,63.480,17.300,1013.000,251.100,55.820,14.250,95.340,37.370,10.500,3.523,268.600,84.430,26.120,8.235,baseline
1112.000,277.500,65.250,17.350,1010.000,251.000,55.550,14.270,101.500,37.410,10.450,3.505,267.300,84.420,25.770,8.280,baseline
1113.000,276.800,64.870,17.410,1014.000,251.400,55.410,14.300,98.330,37.200,10.360,3.521,266.300,84.830,25.930,8.290,baseline
1113.000,278.000,63.590,17.370,1012.000,251.600,55.470,14.280,95.830,37.110,10.390,3.541,268.100,84.390,25.900,8.212,baseline
1113.000,276.500,64.380,17.390,1015.000,252.100,55.740,14.340,99.580,37.160,10.430,3.501,269.900,84.800,26.000,8.269,baseline
1115.000,278.300,64.420,17.530,1016.000,252.000,56.080,14.290,98.880,37.040,10.490,3.506,269.600,85.630,26.490,8.324,baseline
1118.000,279.500,65.450,17.560,1018.000,253.500,56.120,14.350,99.850,37.150,10.440,3.576,270.800,85.450,26.070,8.351,baseline
1121.000,280.500,64.970,17.660,1019.000,253.700,56.380,14.400,97.500,37.200,10.530,3.536,272.100,85.890,26.520,8.310,baseline
1123.000,280.800,65.860,17.740,1020.000,254.300,56.060,14.420,100.500,37.570,10.560,3.563,273.200,85.630,26.620,8.432,baseline
1126.000,281.100,65.700,17.800,1021.000,254.100,57.120,14.380,99.740,37.660,10.540,3.573,273.800,86.340,26.480,8.354,baseline
1123.000,281.400,64.330,17.500,1019.000,253.100,56.660,14.320,98.780,37.860,10.520,3.531,270.800,85.070,26.110,8.262,baseline
1117.000,278.100,65.220,17.440,1020.000,253.600,56.390,14.360,100.700,37.690,10.580,3.532,271.000,84.870,26.290,8.257,baseline
1117.000,278.600,65.650,17.450,1023.000,253.700,56.120,14.400,102.600,37.040,10.430,3.536,271.300,85.440,26.260,8.247,baseline
1120.000,280.300,65.990,17.600,1019.000,254.100,56.370,14.430,102.200,37.360,10.630,3.564,269.300,85.520,26.350,8.278,baseline
1119.000,280.600,66.250,17.580,1023.000,254.600,56.550,14.450,100.400,37.640,10.620,3.536,270.100,85.860,26.390,8.292,baseline
1122.000,281.100,67.400,17.660,1020.000,255.500,56.950,14.490,102.600,37.660,10.520,3.549,272.200,86.260,26.510,8.359,baseline
1124.000,282.000,66.510,17.800,1022.000,256.200,56.930,14.550,102.300,37.990,10.510,3.559,274.300,86.590,26.500,8.367,baseline
1128.000,282.600,67.400,17.870,1022.000,256.000,56.860,14.560,100.100,38.120,10.620,3.545,275.100,87.020,26.710,8.414,baseline
1131.000,284.600,68.410,17.950,1025.000,256.800,57.180,14.560,104.800,38.170,10.630,3.572,276.400,86.910,26.870,8.518,baseline
1135.000,286.500,67.210,18.040,1025.000,257.600,57.490,14.580,99.010,37.740,10.510,3.581,275.800,87.390,27.100,8.513,baseline
1138.000,287.200,67.460,18.030,1024.000,257.400,57.220,14.530,102.300,37.700,10.690,3.565,274.700,86.240,26.560,8.354,baseline
1129.000,283.500,66.790,17.760,1023.000,256.700,56.540,14.480,101.500,37.400,10.600,3.553,275.200,85.960,26.650,8.426,baseline
1129.000,283.800,67.130,17.770,1027.000,256.600,57.060,14.520,102.200,37.390,10.470,3.544,271.300,86.210,26.540,8.320,baseline
1132.000,284.900,67.370,17.900,1028.000,256.800,57.440,14.580,99.340,37.870,10.670,3.546,273.500,86.810,26.690,8.377,baseline
1132.000,284.600,67.520,17.830,1026.000,256.600,57.190,14.510,102.400,37.790,10.510,3.572,272.700,86.320,26.520,8.387,baseline
1132.000,284.500,67.390,17.870,1027.000,257.800,57.120,14.550,102.900,37.890,10.560,3.524,272.300,87.110,26.570,8.347,baseline
1136.000,286.200,68.140,18.000,1027.000,257.700,56.620,14.560,97.660,37.870,10.700,3.563,275.800,86.660,26.740,8.489,baseline
1138.000,284.800,68.290,18.030,1028.000,257.700,57.190,14.590,101.100,37.270,10.610,3.550,274.700,87.650,26.730,8.486,baseline
1141.000,287.700,68.040,18.180,1031.000,258.100,57.100,14.580,102.400,38.120,10.560,3.542,275.600,87.900,27.270,8.622,baseline
1143.000,287.100,67.900,18.090,1031.000,257.300,57.050,14.540,99.690,38.010,10.500,3.541,276.000,87.040,26.950,8.503,baseline
1135.000,283.600,66.170,17.830,1029.000,257.100,56.630,14.490,102.600,37.430,10.490,3.554,276.000,86.400,26.430,8.482,baseline
1135.000,284.800,67.220,17.900,1032.000,257.100,56.870,14.560,100.100,37.560,10.530,3.541,273.400,86.060,26.820,8.419,baseline
1139.000,285.200,66.580,17.990,1031.000,257.700,57.250,14.520,101.200,37.510,10.520,3.544,273.900,86.560,26.650,8.432,baseline
1138.000,286.100,68.190,17.910,1032.000,258.000,56.770,14.510,99.500,37.600,10.610,3.535,275.200,86.780,26.830,8.378,baseline
1139.000,285.500,68.250,18.020,1034.000,258.400,56.630,14.530,99.330,38.270,10.660,3.531,274.400,86.670,27.010,8.537,baseline
1142.000,287.200,67.640,18.070,1034.000,258.700,57.220,14.520,101.700,37.570,10.580,3.565,275.400,86.950,26.830,8.530,baseline
1144.000,288.700,68.730,18.190,1035.000,258.400,56.660,14.590,100.800,37.700,10.620,3.553,277.100,87.440,27.190,8.636,baseline
1146.000,288.600,68.470,18.290,1037.000,258.600,56.950,14.600,107.100,38.110,10.670,3.589,277.200,88.350,27.130,8.685,baseline
1150.000,288.800,68.830,18.300,1035.000,259.200,56.990,14.570,105.700,37.840,10.720,3.577,278.500,88.170,26.880,8.613,baseline
1145.000,287.400,69.410,18.050,1034.000,257.600,56.700,14.460,102.400,37.970,10.410,3.521,275.900,87.550,26.900,8.444,baseline
1139.000,285.300,67.040,17.950,1032.000,257.800,56.960,14.490,100.900,38.200,10.410,3.519,274.000,86.520,26.740,8.377,baseline
1139.000,286.100,66.810,17.980,1035.000,258.200,56.750,14.490,101.500,37.740,10.560,3.544,275.400,86.700,26.770,8.458,baseline
1141.000,286.600,66.530,18.030,1036.000,258.100,57.210,14.470,102.700,37.480,10.680,3.536,274.300,86.870,26.390,8.480,baseline
1140.000,285.600,67.860,17.990,1034.000,257.800,56.550,14.450,100.700,37.920,10.570,3.512,274.300,86.600,26.740,8.448,baseline
1141.000,285.600,67.080,18.060,1035.000,257.800,56.990,14.480,100.800,37.420,10.600,3.536,274.800,86.830,26.720,8.552,baseline
1145.000,287.500,67.020,18.140,1036.000,258.700,56.830,14.560,102.800,37.840,10.590,3.520,276.400,87.700,27.010,8.568,baseline
1147.000,288.000,68.080,18.230,1039.000,258.800,57.290,14.550,99.750,37.540,10.610,3.549,275.400,87.700,26.960,8.589,baseline
1149.000,288.000,68.480,18.290,1042.000,259.200,57.280,14.520,106.300,38.320,10.660,3.569,277.800,88.470,27.210,8.674,baseline
1151.000,289.500,69.130,18.350,1039.000,258.800,56.940,14.530,103.300,37.860,10.610,3.573,279.600,87.820,27.050,8.560,baseline
1145.000,285.900,67.680,18.040,1038.000,258.200,56.550,14.440,101.500,37.660,10.610,3.531,276.800,86.380,26.940,8.431,baseline
1140.000,285.600,67.200,18.000,1035.000,257.400,56.570,14.470,97.780,38.230,10.480,3.497,275.900,86.200,26.760,8.366,baseline
1140.000,285.000,67.520,18.050,1037.000,258.200,56.670,14.490,104.500,37.530,10.490,3.533,277.600,86.300,26.830,8.450,baseline
1141.000,285.900,66.370,18.020,1037.000,257.700,56.870,14.430,97.010,38.000,10.550,3.543,276.100,86.610,26.680,8.492,baseline
1139.000,286.000,66.970,18.010,1031.000,257.600,57.150,14.420,100.700,38.140,10.620,3.520,275.300,86.760,27.010,8.431,baseline
1142.000,285.800,68.160,17.980,1034.000,258.400,57.480,14.460,100.400,38.010,10.620,3.557,276.800,86.980,27.030,8.515,baseline
1143.000,288.100,68.490,18.150,1041.000,258.500,56.910,14.490,100.300,38.210,10.550,3.552,276.300,87.600,27.110,8.493,baseline
1145.000,286.900,67.480,18.150,1041.000,257.200,57.330,14.500,103.800,37.900,10.530,3.569,277.200,88.370,27.270,8.587,baseline
1147.000,288.800,68.650,18.270,1037.000,258.600,56.930,14.510,102.900,38.230,10.700,3.548,279.000,88.250,27.430,8.660,baseline
1150.000,289.400,69.400,18.320,1039.000,258.600,56.740,14.460,104.700,37.980,10.580,3.565,279.300,87.960,27.160,8.600,baseline
1141.000,286.500,68.230,17.970,1035.000,257.200,55.720,14.360,104.800,38.230,10.560,3.530,278.200,87.160,26.920,8.473,baseline
1138.000,286.000,67.650,17.960,1038.000,257.300,56.030,14.410,100.600,38.390,10.610,3.512,276.100,87.030,26.950,8.488,baseline
1139.000,285.800,67.360,18.100,1034.000,258.100,56.490,14.380,99.600,37.780,10.520,3.537,277.700,87.030,26.970,8.540,baseline
1139.000,286.200,67.560,18.090,1032.000,257.200,56.440,14.400,103.000,38.470,10.510,3.550,276.700,87.070,26.780,8.489,baseline
1137.000,286.100,68.040,17.990,1033.000,257.500,56.550,14.380,100.500,38.700,10.520,3.544,278.000,87.220,26.710,8.583,baseline
1139.000,286.000,67.080,18.110,1034.000,258.000,56.520,14.410,103.300,38.110,10.610,3.528,279.200,87.750,27.080,8.514,baseline
1142.000,287.600,67.180,18.200,1039.000,258.000,56.810,14.430,101.800,37.600,10.690,3.559,279.200,88.190,27.190,8.610,baseline
1143.000,289.000,68.180,18.230,1038.000,258.500,57.120,14.460,98.740,38.160,10.570,3.574,279.100,87.790,27.160,8.710,baseline
1146.000,291.000,68.500,18.370,1041.000,258.500,57.100,14.460,99.730,38.220,10.630,3.559,278.200,88.610,27.460,8.701,baseline
1149.000,289.400,69.290,18.330,1039.000,258.400,57.130,14.490,102.400,38.410,10.700,3.561,283.000,88.530,27.370,8.702,baseline
1147.000,288.700,68.510,18.130,1037.000,257.700,56.490,14.400,100.500,37.840,10.550,3.517,281.200,87.910,26.980,8.576,baseline
1140.000,286.100,68.390,18.050,1037.000,257.600,57.110,14.410,102.300,38.260,10.590,3.545,277.000,87.650,26.990,8.564,baseline
1140.000,286.400,67.630,18.160,1035.000,257.700,56.600,14.440,101.400,38.320,10.540,3.521,278.900,88.000,26.950,8.564,baseline
1142.000,286.900,68.080,18.190,1037.000,257.900,56.780,14.390,103.300,38.010,10.510,3.526,278.500,88.260,27.190,8.570,baseline
1141.000,287.000,67.380,18.170,1033.000,258.700,57.130,14.380,103.700,38.320,10.570,3.507,278.400,88.110,27.120,8.558,baseline
1142.000,290.100,69.110,18.120,1038.000,259.000,57.120,14.370,103.700,38.210,10.530,3.525,280.600,88.300,27.440,8.639,baseline
1145.000,289.800,67.300,18.250,1039.000,259.000,56.940,14.470,101.800,38.100,10.570,3.571,279.700,88.810,27.280,8.680,baseline
1146.000,290.000,68.270,18.270,1041.000,257.700,57.280,14.450,107.400,37.690,10.610,3.572,281.600,89.240,27.320,8.760,baseline
1149.000,289.900,68.650,18.400,1040.000,258.900,57.040,14.450,101.800,37.810,10.660,3.595,283.300,88.580,27.470,8.693,baseline
1148.000,290.500,67.630,18.230,1040.000,258.100,56.740,14.360,102.300,38.070,10.650,3.511,281.700,88.180,27.350,8.584,baseline
1141.000,287.800,68.470,18.040,1040.000,258.000,56.740,14.330,102.100,38.100,10.720,3.533,279.900,88.200,26.950,8.547,baseline
1143.000,288.400,68.200,18.110,1041.000,258.400,56.510,14.410,105.200,38.160,10.590,3.531,281.400,88.620,27.320,8.614,baseline
1146.000,289.000,68.580,18.190,1037.000,258.200,56.350,14.380,98.680,38.240,10.480,3.498,281.300,88.770,27.290,8.650,baseline
1144.000,287.500,69.180,18.160,1038.000,257.800,56.050,14.370,101.100,38.140,10.670,3.517,279.900,88.450,27.330,8.661,baseline
1145.000,288.600,68.350,18.190,1041.000,258.100,55.980,14.360,101.200,37.680,10.620,3.519,282.600,88.830,27.240,8.601,baseline
1147.000,289.700,69.430,18.250,1044.000,258.800,56.420,14.400,103.100,37.690,10.600,3.543,281.000,89.290,27.390,8.684,baseline
1149.000,290.200,69.060,18.350,1040.000,257.900,56.890,14.380,102.900,38.520,10.630,3.565,284.000,88.670,27.510,8.758,baseline
1152.000,290.400,68.310,18.380,1044.000,259.400,56.870,14.340,100.400,38.250,10.590,3.538,285.100,89.590,27.610,8.665,baseline
1148.000,289.100,67.780,18.100,1038.000,258.100,56.700,14.320,101.900,38.380,10.590,3.548,282.000,88.760,27.010,8.560,baseline
1141.000,287.100,67.260,18.030,1040.000,257.800,56.600,14.330,103.000,38.070,10.730,3.488,279.100,87.930,27.250,8.535,baseline
1143.000,287.100,67.210,18.070,1044.000,258.300,57.050,14.330,102.500,37.990,10.640,3.528,280.500,88.460,27.320,8.592,baseline
1145.000,288.200,68.080,18.140,1041.000,258.400,56.430,14.320,104.700,38.010,10.660,3.524,281.000,88.400,27.190,8.538,baseline
1143.000,286.200,67.570,18.000,1049.000,258.900,56.630,14.360,103.100,38.230,10.540,3.524,280.200,88.530,27.150,8.538,baseline
1144.000,288.300,68.490,18.120,1045.000,258.200,56.580,14.320,102.100,38.220,10.600,3.547,281.300,88.540,27.300,8.649,baseline
1147.000,286.500,69.290,18.220,1045.000,258.400,56.570,14.330,105.900,38.270,10.680,3.548,281.400,88.840,27.450,8.726,baseline
1149.000,289.000,68.040,18.210,1046.000,258.700,56.170,14.380,100.800,38.270,10.780,3.570,284.500,89.460,27.810,8.743,baseline
1152.000,289.400,67.820,18.340,1050.000,259.500,56.890,14.400,102.200,38.410,10.630,3.544,283.400,89.850,27.680,8.809,baseline
1155.000,291.000,68.470,18.240,1045.000,258.800,56.680,14.350,105.400,37.920,10.680,3.552,281.800,88.690,27.260,8.640,baseline
1145.000,286.300,67.720,17.980,1044.000,258.700,56.430,14.280,102.200,38.050,10.680,3.541,279.400,88.290,27.210,8.584,baseline
1143.000,286.800,67.340,18.000,1048.000,257.500,56.220,14.290,104.500,38.050,10.650,3.491,279.800,88.590,27.110,8.513,baseline
1143.000,286.700,67.650,17.950,1049.000,257.400,56.980,14.360,101.400,37.970,10.630,3.548,282.300,88.260,27.250,8.606,baseline
1144.000,288.600,66.740,17.970,1046.000,258.000,56.350,14.340,104.300,38.090,10.620,3.561,281.300,88.490,27.080,8.512,baseline
1144.000,287.500,67.860,18.000,1050.000,258.300,56.230,14.360,101.800,38.200,10.710,3.533,281.100,88.710,27.230,8.604,baseline
1145.000,286.500,68.240,18.000,1050.000,258.400,56.230,14.370,100.600,37.430,10.660,3.477,281.000,88.630,27.290,8.642,baseline
1148.000,288.400,68.130,18.070,1050.000,259.000,56.540,14.390,104.200,38.360,10.620,3.533,282.500,89.060,27.330,8.665,baseline
1150.000,290.900,68.500,18.150,1046.000,259.300,56.730,14.430,105.800,38.020,10.850,3.538,283.000,89.390,27.730,8.728,baseline
1152.000,288.700,68.750,18.250,1054.000,259.400,56.560,14.420,105.500,38.160,10.600,3.548,281.100,89.260,27.750,8.758,baseline
1155.000,289.700,66.680,18.190,1047.000,259.100,56.690,14.350,106.600,38.390,10.680,3.551,283.500,89.230,27.230,8.613,baseline
1146.000,286.900,66.860,17.960,1047.000,258.500,56.560,14.320,102.300,38.300,10.720,3.508,278.800,88.640,27.080,8.532,baseline
1144.000,286.200,66.900,17.940,1048.000,258.000,56.820,14.290,104.700,37.930,10.570,3.514,281.500,88.530,27.020,8.551,baseline
1145.000,288.100,67.030,17.990,1047.000,258.700,56.980,14.370,103.000,38.180,10.520,3.510,280.800,88.480,27.190,8.586,baseline
1145.000,288.100,66.850,17.960,1053.000,258.100,56.110,14.330,101.100,38.140,10.640,3.508,279.300,88.020,27.300,8.508,baseline
1144.000,287.600,67.020,17.990,1050.000,258.300,56.310,14.330,103.900,38.330,10.480,3.521,280.100,88.340,27.330,8.535,baseline
1146.000,287.300,67.420,17.990,1049.000,258.900,56.410,14.400,101.800,37.940,10.650,3.574,280.700,88.230,27.240,8.604,baseline
1149.000,288.700,68.850,18.140,1052.000,259.600,56.830,14.370,102.700,37.830,10.740,3.517,282.600,88.420,27.470,8.670,baseline
1151.000,289.600,68.240,18.200,1050.000,259.000,56.640,14.450,102.500,38.130,10.630,3.551,282.000,89.500,27.620,8.713,baseline
1153.000,290.100,67.930,18.200,1053.000,259.400,56.520,14.460,99.160,38.010,10.690,3.557,281.500,89.960,27.730,8.751,baseline
1155.000,291.400,68.310,18.300,1054.000,259.900,57.030,14.430,104.100,38.070,10.630,3.540,282.000,89.140,28.030,8.738,baseline
1156.000,289.600,67.940,18.160,1051.000,259.600,55.990,14.340,105.200,38.580,10.720,3.534,281.000,88.270,27.580,8.616,baseline
1147.000,286.800,67.600,18.030,1047.000,258.900,55.990,14.330,101.200,37.760,10.670,3.502,278.300,87.910,27.280,8.576,baseline
1147.000,287.100,66.930,18.020,1048.000,258.000,56.190,14.350,100.100,37.670,10.560,3.532,279.400,88.400,27.400,8.599,baseline
1148.000,288.000,67.190,18.010,1049.000,258.600,56.950,14.320,95.650,37.930,10.570,3.517,279.800,88.940,27.240,8.611,baseline
1147.000,287.700,67.400,18.050,1050.000,258.400,56.880,14.360,99.390,38.230,10.580,3.544,279.900,88.310,27.470,8.533,baseline
1148.000,288.700,66.570,18.010,1053.000,258.500,56.710,14.370,105.100,37.420,10.640,3.560,279.900,88.140,27.160,8.644,baseline
1150.000,288.700,67.460,18.140,1050.000,258.800,57.160,14.400,105.200,38.290,10.500,3.514,279.200,89.070,27.200,8.680,baseline
1153.000,289.800,68.140,18.170,1056.000,259.100,56.950,14.380,105.300,37.770,10.550,3.544,280.400,89.090,27.560,8.672,baseline
1155.000,291.000,69.000,18.300,1050.000,259.300,56.570,14.440,101.500,38.320,10.700,3.547,282.700,89.160,27.650,8.750,baseline
1156.000,291.300,67.640,18.380,1052.000,259.900,56.900,14.460,102.700,37.860,10.580,3.570,282.600,89.710,27.840,8.909,baseline
1159.000,293.200,69.460,18.390,1056.000,259.200,56.740,14.430,100.300,37.900,10.690,3.545,282.200,89.780,27.510,8.720,baseline
1154.000,289.200,69.520,18.160,1049.000,259.000,55.730,14.300,104.100,38.370,10.740,3.512,280.100,88.660,27.190,8.601,baseline
1150.000,287.300,68.290,18.120,1048.000,258.300,56.360,14.340,102.400,37.840,10.580,3.517,279.000,88.490,27.430,8.696,baseline
1152.000,289.500,68.180,18.180,1053.000,259.300,56.170,14.350,105.200,38.030,10.650,3.498,280.300,88.900,27.430,8.709,baseline
1152.000,288.900,67.810,18.190,1048.000,258.100,56.180,14.350,103.500,37.670,10.690,3.520,280.700,88.640,27.290,8.676,baseline
1153.000,288.600,67.700,18.190,1052.000,258.700,57.150,14.360,100.600,37.430,10.570,3.537,281.600,87.910,27.390,8.708,baseline
1154.000,289.600,67.630,18.290,1051.000,258.500,56.590,14.370,102.000,38.000,10.630,3.533,280.300,89.130,27.520,8.638,baseline
1157.000,288.500,68.410,18.370,1054.000,259.200,56.710,14.390,101.000,38.120,10.660,3.517,282.500,89.360,27.520,8.771,baseline
1159.000,290.800,69.070,18.380,1057.000,259.200,56.970,14.410,102.800,37.950,10.800,3.504,283.900,88.890,27.820,8.850,baseline
1161.000,292.100,70.100,18.560,1055.000,259.100,56.890,14.430,102.800,37.480,10.630,3.532,282.200,89.320,27.900,8.803,baseline
1161.000,292.400,69.200,18.330,1051.000,259.100,56.220,14.330,102.900,37.840,10.620,3.527,282.400,88.890,27.390,8.634,baseline
1153.000,289.400,68.230,18.160,1052.000,258.200,56.700,14.340,100.900,37.840,10.710,3.483,279.700,88.530,27.170,8.624,baseline
1154.000,289.600,68.610,18.290,1055.000,258.800,56.370,14.360,104.000,37.630,10.590,3.522,280.900,88.320,27.490,8.725,baseline
1157.000,290.700,68.490,18.350,1049.000,258.900,56.470,14.370,102.300,37.930,10.540,3.519,282.200,88.500,27.390,8.694,baseline
1156.000,290.400,68.750,18.310,1051.000,258.700,56.800,14.330,102.200,37.960,10.810,3.521,282.400,88.510,27.560,8.735,baseline
1157.000,292.100,69.170,18.420,1053.000,258.800,56.230,14.370,103.200,37.840,10.530,3.525,280.500,89.010,27.510,8.718,baseline
1160.000,291.400,68.100,18.490,1053.000,258.600,56.580,14.350,100.300,38.290,10.640,3.519,280.700,89.300,27.640,8.753,baseline
1162.000,291.700,67.870,18.470,1052.000,259.300,56.720,14.330,100.300,38.410,10.680,3.552,283.800,88.890,27.780,8.914,baseline
1166.000,292.500,68.350,18.570,1060.000,258.900,56.780,14.400,103.900,37.680,10.560,3.533,283.400,89.510,27.960,8.828,baseline
1164.000,291.100,69.290,18.350,1053.000,258.100,55.970,14.290,102.200,37.750,10.650,3.525,281.900,88.650,27.590,8.693,baseline
1156.000,289.500,68.750,18.190,1053.000,257.500,56.380,14.270,103.100,37.820,10.540,3.513,280.800,88.390,27.600,8.702,baseline
1157.000,290.800,68.490,18.300,1053.000,258.200,55.880,14.340,102.500,37.770,10.530,3.522,281.400,88.680,27.430,8.710,baseline
1159.000,289.700,68.950,18.330,1052.000,258.000,56.570,14.320,103.300,37.960,10.570,3.505,278.900,88.530,27.650,8.664,baseline
1158.000,290.800,68.310,18.320,1051.000,258.200,56.160,14.320,103.600,38.160,10.470,3.495,280.500,88.690,27.360,8.739,baseline
1158.000,291.800,69.090,18.350,1050.000,258.700,55.880,14.290,102.800,38.130,10.540,3.546,281.100,88.840,27.650,8.736,baseline
1161.000,291.100,69.010,18.460,1054.000,258.600,56.800,14.340,101.100,37.780,10.600,3.531,282.100,89.190,27.510,8.806,baseline
1163.000,292.900,68.410,18.490,1052.000,258.500,56.350,14.340,104.900,37.610,10.650,3.491,283.500,89.600,27.610,8.814,baseline
1166.000,292.300,68.730,18.570,1056.000,259.000,56.730,14.330,102.900,38.010,10.710,3.536,284.500,89.840,27.920,8.822,baseline
1168.000,293.900,67.780,18.650,1055.000,258.200,56.860,14.310,104.200,38.210,10.650,3.524,282.500,89.250,27.660,8.711,baseline
1159.000,290.500,68.120,18.300,1050.000,257.500,56.070,14.240,101.100,37.470,10.580,3.504,280.800,87.720,27.380,8.694,baseline
1154.000,290.100,68.080,18.220,1050.000,257.500,56.170,14.240,98.980,37.780,10.490,3.477,278.900,88.230,27.500,8.682,baseline
1155.000,288.600,68.790,18.270,1056.000,257.300,55.860,14.240,105.700,37.400,10.600,3.499,277.700,88.180,27.380,8.657,baseline
1156.000,289.900,69.580,18.250,1049.000,257.900,55.950,14.220,100.200,37.290,10.610,3.476,278.700,87.860,27.260,8.586,baseline
1155.000,288.500,69.120,18.270,1049.000,257.600,55.600,14.250,99.420,37.700,10.390,3.486,279.700,87.910,27.200,8.704,baseline
1156.000,290.600,68.730,18.290,1052.000,257.200,55.710,14.240,101.900,37.530,10.560,3.532,279.600,88.470,27.500,8.657,baseline
1159.000,290.500,68.490,18.320,1053.000,257.900,56.480,14.220,100.700,37.540,10.580,3.548,280.500,89.290,27.370,8.776,baseline
1160.000,291.500,68.520,18.410,1054.000,257.900,56.600,14.280,101.600,38.150,10.550,3.486,280.800,89.180,27.440,8.779,baseline
1162.000,292.400,68.430,18.580,1052.000,258.000,56.390,14.310,103.000,38.140,10.560,3.497,282.000,88.980,27.890,8.885,baseline
1165.000,292.900,69.070,18.490,1051.000,257.000,55.760,14.190,99.110,37.780,10.610,3.511,281.600,88.400,27.790,8.661,baseline
1154.000,288.700,66.930,18.150,1048.000,256.000,56.090,14.170,100.800,37.350,10.480,3.471,278.200,87.710,27.430,8.592,baseline
1150.000,287.300,67.400,18.100,1047.000,255.800,55.970,14.100,103.400,37.580,10.420,3.451,280.000,87.260,27.170,8.520,baseline
1150.000,289.100,66.870,18.140,1050.000,255.900,56.140,14.150,102.500,37.570,10.580,3.498,278.200,88.050,27.150,8.695,baseline
1150.000,288.000,67.600,18.090,1048.000,256.300,55.770,14.180,100.900,37.460,10.520,3.461,277.300,87.580,27.120,8.549,baseline
1148.000,288.300,68.370,18.050,1050.000,255.900,55.240,14.130,103.800,37.390,10.490,3.454,279.400,87.810,26.970,8.592,baseline
1149.000,287.400,67.610,18.160,1050.000,256.200,55.950,14.150,102.800,37.090,10.620,3.465,277.900,87.850,27.090,8.616,baseline
1150.000,287.900,68.210,18.170,1045.000,256.900,55.550,14.130,98.460,37.570,10.620,3.477,279.500,88.020,27.410,8.718,baseline
1152.000,289.200,67.790,18.250,1047.000,256.400,55.620,14.160,98.300,37.810,10.630,3.497,281.500,88.760,27.450,8.676,baseline
1153.000,288.600,67.550,18.330,1047.000,256.700,55.790,14.170,99.320,37.920,10.600,3.485,281.400,89.000,27.320,8.699,baseline
1154.000,289.100,68.070,18.290,1045.000,255.700,55.520,14.100,104.500,37.550,10.460,3.515,280.200,88.750,27.140,8.589,baseline
1144.000,286.300,67.320,18.010,1039.000,254.200,55.200,14.050,100.900,37.440,10.410,3.505,277.800,88.050,26.940,8.594,baseline
1140.000,283.700,67.280,17.960,1040.000,254.300,55.770,14.060,100.700,37.450,10.500,3.460,276.500,86.640,26.860,8.548,baseline
1140.000,284.400,66.930,18.010,1039.000,254.500,55.320,14.100,101.100,37.290,10.490,3.479,276.900,87.030,26.980,8.566,baseline
1139.000,285.500,65.540,17.920,1038.000,254.400,55.580,14.050,101.000,38.000,10.540,3.481,277.300,87.080,27.010,8.480,baseline
1136.000,283.500,67.380,17.940,1039.000,254.200,55.130,14.020,98.280,37.500,10.480,3.453,278.400,87.440,27.080,8.615,baseline
1137.000,285.800,67.500,17.930,1042.000,254.800,55.700,14.100,101.900,37.100,10.470,3.481,277.900,87.250,27.240,8.558,baseline
1139.000,284.900,66.250,18.040,1038.000,254.800,54.950,14.080,98.940,37.600,10.400,3.492,277.800,87.700,27.420,8.609,baseline
1140.000,285.100,68.570,18.080,1041.000,254.700,55.390,14.060,101.400,37.490,10.540,3.450,278.700,88.210,27.280,8.553,baseline
1141.000,285.400,67.300,18.200,1038.000,254.900,55.580,14.120,101.000,37.580,10.510,3.508,281.000,88.810,27.440,8.716,baseline
1143.000,288.000,67.560,18.150,1038.000,254.800,55.430,14.070,101.700,37.530,10.430,3.516,280.000,87.950,27.230,8.637,baseline
1134.000,284.700,66.830,17.880,1034.000,253.700,55.410,13.980,102.500,37.090,10.470,3.494,275.200,87.630,26.840,8.514,baseline
1130.000,281.400,65.140,17.840,1033.000,254.000,55.460,14.020,101.800,37.470,10.420,3.470,277.600,87.070,26.690,8.547,baseline
1130.000,284.400,66.070,17.850,1034.000,254.300,55.600,14.050,99.160,37.280,10.510,3.429,276.200,87.270,27.220,8.552,baseline
1129.000,282.200,66.100,17.770,1034.000,253.500,55.500,14.030,100.500,37.670,10.420,3.486,277.200,86.590,26.930,8.499,baseline
1127.000,282.500,65.550,17.830,1036.000,253.800,55.530,14.040,100.700,37.530,10.530,3.470,277.100,87.650,26.880,8.591,baseline
1128.000,284.300,65.620,17.860,1038.000,254.200,55.430,14.000,100.800,37.670,10.490,3.479,276.700,87.790,27.080,8.542,baseline
1129.000,283.600,66.660,17.910,1033.000,254.100,55.840,14.090,104.600,37.760,10.370,3.477,277.000,87.640,27.080,8.636,baseline
1131.000,285.700,67.690,18.010,1036.000,254.800,55.340,14.100,102.600,38.290,10.740,3.512,277.900,88.400,27.440,8.637,baseline
1134.000,284.000,67.560,17.960,1037.000,255.000,55.690,13.980,100.400,37.810,10.550,3.471,282.100,88.170,27.150,8.562,baseline
1125.000,282.400,66.450,17.760,1035.000,253.400,55.010,14.010,104.600,37.700,10.510,3.462,275.500,87.480,26.780,8.477,baseline
1122.000,281.500,66.780,17.750,1035.000,253.900,54.950,14.010,102.400,37.640,10.500,3.459,277.000,87.400,27.070,8.562,baseline
1123.000,281.900,65.870,17.760,1036.000,253.500,55.530,14.020,100.400,37.820,10.460,3.448,277.700,87.410,27.020,8.547,baseline
1124.000,283.300,65.170,17.800,1033.000,254.500,55.120,14.000,100.600,37.160,10.450,3.435,274.500,87.620,27.010,8.529,baseline
1123.000,283.100,65.550,17.800,1033.000,254.600,55.880,14.010,105.100,37.710,10.480,3.513,276.500,87.350,26.970,8.549,baseline
1124.000,282.800,65.560,17.910,1038.000,253.700,55.020,14.050,105.500,37.920,10.640,3.487,277.000,87.320,27.120,8.609,baseline
1126.000,284.100,66.720,17.900,1040.000,254.600,55.880,14.090,102.400,37.960,10.560,3.504,278.200,88.300,27.110,8.631,baseline
1129.000,285.800,66.800,18.030,1037.000,254.900,55.350,14.050,101.100,37.690,10.480,3.535,278.000,88.690,27.370,8.685,baseline
1127.000,282.400,67.410,17.800,1036.000,254.900,54.580,14.030,101.300,37.710,10.510,3.472,277.100,87.490,26.660,8.484,baseline
1118.000,280.400,65.770,17.640,1037.000,253.600,55.220,14.010,100.700,37.500,10.510,3.450,274.300,87.000,26.940,8.462,baseline
1117.000,280.300,66.440,17.660,1037.000,254.200,55.130,13.980,102.500,37.540,10.490,3.486,276.800,87.360,26.880,8.406,baseline
1117.000,281.400,66.110,17.680,1034.000,254.500,54.850,13.960,99.070,37.700,10.440,3.523,276.300,87.020,26.910,8.481,baseline
1117.000,280.200,65.970,17.690,1039.000,253.800,54.690,13.970,102.300,37.760,10.440,3.483,277.600,87.440,26.730,8.481,baseline
1117.000,280.300,65.660,17.720,1039.000,254.800,55.380,14.020,101.000,37.470,10.460,3.476,276.100,87.110,26.870,8.501,baseline
1118.000,282.000,65.450,17.820,1038.000,254.800,55.700,14.090,101.100,37.390,10.660,3.478,277.300,88.010,27.100,8.618,baseline
1121.000,283.000,65.230,17.780,1041.000,254.800,55.600,14.000,105.000,38.170,10.650,3.488,278.300,87.820,27.020,8.579,baseline
1124.000,283.600,66.520,17.920,1043.000,255.300,55.950,14.050,100.100,37.920,10.650,3.545,278.800,88.030,26.980,8.582,baseline
1119.000,281.400,64.430,17.600,1039.000,254.400,55.170,13.960,106.300,37.430,10.540,3.452,277.200,86.920,26.490,8.395,baseline
1110.000,279.800,64.680,17.520,1038.000,255.300,55.360,13.970,103.900,38.190,10.510,3.456,272.200,87.230,26.510,8.368,baseline
1110.000,279.300,65.050,17.460,1040.000,254.100,55.170,13.980,104.700,37.840,10.610,3.453,273.400,86.280,26.630,8.530,baseline
1111.000,280.100,65.190,17.450,1038.000,254.400,55.020,14.000,101.900,37.840,10.480,3.490,271.700,86.610,26.740,8.403,baseline
1108.000,278.700,64.530,17.370,1042.000,254.800,55.680,13.990,100.600,37.040,10.590,3.480,272.700,86.830,26.620,8.406,baseline
1110.000,278.800,65.700,17.470,1041.000,254.800,55.490,14.010,99.860,37.570,10.470,3.479,272.300,86.780,26.850,8.485,baseline
1112.000,280.200,66.140,17.600,1045.000,255.600,55.840,14.060,99.810,38.220,10.700,3.511,273.900,86.880,26.940,8.536,baseline
1113.000,280.400,64.960,17.590,1043.000,256.500,55.520,14.090,100.200,38.060,10.690,3.519,276.200,87.110,27.210,8.448,baseline
1116.000,281.200,65.780,17.740,1046.000,256.700,56.440,14.070,104.400,38.190,10.620,3.512,275.700,87.200,27.250,8.514,baseline
1115.000,280.900,64.400,17.500,1043.000,255.800,55.460,13.950,102.700,38.410,10.600,3.499,273.800,86.320,26.290,8.340,baseline
1103.000,277.300,64.630,17.330,1043.000,255.200,55.480,13.990,101.600,38.120,10.480,3.479,272.300,85.460,26.420,8.278,baseline
1102.000,278.000,63.590,17.280,1039.000,255.100,55.040,14.010,105.100,37.730,10.540,3.474,270.200,85.460,26.530,8.314,baseline
1103.000,278.100,64.860,17.280,1042.000,255.700,55.080,14.020,101.200,37.800,10.640,3.477,269.900,85.600,26.390,8.293,baseline
1101.000,278.300,64.720,17.290,1041.000,255.600,56.000,14.040,100.000,37.850,10.540,3.485,272.000,85.800,26.260,8.278,baseline
1101.000,278.200,64.190,17.220,1040.000,256.300,55.590,14.070,105.500,37.940,10.570,3.459,271.100,86.010,26.670,8.293,baseline
1103.000,276.100,64.220,17.280,1042.000,256.200,55.610,14.100,100.900,38.410,10.610,3.478,270.600,86.200,26.560,8.449,baseline
1105.000,278.100,64.980,17.400,1048.000,257.400,55.790,14.110,99.950,37.710,10.560,3.497,271.900,86.140,26.910,8.397,baseline
1108.000,279.400,64.800,17.450,1050.000,257.000,56.070,14.170,101.400,38.240,10.540,3.509,273.000,86.830,26.910,8.462,baseline
1110.000,281.000,65.220,17.490,1045.000,257.500,56.000,14.130,101.200,38.300,10.720,3.534,273.400,86.730,26.740,8.387,baseline
1105.000,277.200,64.190,17.270,1047.000,256.700,55.590,14.070,107.400,38.110,10.590,3.490,271.000,85.250,26.340,8.249,baseline
1097.000,276.000,63.200,17.090,1044.000,256.300,55.510,14.060,101.700,38.070,10.580,3.478,267.400,85.120,26.200,8.192,baseline
1095.000,273.800,64.190,17.160,1047.000,256.600,56.040,14.070,103.300,37.980,10.650,3.483,267.300,84.990,26.190,8.205,baseline
1095.000,277.100,64.470,17.140,1047.000,256.900,56.340,14.100,100.700,37.730,10.610,3.470,268.700,84.800,26.270,8.196,baseline
1094.000,275.100,62.570,17.140,1052.000,256.400,55.450,14.100,102.400,38.020,10.580,3.491,269.800,84.240,26.190,8.187,baseline
1095.000,275.200,63.830,17.130,1048.000,256.700,56.140,14.120,98.390,38.210,10.520,3.489,266.500,84.690,26.340,8.211,baseline
1097.000,276.400,64.510,17.200,1052.000,257.600,56.000,14.180,101.800,37.800,10.670,3.529,269.000,85.350,26.360,8.291,baseline
1098.000,277.000,65.180,17.280,1053.000,258.200,55.570,14.180,98.480,38.440,10.720,3.507,271.200,86.180,26.400,8.293,baseline
1101.000,277.600,65.370,17.360,1057.000,258.400,55.650,14.250,103.900,38.550,10.560,3.515,271.700,85.820,26.510,8.443,baseline
1104.000,278.600,65.480,17.470,1053.000,258.800,56.060,14.220,105.600,37.900,10.740,3.560,270.100,86.400,26.500,8.332,baseline
1101.000,276.600,65.230,17.170,1056.000,258.400,55.770,14.220,103.800,38.750,10.750,3.484,269.800,84.600,26.190,8.201,baseline
1092.000,273.800,64.710,17.100,1052.000,257.800,56.270,14.180,102.800,38.260,10.700,3.495,267.000,84.000,26.070,8.239,baseline
1091.000,274.900,63.360,17.100,1048.000,257.900,56.520,14.210,100.300,37.510,10.710,3.535,267.400,84.720,26.040,8.184,baseline
1092.000,275.300,64.220,17.110,1055.000,258.000,56.600,14.170,99.840,37.930,10.710,3.507,267.200,84.530,25.850,8.187,baseline
1091.000,274.900,62.970,17.110,1055.000,258.000,56.220,14.250,102.100,38.570,10.560,3.466,267.700,84.150,26.110,8.196,baseline
1091.000,275.400,63.600,17.180,1053.000,259.100,57.130,14.220,103.300,38.310,10.590,3.545,266.900,84.460,26.060,8.239,baseline
1094.000,277.200,63.700,17.190,1055.000,258.600,56.600,14.310,102.000,38.960,10.790,3.540,268.700,84.360,26.290,8.330,baseline
1097.000,277.400,64.180,17.310,1059.000,259.600,56.230,14.330,103.600,38.850,10.730,3.575,269.800,85.160,26.450,8.389,baseline
1098.000,277.400,64.540,17.300,1060.000,260.100,56.720,14.340,104.300,38.420,10.780,3.573,269.500,85.130,26.690,8.338,baseline
1102.000,278.100,65.830,17.420,1061.000,260.100,56.280,14.360,102.800,38.280,10.900,3.586,269.700,85.010,26.160,8.485,baseline
1102.000,278.000,64.940,17.250,1058.000,259.800,56.280,14.280,101.600,38.690,10.720,3.558,267.900,84.350,26.140,8.229,baseline
1093.000,274.600,64.460,17.150,1057.000,259.900,56.250,14.360,99.300,38.560,10.750,3.510,265.600,84.280,26.000,8.227,baseline
1094.000,275.200,63.390,17.210,1057.000,260.300,56.570,14.330,101.200,38.340,10.790,3.523,267.800,84.790,26.180,8.277,baseline
1095.000,275.300,65.040,17.190,1061.000,260.300,56.260,14.340,103.100,38.500,10.920,3.558,267.500,84.450,26.310,8.205,baseline
1094.000,276.000,63.550,17.190,1060.000,260.700,57.010,14.320,100.600,38.870,10.820,3.541,266.400,84.660,26.430,8.219,baseline
1095.000,276.400,63.980,17.250,1062.000,260.900,56.710,14.370,103.700,38.710,10.720,3.514,266.800,84.770,26.270,8.275,baseline
1098.000,278.100,64.170,17.330,1067.000,260.700,56.510,14.390,107.900,38.240,10.830,3.541,270.000,84.800,26.470,8.322,baseline
1100.000,278.000,64.350,17.380,1066.000,261.000,56.870,14.460,99.710,38.750,10.870,3.581,269.400,85.320,26.750,8.400,baseline
1104.000,279.300,65.160,17.440,1068.000,261.800,57.220,14.480,103.400,38.610,10.900,3.606,271.400,85.720,26.390,8.417,baseline
1106.000,278.700,64.760,17.510,1066.000,261.200,56.830,14.460,102.700,38.450,10.730,3.578,271.200,85.530,26.430,8.313,baseline
1099.000,277.200,64.370,17.330,1068.000,261.200,57.110,14.420,103.000,38.690,10.720,3.574,267.500,84.720,26.190,8.290,baseline
1097.000,276.900,64.990,17.290,1066.000,261.100,56.400,14.460,101.600,38.380,10.770,3.566,268.400,85.030,26.140,8.240,baseline
1100.000,276.800,66.260,17.420,1064.000,261.800,56.800,14.450,100.300,39.080,10.860,3.575,270.000,85.240,26.320,8.400,baseline
1101.000,277.000,64.310,17.350,1069.000,262.000,56.470,14.390,105.900,38.380,10.710,3.568,267.800,84.740,26.420,8.346,baseline
1100.000,278.200,63.580,17.420,1072.000,261.900,56.580,14.490,103.000,38.170,10.780,3.532,269.300,85.010,26.260,8.368,baseline
1103.000,278.600,64.610,17.440,1068.000,262.900,57.040,14.530,103.500,38.630,10.740,3.558,270.500,85.320,26.560,8.475,baseline
1107.000,278.400,64.810,17.630,1072.000,262.400,57.240,14.580,105.400,38.690,10.870,3.535,270.300,85.610,26.650,8.396,baseline
1110.000,282.500,65.260,17.690,1075.000,263.600,57.600,14.500,100.600,39.060,10.710,3.566,271.900,86.330,26.770,8.485,baseline
1111.000,282.300,65.840,17.640,1071.000,262.100,57.100,14.450,103.200,38.930,10.850,3.550,271.700,84.730,26.590,8.320,baseline
1102.000,278.300,65.320,17.340,1073.000,262.800,56.940,14.440,100.800,38.360,10.720,3.549,267.700,84.510,26.290,8.199,baseline
1103.000,278.500,64.500,17.370,1070.000,261.400,56.650,14.530,105.800,38.000,10.660,3.553,268.700,84.530,26.120,8.400,baseline
1105.000,278.000,64.630,17.430,1072.000,262.600,56.730,14.500,102.500,38.700,10.840,3.577,269.900,84.860,26.210,8.353,baseline
1105.000,279.400,65.620,17.400,1075.000,262.900,56.820,14.480,104.400,38.770,10.850,3.546,270.000,85.190,26.650,8.397,baseline
1106.000,279.600,65.830,17.450,1075.000,263.200,57.110,14.550,104.900,38.630,10.790,3.563,270.100,84.990,26.210,8.405,baseline
1110.000,279.800,66.430,17.550,1077.000,263.100,57.830,14.550,100.400,38.570,10.880,3.559,270.400,84.860,26.520,8.406,baseline
1113.000,279.700,65.920,17.630,1079.000,264.100,57.160,14.520,106.300,38.860,10.780,3.587,272.200,86.000,26.750,8.376,baseline
1116.000,282.100,66.640,17.690,1081.000,264.400,57.640,14.580,105.400,38.730,10.780,3.580,272.400,86.060,26.640,8.504,baseline
1119.000,282.300,65.460,17.760,1083.000,263.800,57.550,14.520,103.900,38.930,10.890,3.589,273.800,85.680,26.400,8.434,baseline
1110.000,279.800,65.300,17.440,1077.000,263.000,57.250,14.510,103.100,38.600,10.790,3.564,268.500,85.060,26.210,8.368,baseline
1107.000,278.400,65.160,17.390,1080.000,262.800,57.240,14.510,102.500,38.250,10.710,3.536,268.700,84.950,26.230,8.385,baseline
1108.000,279.300,64.920,17.460,1080.000,263.900,57.150,14.530,99.960,38.960,10.810,3.535,267.600,85.000,26.240,8.330,baseline
1110.000,280.900,65.890,17.470,1078.000,263.700,57.740,14.500,103.900,38.340,10.840,3.551,268.000,85.060,26.250,8.330,baseline
1109.000,281.100,65.430,17.500,1077.000,263.500,57.340,14.520,106.100,38.820,10.700,3.546,269.400,84.960,26.340,8.340,baseline
1111.000,279.800,67.060,17.550,1078.000,263.300,57.760,14.520,104.000,39.060,11.010,3.555,270.700,84.760,26.480,8.391,baseline
1114.000,280.400,66.130,17.640,1083.000,264.600,57.550,14.560,103.000,38.830,10.870,3.606,269.800,85.420,26.770,8.602,baseline
1117.000,282.600,66.070,17.670,1083.000,264.200,57.630,14.650,102.100,38.750,10.950,3.587,274.100,86.650,26.610,8.505,baseline
1119.000,282.000,66.080,17.770,1082.000,265.000,57.930,14.600,103.100,38.530,10.880,3.607,274.200,86.230,26.890,8.570,baseline
1122.000,281.900,65.670,17.640,1084.000,264.300,57.160,14.490,102.600,38.700,10.680,3.557,272.200,86.090,26.560,8.269,baseline
1111.000,279.100,65.440,17.400,1081.000,263.400,57.480,14.520,103.700,39.080,10.820,3.576,269.600,84.750,26.490,8.372,baseline
1109.000,278.100,65.400,17.430,1081.000,264.100,57.280,14.530,101.700,38.900,10.810,3.575,269.200,85.450,26.370,8.406,baseline
1110.000,279.800,64.730,17.450,1081.000,263.800,57.330,14.560,101.800,38.600,10.840,3.520,269.800,85.200,26.500,8.380,baseline
1110.000,280.000,64.390,17.400,1083.000,264.300,57.310,14.550,107.600,38.620,10.880,3.520,272.000,84.970,26.280,8.292,baseline
1111.000,280.300,65.700,17.470,1085.000,265.100,57.750,14.580,104.700,39.470,10.810,3.576,272.300,85.000,26.300,8.366,baseline
1114.000,281.900,66.850,17.540,1084.000,265.300,57.460,14.610,105.200,38.650,10.810,3.595,272.600,85.810,26.410,8.389,baseline
1116.000,281.000,67.260,17.610,1085.000,265.900,57.560,14.620,104.800,39.480,10.820,3.571,273.200,85.510,26.570,8.425,baseline
1118.000,281.400,67.080,17.690,1089.000,265.100,57.500,14.650,103.700,38.880,10.920,3.598,274.400,86.230,27.080,8.500,baseline
1122.000,283.000,66.450,17.720,1088.000,265.700,57.640,14.660,105.000,39.250,10.930,3.647,276.700,87.010,27.010,8.529,baseline
1124.000,283.500,66.670,17.700,1088.000,265.000,57.650,14.580,104.000,38.670,11.010,3.575,273.900,85.890,26.800,8.451,baseline
1115.000,279.700,65.390,17.350,1086.000,263.700,57.750,14.510,104.800,39.420,10.750,3.565,269.900,85.290,26.550,8.266,baseline
1112.000,279.700,65.310,17.460,1082.000,265.000,57.890,14.600,107.700,38.910,10.810,3.577,270.200,85.140,26.560,8.359,baseline
1114.000,280.400,65.740,17.500,1087.000,264.600,57.510,14.570,105.500,39.100,10.800,3.563,273.400,85.800,26.500,8.283,baseline
1114.000,281.400,64.960,17.440,1084.000,265.000,57.710,14.620,100.800,38.590,10.890,3.546,272.300,85.740,26.450,8.456,baseline
1114.000,281.700,65.400,17.430,1087.000,265.700,57.930,14.630,105.100,38.890,11.040,3.594,272.900,85.470,26.340,8.447,baseline
1117.000,281.100,64.990,17.550,1087.000,265.100,57.620,14.660,101.700,38.870,10.860,3.615,273.900,86.120,26.540,8.419,baseline
1120.000,283.000,65.910,17.630,1084.000,265.700,57.750,14.640,106.200,38.350,10.920,3.560,274.200,86.270,26.890,8.520,baseline
1123.000,283.900,66.990,17.690,1094.000,266.100,57.830,14.710,102.500,39.260,10.960,3.563,276.300,87.010,27.000,8.504,baseline
1125.000,284.200,66.680,17.790,1093.000,266.000,57.820,14.700,101.600,39.180,10.990,3.616,277.100,87.260,27.210,8.546,baseline
1129.000,285.600,66.520,17.820,1091.000,267.100,57.750,14.660,106.300,39.180,10.960,3.640,274.600,88.030,27.050,8.490,baseline
1125.000,282.200,66.160,17.580,1091.000,265.400,57.080,14.620,106.400,39.050,10.940,3.594,272.200,85.970,26.740,8.414,baseline
1118.000,281.100,65.300,17.540,1084.000,266.000,57.670,14.640,104.000,39.280,10.990,3.596,273.500,86.290,26.540,8.399,baseline
1120.000,282.000,65.590,17.570,1090.000,266.100,57.610,14.650,105.800,38.750,10.910,3.586,273.700,86.430,26.910,8.438,baseline
1122.000,281.700,65.860,17.540,1086.000,265.900,57.400,14.660,105.700,38.840,10.920,3.625,273.600,86.330,26.790,8.384,baseline
1121.000,282.100,65.600,17.570,1087.000,265.400,57.870,14.720,107.300,39.060,10.990,3.590,274.500,86.530,26.840,8.393,baseline
1122.000,282.800,65.630,17.600,1090.000,265.400,58.010,14.710,102.700,39.210,10.900,3.638,274.400,86.520,26.930,8.465,baseline
1126.000,283.700,67.280,17.750,1092.000,265.500,57.990,14.760,105.800,39.010,11.070,3.644,275.900,86.840,27.160,8.567,baseline
1129.000,283.200,67.470,17.720,1093.000,266.800,57.830,14.770,105.200,39.130,10.990,3.590,277.200,87.570,27.330,8.576,baseline
1132.000,284.900,66.570,17.830,1092.000,266.300,57.550,14.810,103.400,38.930,10.960,3.637,277.600,88.510,27.340,8.625,baseline
1135.000,286.600,68.140,18.000,1093.000,267.000,58.170,14.790,107.000,39.500,11.000,3.646,280.000,88.000,27.250,8.632,baseline
1134.000,284.000,67.380,17.690,1091.000,266.300,57.920,14.650,104.100,39.930,11.060,3.652,277.100,87.170,26.860,8.483,baseline
1126.000,282.900,65.620,17.590,1092.000,265.700,57.880,14.680,103.200,39.240,10.910,3.636,275.600,86.370,27.010,8.511,baseline
1128.000,282.500,66.030,17.680,1091.000,265.700,58.170,14.700,109.100,39.720,10.960,3.618,275.700,87.440,26.990,8.548,baseline
1131.000,283.900,65.990,17.760,1094.000,266.200,57.760,14.720,106.400,39.400,11.040,3.582,277.000,87.640,27.110,8.519,baseline
1129.000,283.200,66.030,17.770,1095.000,266.800,57.960,14.740,108.100,39.350,10.960,3.628,277.600,87.430,27.030,8.554,baseline
1133.000,284.000,65.740,17.830,1091.000,266.400,57.970,14.780,105.900,39.310,10.870,3.635,277.400,88.010,27.370,8.620,baseline
1135.000,286.400,66.430,17.900,1094.000,266.600,58.030,14.740,107.800,39.210,11.050,3.622,279.500,87.760,27.110,8.662,baseline
1137.000,285.000,67.700,17.960,1097.000,267.100,57.830,14.790,108.800,39.530,11.090,3.652,279.900,88.360,27.350,8.787,baseline
1141.000,287.100,67.110,18.020,1096.000,268.100,57.720,14.780,104.400,39.720,10.920,3.653,282.800,89.070,27.640,8.774,baseline
1141.000,287.300,67.410,17.900,1096.000,266.200,57.650,14.670,104.800,40.190,11.020,3.636,276.500,87.570,27.330,8.568,baseline
1132.000,283.800,66.680,17.680,1094.000,266.300,57.800,14.710,106.200,39.560,11.040,3.602,275.800,87.600,27.020,8.596,baseline
1134.000,284.300,66.930,17.840,1092.000,266.900,58.500,14.690,103.400,39.170,11.170,3.631,279.500,87.420,27.050,8.594,baseline
1138.000,284.800,66.830,17.860,1098.000,266.600,57.930,14.730,104.900,39.540,10.970,3.656,277.500,87.700,27.330,8.651,baseline
1137.000,285.100,66.320,17.800,1096.000,266.500,58.360,14.710,112.200,39.510,10.980,3.660,278.200,87.920,27.060,8.624,baseline
1138.000,284.600,67.110,17.880,1093.000,266.600,57.580,14.720,105.700,39.350,11.020,3.630,277.700,88.340,27.300,8.596,baseline
1141.000,286.500,66.030,17.940,1098.000,267.500,57.930,14.750,106.300,40.030,11.130,3.634,281.600,88.630,27.550,8.714,baseline
1143.000,288.300,67.060,18.000,1098.000,267.400,58.250,14.770,105.600,39.570,10.920,3.644,281.000,88.990,27.830,8.779,baseline
1147.000,289.800,67.440,18.090,1098.000,267.400,58.450,14.750,104.200,39.890,10.940,3.668,283.600,89.550,27.710,8.708,baseline
1145.000,286.800,66.790,17.860,1094.000,266.300,57.880,14.660,106.100,39.400,11.040,3.625,279.800,87.920,27.120,8.577,baseline
1137.000,284.800,67.280,17.720,1096.000,267.100,57.310,14.660,104.600,39.510,10.990,3.632,278.700,88.050,27.210,8.615,baseline
1138.000,284.900,68.100,17.770,1093.000,266.700,57.370,14.700,108.300,39.650,11.010,3.672,277.400,87.700,27.410,8.606,baseline
1141.000,286.100,67.280,17.850,1098.000,266.800,57.510,14.690,103.100,38.890,11.030,3.658,278.900,87.850,27.210,8.580,baseline
1140.000,284.800,67.200,17.760,1095.000,266.800,58.120,14.690,106.200,39.570,11.040,3.616,277.400,87.680,27.160,8.588,baseline
1141.000,286.800,66.590,17.890,1098.000,267.200,58.180,14.730,106.100,39.860,10.960,3.643,277.900,87.690,27.460,8.674,baseline
1142.000,287.200,66.740,17.900,1097.000,266.800,58.060,14.740,105.800,38.900,11.100,3.664,279.100,88.440,27.520,8.732,baseline
1146.000,288.300,66.710,18.060,1099.000,267.700,58.060,14.750,105.200,39.470,11.040,3.623,281.000,89.160,27.680,8.740,baseline
1149.000,289.700,67.000,18.040,1097.000,268.200,58.140,14.770,105.400,39.440,11.130,3.654,282.200,89.030,27.760,8.773,baseline
1149.000,287.000,65.820,17.870,1095.000,267.200,57.790,14.640,106.900,39.900,11.160,3.631,279.300,87.610,27.050,8.523,baseline
1137.000,283.800,65.180,17.730,1099.000,267.100,57.900,14.660,105.000,39.420,10.990,3.645,276.700,87.040,27.020,8.555,baseline
1137.000,284.000,66.200,17.670,1096.000,267.500,57.740,14.710,103.200,39.370,11.010,3.592,278.200,87.210,27.100,8.519,baseline
1140.000,286.100,66.680,17.690,1099.000,267.800,57.960,14.660,106.200,39.440,11.130,3.577,278.700,87.510,27.120,8.524,baseline
1138.000,285.300,67.280,17.670,1094.000,267.000,57.880,14.710,105.200,40.070,11.080,3.607,276.400,87.150,26.920,8.536,baseline
1139.000,284.800,66.440,17.750,1094.000,267.100,57.400,14.680,104.600,39.630,11.090,3.663,275.800,87.090,27.120,8.558,baseline
1141.000,285.800,67.500,17.800,1098.000,267.000,58.400,14.700,102.800,39.410,11.150,3.687,277.600,87.110,27.330,8.570,baseline
1143.000,286.600,67.020,17.890,1098.000,268.000,57.780,14.720,105.300,39.080,10.930,3.655,279.500,88.090,27.320,8.678,baseline
1146.000,287.900,67.420,17.950,1100.000,267.700,58.270,14.780,104.400,39.610,10.980,3.672,279.100,88.460,27.180,8.721,baseline
1148.000,287.800,66.970,17.880,1098.000,267.100,57.810,14.660,106.200,39.620,11.020,3.648,277.900,87.180,26.930,8.530,baseline
1138.000,284.800,65.280,17.590,1094.000,265.800,57.920,14.650,98.960,39.060,11.040,3.621,275.900,87.170,26.890,8.563,baseline
1137.000,284.200,66.550,17.660,1096.000,267.400,58.340,14.680,104.200,39.360,11.020,3.618,276.500,86.570,26.800,8.346,baseline
1137.000,283.900,64.860,17.570,1095.000,266.600,57.840,14.700,106.800,39.020,11.010,3.627,275.900,86.710,26.690,8.509,baseline
1137.000,284.700,66.020,17.610,1092.000,267.100,57.770,14.710,107.300,39.610,11.040,3.602,274.200,86.690,26.700,8.390,baseline
1137.000,284.900,66.390,17.610,1096.000,266.700,58.250,14.720,104.100,39.120,11.120,3.626,275.600,86.620,27.020,8.438,baseline
1138.000,284.900,67.520,17.670,1095.000,267.600,58.020,14.720,104.200,39.330,11.020,3.668,276.300,87.100,27.200,8.523,baseline
1142.000,285.600,67.120,17.750,1091.000,267.500,57.810,14.750,101.600,39.670,10.980,3.667,279.200,87.100,27.190,8.485,baseline
1143.000,285.000,66.800,17.810,1098.000,266.900,58.020,14.780,103.400,39.580,11.100,3.633,277.700,87.160,27.000,8.533,baseline
1145.000,286.800,67.570,17.900,1097.000,268.000,58.200,14.810,108.500,39.320,11.120,3.687,280.900,88.200,27.330,8.602,baseline
1148.000,287.400,67.720,17.870,1093.000,267.000,57.780,14.730,104.600,40.330,11.190,3.645,276.600,87.380,26.880,8.465,baseline
1138.000,284.800,66.380,17.660,1090.000,266.700,57.890,14.680,105.800,39.420,11.000,3.663,276.100,86.500,26.780,8.370,baseline
1137.000,285.100,65.590,17.610,1094.000,267.400,58.000,14.720,104.300,39.320,11.100,3.622,274.900,86.520,26.660,8.329,baseline
1139.000,284.500,65.360,17.680,1092.000,267.000,58.240,14.720,104.900,39.520,10.970,3.678,274.300,85.920,26.670,8.388,baseline
1139.000,285.200,65.930,17.650,1098.000,266.800,58.120,14.740,106.800,39.390,11.090,3.632,275.400,86.660,26.740,8.414,baseline
1139.000,283.700,66.800,17.670,1094.000,267.500,57.670,14.780,105.000,39.570,11.090,3.663,274.800,86.920,26.940,8.448,baseline
1142.000,285.200,66.780,17.650,1098.000,267.700,58.160,14.790,105.400,39.440,11.080,3.686,276.500,87.000,26.780,8.488,baseline
1144.000,285.700,66.560,17.740,1095.000,268.000,57.660,14.840,107.600,39.420,11.070,3.649,277.300,86.770,26.960,8.488,baseline
1146.000,286.800,66.990,17.760,1097.000,268.100,57.550,14.850,105.700,39.400,11.070,3.646,276.000,86.870,27.130,8.543,baseline
1148.000,287.300,68.110,17.880,1095.000,268.600,58.020,14.830,102.200,39.910,11.150,3.679,275.600,87.790,27.200,8.507,baseline
1151.000,288.300,68.310,17.960,1098.000,268.100,57.930,14.830,105.100,39.420,11.080,3.693,278.700,87.870,27.030,8.537,baseline
1148.000,286.900,65.990,17.770,1092.000,267.800,58.150,14.750,106.300,39.750,11.090,3.693,274.200,87.010,26.740,8.439,baseline
1141.000,285.400,66.480,17.650,1093.000,267.200,57.610,14.770,104.800,39.110,11.090,3.652,275.400,86.220,26.720,8.383,baseline
1140.000,284.500,65.150,17.640,1093.000,267.300,58.410,14.810,108.100,39.380,11.030,3.640,276.000,86.740,26.780,8.460,baseline
1142.000,285.700,66.970,17.670,1094.000,267.300,58.390,14.770,102.900,39.320,11.030,3.646,277.200,87.200,27.010,8.403,baseline
1142.000,285.600,66.170,17.710,1095.000,268.000,57.780,14.780,103.100,39.360,11.160,3.679,276.300,86.290,26.820,8.393,baseline
1143.000,285.900,66.720,17.770,1099.000,268.400,58.350,14.840,107.100,39.570,11.040,3.643,277.500,87.330,26.740,8.446,baseline
1145.000,285.400,66.830,17.780,1100.000,267.400,58.110,14.880,105.300,39.540,11.190,3.640,277.000,87.030,26.970,8.485,baseline
1146.000,288.000,68.520,17.850,1095.000,267.800,57.720,14.840,105.200,39.430,11.050,3.613,278.400,87.470,27.040,8.446,baseline
1148.000,287.300,67.330,17.920,1090.000,267.700,58.370,14.830,105.300,39.300,11.160,3.649,278.800,87.990,27.230,8.620,baseline
1150.000,287.400,66.740,18.030,1096.000,268.300,58.010,14.840,104.500,39.150,11.010,3.697,279.200,87.870,27.130,8.613,baseline
1153.000,289.000,68.070,17.930,1095.000,267.100,58.000,14.770,102.900,39.340,11.150,3.678,278.600,87.880,26.950,8.458,baseline
1145.000,285.400,66.560,17.730,1092.000,266.600,58.270,14.730,106.200,39.770,11.040,3.623,277.700,86.940,26.760,8.379,baseline
1144.000,286.600,66.960,17.740,1096.000,267.200,58.320,14.800,105.200,39.580,11.000,3.639,279.600,87.240,26.700,8.450,baseline
1145.000,286.200,65.890,17.790,1093.000,267.100,57.880,14.790,106.000,39.420,11.090,3.664,277.400,86.830,27.050,8.453,baseline
1145.000,285.600,65.380,17.840,1094.000,266.200,58.420,14.800,104.700,39.150,11.120,3.633,278.200,87.350,26.860,8.424,baseline
1147.000,286.600,66.890,17.770,1095.000,267.000,58.120,14.810,106.500,38.650,11.110,3.646,277.900,87.160,27.060,8.457,baseline
1148.000,286.600,66.370,17.860,1096.000,266.700,58.530,14.810,106.000,39.390,11.140,3.666,279.900,88.490,27.090,8.536,baseline
1150.000,287.800,67.920,17.900,1094.000,267.600,58.540,14.800,104.800,39.800,11.110,3.692,278.800,88.970,27.080,8.662,baseline
1153.000,287.600,67.310,17.930,1096.000,268.300,58.000,14.860,105.500,39.800,11.270,3.672,281.400,87.920,27.370,8.564,baseline
1156.000,289.300,67.130,18.090,1095.000,267.500,58.240,14.800,108.800,40.250,11.160,3.671,281.700,88.710,27.290,8.601,baseline
1152.000,287.200,66.710,17.840,1095.000,267.600,57.920,14.790,102.000,39.640,11.060,3.693,279.600,87.440,26.930,8.507,baseline
1147.000,285.500,66.540,17.750,1093.000,267.300,58.010,14.810,107.400,39.670,10.970,3.619,278.900,87.810,27.140,8.517,baseline
1147.000,285.300,66.060,17.800,1093.000,266.700,58.210,14.790,103.600,39.210,11.140,3.658,280.600,87.490,27.150,8.549,baseline
1149.000,287.300,66.810,17.830,1089.000,266.900,58.400,14.780,108.000,40.070,11.000,3.669,279.500,87.600,27.110,8.484,baseline
1148.000,287.200,66.310,17.850,1094.000,267.900,58.190,14.810,108.700,39.850,11.140,3.665,278.400,88.030,26.990,8.522,baseline
1150.000,286.700,65.970,17.900,1093.000,266.900,57.850,14.800,102.800,39.730,11.050,3.687,279.900,88.430,27.170,8.568,baseline
1151.000,288.600,67.260,17.930,1096.000,267.000,58.050,14.790,105.200,40.160,11.020,3.670,282.000,88.260,27.100,8.602,baseline
1155.000,288.300,67.390,18.020,1096.000,268.200,58.200,14.870,106.900,39.970,11.190,3.684,281.200,88.860,27.540,8.701,baseline
1157.000,289.500,67.330,18.110,1098.000,267.700,58.630,14.860,106.900,39.780,10.870,3.692,283.600,89.190,27.600,8.691,baseline
1161.000,289.500,69.590,18.100,1095.000,268.300,58.790,14.870,106.100,39.850,11.090,3.675,283.400,89.630,27.640,8.693,baseline
1155.000,287.500,68.030,17.880,1093.000,266.800,57.280,14.730,105.400,39.250,10.980,3.618,279.800,87.550,27.320,8.557,baseline
1148.000,286.000,67.630,17.840,1092.000,266.800,57.560,14.770,105.800,39.650,11.150,3.634,280.300,87.760,27.190,8.542,baseline
1149.000,285.800,67.240,17.890,1092.000,267.000,57.680,14.790,108.800,39.450,11.000,3.681,280.200,88.490,26.980,8.570,baseline
1150.000,287.400,66.890,17.860,1091.000,267.200,57.760,14.750,107.200,39.360,11.140,3.647,280.200,88.060,27.120,8.521,baseline
1149.000,286.900,67.200,17.880,1091.000,266.400,58.070,14.730,104.000,39.890,11.060,3.684,280.300,88.340,27.370,8.550,baseline
1151.000,287.500,67.450,17.850,1093.000,267.300,57.980,14.720,105.700,40.180,11.110,3.649,281.100,88.560,27.460,8.669,baseline
1152.000,287.900,66.530,17.930,1091.000,267.600,58.080,14.740,103.700,39.420,11.060,3.685,282.200,88.640,27.370,8.612,baseline
1155.000,289.200,67.970,17.960,1094.000,267.300,57.840,14.800,104.500,39.160,11.250,3.669,280.200,89.370,27.680,8.677,baseline
1157.000,288.700,68.450,18.000,1092.000,266.800,58.230,14.770,105.900,39.820,11.120,3.681,283.300,89.870,27.870,8.709,baseline
1159.000,289.900,66.790,18.110,1094.000,267.300,58.860,14.790,104.000,39.710,11.110,3.704,283.900,89.280,27.960,8.764,baseline
1158.000,289.700,67.700,17.970,1087.000,266.400,57.600,14.700,109.600,39.690,11.090,3.643,282.100,88.450,27.380,8.548,baseline
1148.000,286.300,67.360,17.740,1094.000,266.000,57.000,14.690,104.100,39.870,11.000,3.622,279.100,88.360,27.360,8.590,baseline
1148.000,286.100,67.840,17.750,1089.000,266.400,57.230,14.680,104.800,39.680,11.130,3.675,280.000,88.300,27.420,8.582,baseline
1149.000,286.800,68.120,17.770,1091.000,266.200,57.520,14.730,107.100,39.600,11.050,3.646,281.100,89.010,27.270,8.669,baseline
1149.000,285.700,66.950,17.800,1088.000,265.300,57.760,14.660,102.300,39.730,11.000,3.662,279.900,87.880,27.360,8.720,baseline
1150.000,286.200,66.810,17.810,1091.000,266.400,57.790,14.690,101.800,39.850,11.180,3.648,283.000,88.340,27.590,8.693,baseline
1151.000,287.800,67.330,17.930,1092.000,266.700,58.060,14.720,108.000,39.010,11.050,3.698,280.700,89.390,27.790,8.664,baseline
1153.000,288.700,66.770,17.920,1093.000,267.000,58.220,14.730,106.200,39.700,11.120,3.679,284.100,89.780,27.960,8.701,baseline
1156.000,289.100,67.120,17.990,1092.000,266.600,58.300,14.760,110.400,39.690,11.080,3.677,283.300,89.900,28.040,8.741,baseline
1157.000,289.700,67.500,18.090,1094.000,266.400,57.830,14.760,107.800,39.840,11.010,3.704,286.500,90.350,28.160,8.819,baseline
1160.000,290.200,67.190,18.140,1091.000,266.600,57.600,14.690,107.500,39.880,11.180,3.688,284.600,89.800,27.840,8.743,baseline
1153.000,287.700,67.380,17.780,1088.000,266.600,57.910,14.670,105.200,39.450,11.000,3.643,282.300,89.290,27.510,8.605,baseline
1148.000,286.100,67.030,17.710,1090.000,265.400,57.730,14.720,106.700,39.040,10.930,3.621,282.100,89.200,27.560,8.699,baseline
1150.000,286.700,68.270,17.830,1087.000,266.600,57.590,14.680,106.200,39.330,11.020,3.640,281.800,89.080,27.650,8.785,baseline
1150.000,286.100,66.770,17.760,1088.000,266.200,57.340,14.670,106.500,39.570,11.040,3.634,281.400,88.300,27.530,8.664,baseline
1149.000,285.800,66.660,17.820,1092.000,266.400,57.560,14.710,104.900,39.390,11.010,3.640,283.500,89.100,27.600,8.754,baseline
1151.000,288.600,66.710,17.840,1093.000,266.100,57.990,14.710,104.500,39.610,11.090,3.638,283.100,89.270,27.690,8.712,baseline
1153.000,289.100,67.170,17.960,1090.000,266.100,57.710,14.660,103.500,39.390,11.110,3.629,282.200,90.090,28.070,8.787,baseline
1155.000,288.700,67.640,18.050,1087.000,266.800,57.920,14.740,106.000,39.790,11.040,3.656,283.800,89.910,27.980,8.830,baseline
1158.000,290.500,67.820,18.040,1096.000,267.100,57.760,14.740,107.800,39.220,11.100,3.672,287.100,90.490,28.180,8.872,baseline
1159.000,289.900,68.080,18.090,1090.000,266.000,58.120,14.690,109.100,40.180,11.080,3.638,287.100,90.760,28.190,8.754,baseline
1154.000,288.700,66.840,17.870,1088.000,265.300,57.230,14.590,106.500,39.340,11.150,3.646,283.000,89.560,27.710,8.702,baseline
1148.000,288.500,66.620,17.810,1092.000,266.000,57.170,14.650,104.000,39.140,10.970,3.622,280.900,89.500,27.980,8.681,baseline
1150.000,286.800,68.310,17.870,1088.000,265.900,57.720,14.680,108.600,39.780,10.920,3.650,282.200,89.510,27.730,8.742,baseline
1152.000,287.300,67.420,17.810,1086.000,266.000,57.500,14.620,103.700,39.280,11.030,3.649,284.100,88.670,27.820,8.697,baseline
1150.000,287.100,68.090,17.900,1088.000,266.300,57.330,14.670,109.100,39.020,11.000,3.664,283.900,89.770,27.740,8.714,baseline
1153.000,288.600,67.910,17.910,1091.000,266.100,58.150,14.690,104.500,39.690,10.960,3.637,284.400,89.650,28.070,8.627,baseline
1155.000,288.200,67.850,17.960,1090.000,265.900,57.340,14.700,105.900,39.440,11.060,3.647,285.700,89.980,28.150,8.837,baseline
1158.000,289.000,67.310,18.040,1094.000,266.700,57.590,14.680,106.100,39.060,11.120,3.650,285.600,90.400,28.350,8.833,baseline
1159.000,289.200,67.970,18.080,1096.000,265.900,57.120,14.660,107.300,40.020,11.070,3.653,285.000,90.420,28.110,8.769,baseline
1154.000,288.200,67.280,17.850,1089.000,264.500,57.250,14.590,103.600,38.970,11.130,3.583,284.100,89.390,27.680,8.747,baseline
1150.000,287.500,67.400,17.860,1091.000,266.000,57.640,14.620,103.700,38.990,11.010,3.593,283.700,89.780,27.950,8.757,baseline
1151.000,287.000,66.610,17.900,1089.000,266.000,57.360,14.650,105.300,39.210,10.960,3.597,282.300,89.560,27.790,8.788,baseline
1153.000,287.200,66.370,17.890,1085.000,265.600,57.410,14.640,107.500,39.190,11.080,3.648,281.700,89.310,27.880,8.767,baseline
1152.000,288.000,67.860,17.900,1090.000,266.300,57.360,14.680,108.800,39.220,10.950,3.615,283.100,89.690,27.870,8.808,baseline
1153.000,286.700,67.210,17.920,1085.000,265.300,56.940,14.650,105.800,39.530,10.990,3.626,283.000,90.080,28.180,8.889,baseline
1156.000,286.900,67.370,18.050,1087.000,266.000,57.290,14.640,104.800,39.300,10.990,3.646,285.100,89.900,28.040,8.902,baseline
1159.000,289.700,68.510,18.070,1090.000,266.600,57.430,14.670,107.500,39.330,11.130,3.654,286.200,90.320,27.880,8.891,baseline
1160.000,290.400,68.250,18.190,1091.000,266.100,57.730,14.700,111.100,39.720,11.050,3.672,287.400,90.490,28.260,8.903,baseline
1163.000,289.300,67.560,18.060,1085.000,265.800,57.860,14.590,108.900,39.400,11.100,3.617,286.600,89.700,27.870,8.733,baseline
1152.000,286.400,66.420,17.790,1087.000,264.700,57.590,14.560,104.600,39.030,11.010,3.599,282.200,89.540,27.610,8.723,baseline
1151.000,287.900,65.910,17.810,1085.000,264.900,57.500,14.580,103.800,39.170,10.950,3.617,282.300,88.600,27.920,8.692,baseline
1152.000,287.600,67.150,17.770,1089.000,265.100,57.230,14.600,102.800,39.590,11.000,3.610,283.800,88.890,27.760,8.774,baseline
1151.000,287.700,65.660,17.760,1086.000,264.800,57.060,14.630,105.200,38.760,10.840,3.610,282.400,89.040,27.580,8.695,baseline
1151.000,286.500,66.240,17.770,1087.000,265.500,57.140,14.620,102.800,39.410,11.000,3.596,283.000,89.340,27.830,8.739,baseline
1152.000,288.200,66.650,17.840,1085.000,265.500,57.640,14.620,105.200,39.550,11.020,3.646,283.100,89.380,27.730,8.758,baseline
1155.000,288.300,67.700,17.940,1086.000,265.800,57.240,14.680,106.600,39.350,11.050,3.611,284.900,89.700,27.830,8.741,baseline
1157.000,289.600,67.060,17.970,1089.000,265.500,57.360,14.710,104.800,40.020,11.020,3.629,285.800,90.390,27.720,8.757,baseline
1159.000,290.100,67.650,18.070,1084.000,266.100,57.760,14.660,105.600,39.730,11.110,3.657,285.600,90.110,27.890,8.759,baseline
1158.000,288.800,66.750,17.810,1084.000,264.800,56.850,14.580,107.200,39.300,10.990,3.616,283.800,88.710,27.420,8.615,baseline
1148.000,284.800,66.590,17.710,1083.000,264.700,57.060,14.570,105.800,39.050,10.940,3.577,282.400,88.390,27.560,8.631,baseline
1148.000,287.700,65.790,17.650,1085.000,265.000,57.670,14.620,106.200,39.190,10.950,3.584,281.400,89.120,27.450,8.641,baseline
1149.000,286.300,65.620,17.730,1086.000,264.900,56.900,14.550,106.100,39.240,10.910,3.576,281.100,88.280,27.610,8.649,baseline
1148.000,286.300,66.210,17.740,1084.000,265.200,57.780,14.610,108.000,39.590,11.050,3.594,282.100,89.110,27.380,8.603,baseline
1149.000,287.700,66.870,17.730,1084.000,265.300,57.020,14.600,106.600,39.330,10.900,3.615,283.400,88.820,27.640,8.646,baseline
1151.000,288.000,66.930,17.820,1082.000,265.600,57.170,14.610,103.400,39.200,11.020,3.648,282.500,89.300,27.630,8.658,baseline
1153.000,287.300,68.120,17.920,1083.000,265.200,56.940,14.640,105.100,39.530,11.020,3.602,283.900,89.300,27.760,8.725,baseline
1155.000,288.900,69.020,17.960,1089.000,266.100,57.260,14.680,109.800,39.270,10.950,3.594,284.600,89.200,27.890,8.782,baseline
1156.000,288.700,67.050,17.930,1088.000,265.700,57.260,14.680,108.700,39.810,11.060,3.626,284.900,90.060,28.100,8.703,baseline
1157.000,289.500,68.300,17.870,1084.000,264.900,57.200,14.620,109.300,39.280,11.030,3.635,281.900,89.040,27.720,8.673,baseline
1148.000,285.800,66.750,17.670,1082.000,264.100,57.310,14.610,105.100,38.830,10.920,3.619,281.000,88.680,27.630,8.574,baseline
1147.000,286.300,66.150,17.700,1083.000,264.300,57.100,14.640,106.200,38.880,11.010,3.590,282.700,88.310,27.420,8.680,baseline
1149.000,287.400,66.590,17.690,1085.000,264.500,57.520,14.620,103.800,39.250,10.990,3.632,281.800,88.730,27.470,8.661,baseline
1147.000,285.800,66.130,17.630,1082.000,263.900,57.700,14.590,106.900,39.240,10.960,3.620,283.000,88.210,27.490,8.587,baseline
1147.000,285.300,66.530,17.680,1079.000,264.300,57.250,14.610,105.600,39.390,11.020,3.590,281.700,88.730,27.330,8.722,baseline
1150.000,286.500,67.030,17.790,1083.000,265.400,57.380,14.700,106.400,38.990,11.070,3.612,283.300,88.930,27.490,8.743,baseline
1152.000,287.100,66.830,17.820,1087.000,264.800,57.000,14.710,107.800,39.350,10.930,3.643,283.600,88.440,27.690,8.784,baseline
1154.000,288.500,67.920,17.910,1083.000,265.100,57.850,14.650,101.400,39.660,11.230,3.648,284.100,89.660,27.830,8.678,baseline
1155.000,288.200,68.670,17.900,1084.000,264.700,57.110,14.680,106.000,39.210,11.080,3.623,284.400,89.050,27.380,8.633,baseline
1148.000,285.800,67.480,17.650,1081.000,264.400,56.850,14.620,104.400,39.320,11.020,3.625,282.700,88.210,27.330,8.596,baseline
1146.000,284.500,67.010,17.720,1086.000,264.400,56.850,14.620,108.400,39.360,11.020,3.623,282.000,88.340,27.520,8.559,baseline
1149.000,286.100,67.580,17.780,1079.000,264.200,57.190,14.660,110.100,39.410,10.950,3.616,283.100,88.800,27.330,8.572,baseline
1148.000,286.600,66.730,17.760,1083.000,264.400,57.650,14.640,104.200,39.290,10.970,3.629,282.800,88.350,27.380,8.680,baseline
1149.000,286.500,67.190,17.700,1082.000,264.600,57.780,14.630,104.100,39.250,11.050,3.606,281.500,89.080,27.510,8.628,baseline
1150.000,285.800,66.230,17.840,1083.000,264.300,57.640,14.650,106.000,38.790,11.090,3.598,284.000,88.780,27.530,8.731,baseline
1153.000,287.600,67.390,17.870,1084.000,264.900,57.430,14.700,103.400,39.000,11.160,3.635,284.800,89.660,27.720,8.790,baseline
1154.000,288.000,67.060,17.990,1086.000,265.400,57.650,14.760,104.000,39.710,11.060,3.660,286.300,89.910,27.840,8.783,baseline
1157.000,289.300,67.040,17.960,1084.000,264.300,57.390,14.650,107.600,39.490,11.020,3.668,285.400,89.350,27.710,8.701,baseline
1148.000,287.300,66.390,17.700,1085.000,263.900,56.740,14.660,107.300,39.640,11.050,3.620,282.200,88.740,27.190,8.565,baseline
1146.000,286.400,67.580,17.730,1080.000,264.700,57.200,14.650,106.800,39.110,10.990,3.607,282.900,88.910,27.420,8.639,baseline
1149.000,286.600,66.910,17.720,1087.000,264.600,56.990,14.640,105.100,39.040,10.960,3.657,283.000,88.400,27.530,8.673,baseline
1149.000,286.300,67.930,17.710,1080.000,264.200,57.590,14.620,101.000,38.500,11.030,3.642,284.400,88.570,27.220,8.644,baseline
1148.000,286.600,67.350,17.800,1078.000,264.200,57.170,14.650,107.000,39.010,10.970,3.608,282.900,88.900,27.350,8.672,baseline
1151.000,287.400,67.770,17.820,1083.000,264.400,57.250,14.640,106.600,39.190,11.060,3.632,284.000,88.680,27.540,8.645,baseline
1152.000,288.900,66.070,17.930,1084.000,265.000,57.000,14.700,104.900,39.850,11.110,3.645,284.800,89.500,27.660,8.723,baseline
1155.000,288.200,67.430,17.940,1083.000,265.500,57.560,14.710,110.100,39.360,11.200,3.656,283.300,89.470,27.630,8.742,baseline
1158.000,289.500,66.670,18.080,1083.000,265.400,58.130,14.740,107.500,39.380,11.050,3.649,285.500,89.720,27.910,8.819,baseline
1156.000,288.400,67.900,17.850,1082.000,263.900,57.420,14.660,110.200,39.560,10.930,3.653,283.500,89.410,27.580,8.674,baseline
1147.000,285.800,65.400,17.660,1082.000,263.300,56.880,14.640,107.500,39.250,11.060,3.633,283.000,89.080,27.390,8.664,baseline
1147.000,285.400,65.990,17.640,1081.000,263.300,57.270,14.640,102.900,39.270,10.950,3.613,282.100,88.700,27.490,8.603,baseline
1147.000,285.400,66.890,17.670,1083.000,263.700,57.070,14.630,103.700,39.350,11.020,3.667,281.200,88.690,27.320,8.641,baseline
1146.000,286.600,66.670,17.720,1079.000,263.800,57.060,14.710,106.900,39.140,11.080,3.604,281.100,88.600,27.530,8.689,baseline
1147.000,286.000,66.830,17.700,1080.000,264.300,57.340,14.710,101.500,39.090,11.150,3.653,282.800,89.520,27.250,8.674,baseline
1148.000,286.100,66.670,17.790,1080.000,264.600,57.260,14.700,106.700,39.330,11.020,3.627,284.300,89.180,27.550,8.684,baseline
1151.000,286.700,65.660,17.850,1082.000,264.500,57.730,14.730,104.400,39.490,11.080,3.664,283.700,89.270,27.600,8.744,baseline
1153.000,288.500,67.470,17.910,1079.000,265.300,58.150,14.760,101.700,39.640,11.040,3.621,285.400,89.820,27.680,8.792,baseline
1155.000,289.600,66.330,18.000,1083.000,264.000,58.020,14.730,105.800,39.530,11.140,3.654,286.000,90.330,27.830,8.758,baseline
1157.000,288.500,67.420,17.980,1082.000,263.900,57.300,14.670,105.100,39.020,11.270,3.659,285.600,89.230,27.650,8.679,baseline
1147.000,285.700,65.320,17.680,1080.000,263.900,57.250,14.690,104.300,39.030,11.010,3.654,280.200,88.310,27.270,8.670,baseline
1146.000,285.500,67.360,17.600,1075.000,263.300,57.220,14.640,101.300,38.910,10.940,3.629,279.200,87.920,27.570,8.721,baseline
1145.000,284.500,67.190,17.580,1083.000,263.900,57.220,14.650,105.700,39.460,11.050,3.648,281.900,88.930,27.630,8.623,baseline
1144.000,286.600,66.660,17.670,1077.000,263.800,57.640,14.670,104.100,39.550,10.990,3.588,280.900,88.760,27.690,8.623,baseline
1145.000,286.000,65.600,17.660,1081.000,264.200,57.000,14.660,103.700,38.890,10.960,3.593,280.700,88.780,27.440,8.641,baseline
1147.000,286.300,67.270,17.780,1078.000,263.700,57.150,14.700,102.300,39.090,10.990,3.639,283.700,89.240,27.690,8.676,baseline
1148.000,286.900,67.560,17.720,1078.000,263.800,57.100,14.720,108.200,39.380,11.090,3.668,281.200,88.800,27.890,8.639,baseline
1151.000,288.300,66.510,17.880,1082.000,264.500,57.640,14.750,110.600,39.430,11.130,3.704,283.500,89.640,27.640,8.695,baseline
1152.000,288.600,67.530,17.960,1082.000,263.000,57.810,14.750,105.500,39.270,11.140,3.660,285.200,89.830,28.060,8.754,baseline
1155.000,289.500,67.730,18.060,1079.000,265.100,57.920,14.760,106.800,39.570,11.120,3.678,285.400,90.100,28.200,8.899,baseline
1157.000,289.800,67.050,17.910,1080.000,263.900,57.420,14.670,105.400,39.590,11.110,3.667,283.500,89.370,27.690,8.594,baseline
1147.000,286.200,66.010,17.730,1078.000,263.700,57.040,14.600,103.600,39.470,10.990,3.646,281.200,89.340,27.530,8.692,baseline
1145.000,284.300,66.430,17.620,1075.000,263.400,56.950,14.620,106.700,38.280,11.050,3.650,282.400,88.350,27.370,8.676,baseline
1146.000,286.200,65.810,17.690,1078.000,263.500,56.950,14.650,105.300,39.380,11.100,3.654,281.500,89.060,27.540,8.586,baseline
1146.000,287.400,67.660,17.680,1077.000,263.500,56.730,14.620,105.300,39.070,11.110,3.631,280.100,88.960,27.590,8.744,baseline
1146.000,286.700,66.960,17.720,1077.000,263.300,57.560,14.690,102.800,39.070,11.080,3.624,281.300,88.780,27.630,8.614,baseline
1149.000,285.800,67.340,17.780,1077.000,263.000,56.850,14.710,103.700,39.420,11.160,3.659,282.600,89.400,27.680,8.783,baseline
1151.000,287.200,66.170,17.850,1081.000,264.300,57.470,14.710,105.000,39.250,11.210,3.666,283.600,89.500,27.680,8.819,baseline
1153.000,288.600,67.680,17.970,1083.000,264.400,57.800,14.680,104.700,38.960,11.140,3.690,284.300,90.280,27.650,8.852,baseline
1155.000,287.700,67.290,17.980,1076.000,264.700,57.420,14.730,103.000,39.260,11.150,3.689,283.500,90.090,27.970,8.874,baseline
1158.000,291.000,66.850,18.120,1084.000,264.800,57.400,14.740,108.000,39.420,11.130,3.662,286.400,90.250,28.230,8.864,baseline
1158.000,289.600,67.850,17.930,1079.000,263.000,57.650,14.620,108.200,39.030,11.150,3.664,283.700,89.350,27.750,8.708,baseline
1149.000,287.700,65.380,17.770,1078.000,263.200,57.150,14.690,104.900,39.120,11.040,3.645,282.100,89.090,27.530,8.637,baseline
1149.000,286.900,66.770,17.770,1079.000,263.100,57.120,14.670,106.300,39.300,11.130,3.632,281.900,88.820,27.650,8.697,baseline
1150.000,287.800,67.120,17.870,1076.000,263.300,56.910,14.680,104.600,39.330,11.030,3.653,281.700,89.070,27.580,8.730,baseline
1150.000,286.300,67.100,17.800,1079.000,263.700,57.280,14.680,105.500,39.460,11.050,3.625,282.700,88.860,27.510,8.785,baseline
1151.000,286.900,68.020,17.920,1080.000,263.500,56.370,14.670,105.400,38.750,11.030,3.654,282.600,88.950,27.730,8.679,baseline
1154.000,287.900,67.260,17.930,1078.000,263.500,57.210,14.730,104.800,39.220,11.210,3.657,285.400,89.530,27.840,8.736,baseline
1156.000,289.900,67.760,18.000,1081.000,264.200,57.450,14.720,102.900,39.510,11.010,3.690,283.900,89.650,28.070,8.814,baseline
1158.000,290.500,67.980,18.080,1080.000,264.200,57.360,14.690,102.300,39.260,11.150,3.674,284.600,90.400,28.140,8.896,baseline
1161.000,290.900,67.600,18.160,1079.000,264.100,57.610,14.660,106.100,39.800,11.160,3.695,286.500,90.410,28.120,8.891,baseline
1157.000,289.300,67.050,17.920,1077.000,263.700,57.770,14.620,107.700,39.360,11.050,3.655,282.800,89.080,27.700,8.702,baseline
1152.000,287.500,66.580,17.820,1078.000,262.900,57.510,14.610,105.300,39.380,11.100,3.650,283.700,88.850,27.810,8.768,baseline
1153.000,289.800,66.370,17.820,1078.000,263.100,57.230,14.660,98.750,38.900,11.110,3.683,283.800,89.340,27.940,8.758,baseline
1156.000,288.100,67.620,17.940,1079.000,263.900,57.390,14.650,106.700,39.390,10.970,3.694,282.700,89.770,27.790,8.754,baseline
1156.000,290.100,66.940,17.930,1079.000,263.800,57.240,14.630,103.600,39.720,11.170,3.619,283.800,89.330,27.860,8.773,baseline
1156.000,288.800,67.420,17.970,1078.000,263.900,56.500,14.650,106.200,39.630,11.050,3.652,282.900,89.590,27.820,8.869,baseline
1158.000,288.300,67.660,17.980,1083.000,263.600,57.140,14.600,105.100,39.380,11.160,3.674,286.400,90.080,28.390,8.850,baseline
1160.000,290.200,69.060,18.100,1077.000,263.700,56.820,14.640,108.700,39.250,11.120,3.667,286.600,90.440,28.010,8.974,baseline
1164.000,290.500,68.030,18.180,1085.000,264.500,57.770,14.640,103.400,40.280,11.320,3.665,287.100,90.550,28.470,8.935,baseline
1165.000,290.800,67.680,18.120,1084.000,263.700,56.960,14.570,105.900,39.580,11.190,3.674,285.700,90.050,27.850,8.860,baseline
1156.000,287.500,66.560,17.810,1075.000,262.800,56.780,14.510,99.530,39.180,10.990,3.663,284.000,89.610,27.800,8.750,baseline
1154.000,288.400,67.200,17.880,1078.000,262.700,57.670,14.540,105.600,38.810,11.000,3.617,283.300,89.220,27.760,8.686,baseline
1157.000,288.900,67.220,17.850,1082.000,263.300,57.200,14.570,107.200,39.450,11.020,3.612,283.500,89.380,27.980,8.789,baseline
1157.000,289.500,66.050,17.910,1082.000,263.200,57.320,14.580,104.700,39.020,11.070,3.629,284.400,88.680,27.780,8.743,baseline
1158.000,289.600,66.890,17.820,1081.000,263.000,57.720,14.590,105.800,39.140,11.150,3.673,283.900,89.470,28.090,8.750,baseline
1160.000,290.100,67.440,18.010,1077.000,264.100,56.660,14.580,105.400,39.210,11.060,3.650,285.000,89.350,27.810,8.903,baseline
1162.000,291.900,67.860,18.070,1083.000,264.200,57.040,14.680,103.800,39.480,11.070,3.656,284.600,90.200,28.020,8.920,baseline
1165.000,292.000,67.580,18.210,1087.000,264.100,57.620,14.660,104.400,39.390,11.160,3.703,286.800,91.360,28.190,8.905,baseline
1167.000,292.500,69.310,18.240,1084.000,264.700,57.310,14.670,102.900,39.320,11.100,3.658,287.200,90.740,28.240,8.965,baseline
1170.000,291.600,68.320,18.160,1083.000,264.200,56.650,14.550,107.700,39.220,11.190,3.672,286.000,89.880,27.710,8.778,baseline
1158.000,289.600,67.550,17.840,1080.000,263.500,56.960,14.550,106.800,39.190,11.100,3.625,283.300,88.830,27.610,8.763,baseline
1157.000,288.800,67.600,17.820,1075.000,262.700,57.540,14.550,102.900,38.860,11.060,3.635,283.200,88.890,27.600,8.793,baseline
1158.000,289.800,67.920,17.870,1079.000,263.000,57.100,14.520,104.600,38.710,11.010,3.629,285.300,89.060,27.730,8.747,baseline
1158.000,289.800,66.680,17.920,1079.000,262.700,57.530,14.510,105.100,39.170,11.050,3.591,284.400,88.730,27.660,8.659,baseline
1158.000,289.900,67.070,17.890,1080.000,262.800,57.130,14.570,102.400,39.250,10.930,3.641,283.000,89.870,27.830,8.795,baseline
1160.000,290.400,67.050,18.040,1082.000,263.300,57.920,14.540,106.000,39.260,10.990,3.676,284.700,89.830,27.690,8.712,baseline
1162.000,290.400,67.660,18.080,1082.000,264.200,56.960,14.620,106.100,38.720,11.020,3.637,286.500,89.970,28.180,8.847,baseline
1164.000,290.900,68.830,18.050,1084.000,264.600,57.390,14.640,104.600,39.530,11.050,3.702,287.500,90.970,28.170,8.926,baseline
1167.000,292.200,69.420,18.130,1083.000,263.900,57.040,14.640,106.300,39.090,11.090,3.642,286.900,90.610,28.040,8.867,baseline
1167.000,290.500,68.590,17.980,1081.000,263.700,56.320,14.490,108.900,39.450,11.100,3.640,285.100,88.960,27.770,8.767,baseline
1157.000,288.300,68.040,17.820,1079.000,262.800,56.880,14.540,103.700,39.490,11.150,3.612,282.800,88.670,27.590,8.690,baseline
1156.000,288.500,67.290,17.900,1079.000,262.500,56.810,14.520,105.100,38.800,11.000,3.618,284.000,88.340,27.670,8.706,baseline
1159.000,290.300,67.550,17.900,1079.000,263.300,57.250,14.510,105.900,39.040,10.990,3.645,283.300,88.920,27.730,8.723,baseline
1157.000,288.500,67.540,17.860,1078.000,263.300,56.620,14.540,104.200,39.310,10.980,3.629,283.300,88.970,27.380,8.646,baseline
1157.000,289.100,67.750,17.910,1078.000,263.300,57.420,14.560,105.000,39.390,10.980,3.604,284.500,89.520,27.680,8.685,baseline
1159.000,290.200,66.790,17.940,1077.000,262.800,56.840,14.580,106.900,39.230,11.030,3.677,284.900,89.130,27.660,8.720,baseline
1161.000,290.500,66.570,18.010,1075.000,262.500,56.840,14.590,104.900,38.620,11.070,3.656,285.300,89.820,27.640,8.803,baseline
1164.000,291.200,68.080,18.090,1077.000,263.900,57.280,14.580,107.600,39.640,11.120,3.673,284.900,90.390,27.920,8.740,baseline
1166.000,291.600,67.280,18.110,1080.000,264.200,56.600,14.530,108.500,39.480,11.030,3.662,285.700,89.800,28.010,8.803,baseline
1159.000,289.500,67.470,17.840,1076.000,262.400,56.650,14.500,105.600,39.070,11.050,3.626,281.100,88.680,27.490,8.666,baseline
1155.000,288.700,67.720,17.820,1078.000,263.100,56.620,14.540,103.400,39.000,11.050,3.579,283.200,88.610,27.470,8.632,baseline
1156.000,288.300,67.750,17.890,1079.000,263.000,56.780,14.520,108.500,39.120,11.080,3.634,282.800,88.740,27.590,8.699,baseline
1156.000,288.900,67.970,17.870,1076.000,262.900,56.750,14.540,106.300,39.110,11.070,3.643,285.100,88.470,27.850,8.632,baseline
1156.000,288.200,66.730,17.860,1076.000,262.900,57.230,14.500,106.900,39.140,10.960,3.638,283.100,89.100,27.680,8.730,baseline
1157.000,289.200,65.850,17.980,1075.000,263.000,57.090,14.570,108.400,38.800,10.950,3.651,282.400,89.260,27.640,8.760,baseline
1159.000,289.100,66.980,17.930,1078.000,263.200,57.180,14.560,104.700,39.410,11.060,3.627,284.400,89.150,27.690,8.740,baseline
1161.000,290.000,67.350,18.060,1077.000,263.200,56.910,14.560,104.900,39.460,11.130,3.661,284.700,89.490,28.120,8.769,baseline
1162.000,291.100,67.170,18.000,1076.000,261.800,56.760,14.470,107.300,39.330,10.970,3.645,284.400,89.100,27.570,8.696,baseline
1154.000,287.400,66.520,17.690,1075.000,262.100,56.780,14.500,106.200,39.030,10.980,3.660,281.700,88.970,27.340,8.577,baseline
1153.000,287.700,67.000,17.740,1075.000,262.300,56.110,14.490,107.200,39.340,11.060,3.618,282.900,88.390,27.430,8.722,baseline
1156.000,286.200,67.260,17.780,1076.000,262.000,56.800,14.520,106.000,39.360,11.030,3.621,283.700,88.790,27.510,8.644,baseline
1154.000,287.500,67.420,17.770,1070.000,262.400,56.610,14.530,104.900,39.360,11.060,3.640,281.500,87.890,27.630,8.606,baseline
1155.000,288.800,67.770,17.820,1076.000,262.300,57.130,14.530,105.100,38.650,11.020,3.639,284.000,89.070,27.470,8.608,baseline
1156.000,290.100,66.930,17.890,1077.000,263.100,56.900,14.530,108.100,39.100,11.110,3.630,284.200,89.500,27.690,8.746,baseline
1159.000,288.800,67.530,18.020,1076.000,262.600,56.800,14.570,104.600,38.790,11.100,3.648,285.400,89.600,27.700,8.758,baseline
1161.000,289.700,67.380,18.040,1075.000,263.400,56.950,14.560,105.600,39.220,11.050,3.625,286.600,89.910,28.010,8.751,baseline
1163.000,289.700,66.830,17.980,1073.000,263.300,56.760,14.450,104.100,39.440,11.200,3.676,285.600,89.500,27.600,8.581,baseline
1152.000,287.400,65.440,17.720,1074.000,262.000,57.140,14.510,105.700,38.690,11.130,3.638,280.700,88.730,27.250,8.533,baseline
1151.000,286.600,65.990,17.670,1076.000,262.700,56.860,14.520,106.600,39.620,11.130,3.637,283.600,88.850,27.180,8.595,baseline
1151.000,287.400,66.980,17.740,1075.000,262.100,56.830,14.480,106.000,39.700,11.050,3.666,282.100,89.000,27.370,8.675,baseline
1151.000,286.600,66.760,17.720,1071.000,262.100,56.900,14.540,105.500,39.290,11.000,3.638,281.000,88.420,27.230,8.547,baseline
1152.000,287.200,66.440,17.740,1076.000,263.000,57.150,14.540,106.900,39.540,11.000,3.663,283.500,88.430,27.330,8.637,baseline
1154.000,288.400,67.010,17.800,1078.000,263.100,56.870,14.560,105.900,39.770,10.970,3.640,282.600,88.950,27.520,8.600,baseline
1157.000,287.800,67.830,17.790,1077.000,263.300,56.830,14.550,107.700,39.160,11.070,3.645,285.000,89.940,27.660,8.698,baseline
1159.000,289.700,67.200,17.920,1079.000,264.400,57.300,14.610,107.300,39.230,11.080,3.656,285.400,89.530,27.770,8.719,baseline
1162.000,290.900,68.130,17.950,1071.000,263.500,57.040,14.560,106.600,40.100,11.130,3.656,283.100,89.510,27.670,8.731,baseline
1154.000,286.800,65.680,17.710,1075.000,262.600,57.020,14.540,105.500,38.990,10.950,3.580,283.300,88.180,27.370,8.559,baseline
1151.000,285.800,66.030,17.680,1077.000,262.900,57.440,14.500,102.000,39.140,11.140,3.578,282.100,87.700,27.530,8.566,baseline
1151.000,286.700,65.590,17.680,1077.000,262.800,56.860,14.540,111.200,39.200,10.990,3.628,281.000,87.880,27.410,8.526,baseline
1152.000,288.100,66.320,17.680,1074.000,263.000,56.940,14.540,107.100,39.770,11.230,3.632,281.000,87.930,27.350,8.589,baseline
1152.000,288.000,66.410,17.740,1074.000,262.600,56.920,14.580,103.600,39.220,10.990,3.657,281.800,88.940,27.350,8.556,baseline
1153.000,287.600,66.400,17.720,1077.000,262.600,56.860,14.580,106.700,39.120,11.150,3.638,282.500,88.700,27.610,8.604,baseline
1155.000,288.100,66.920,17.820,1074.000,262.900,56.870,14.610,105.400,38.980,11.170,3.669,283.100,89.050,27.530,8.655,baseline
1157.000,288.100,66.640,17.790,1072.000,263.700,57.110,14.650,109.300,39.620,11.160,3.706,283.700,90.070,27.720,8.686,baseline
1159.000,289.900,67.060,17.920,1077.000,264.100,57.140,14.660,104.200,39.400,11.170,3.648,283.000,89.470,27.710,8.759,baseline
1160.000,288.700,66.830,17.820,1076.000,262.700,57.180,14.610,102.300,39.510,11.180,3.647,283.600,89.300,27.370,8.563,baseline
1153.000,287.200,66.960,17.620,1072.000,263.000,56.990,14.590,107.200,39.640,11.140,3.646,280.600,88.670,27.400,8.633,baseline
1154.000,287.000,65.830,17.660,1077.000,263.200,56.990,14.600,105.000,39.070,11.150,3.658,281.600,89.070,27.500,8.581,baseline
1156.000,287.400,66.470,17.780,1074.000,263.000,57.010,14.590,104.100,39.650,11.050,3.611,282.100,88.740,27.170,8.557,baseline
1155.000,287.500,67.180,17.770,1076.000,263.300,57.120,14.630,104.700,38.920,11.100,3.663,279.900,88.430,27.420,8.596,baseline
1156.000,288.200,65.440,17.760,1077.000,263.400,57.490,14.640,111.400,39.450,11.080,3.644,281.900,88.800,27.620,8.595,baseline
1157.000,288.400,66.460,17.810,1078.000,263.200,57.490,14.670,102.500,39.310,11.030,3.691,283.200,89.610,27.540,8.644,baseline
1159.000,289.600,67.240,17.820,1073.000,263.800,56.980,14.690,104.600,39.180,11.120,3.655,283.100,89.490,27.770,8.765,baseline
1160.000,288.700,67.200,17.930,1080.000,263.900,57.220,14.690,105.400,39.680,11.150,3.678,285.600,90.070,27.810,8.732,baseline
1161.000,290.500,67.170,17.950,1078.000,262.800,56.970,14.650,101.200,39.740,11.140,3.659,282.700,89.910,27.500,8.625,baseline
1156.000,287.800,67.640,17.680,1073.000,263.600,57.000,14.570,107.300,39.710,11.130,3.656,282.700,88.670,27.520,8.643,baseline
1156.000,287.300,66.840,17.720,1077.000,263.900,56.670,14.610,109.500,39.550,11.230,3.721,282.500,88.700,27.730,8.478,baseline
1157.000,288.700,67.080,17.800,1079.000,263.800,57.760,14.660,105.700,39.460,11.250,3.651,281.500,88.640,27.750,8.604,baseline
1158.000,286.500,67.490,17.830,1076.000,263.600,57.420,14.660,105.000,39.290,11.080,3.664,281.200,89.070,27.610,8.542,baseline
1158.000,287.800,67.370,17.850,1075.000,263.600,57.630,14.700,105.900,39.170,11.120,3.662,283.000,89.470,27.460,8.656,baseline
1160.000,290.100,66.470,17.830,1081.000,263.900,57.790,14.690,104.700,39.600,11.160,3.657,284.600,88.900,27.580,8.632,baseline
1162.000,290.700,66.620,18.040,1082.000,264.200,57.350,14.700,102.500,39.330,11.260,3.706,282.500,89.450,27.740,8.746,baseline
1165.000,291.400,66.910,18.000,1082.000,264.200,57.230,14.760,105.700,39.530,11.120,3.716,283.900,90.170,27.870,8.816,baseline
1168.000,292.100,67.890,18.060,1082.000,264.500,57.410,14.710,107.600,39.660,11.210,3.699,286.700,89.930,27.890,8.705,baseline
1162.000,288.100,67.260,17.840,1080.000,264.100,57.780,14.660,107.000,38.970,11.220,3.715,281.800,89.070,27.570,8.643,baseline
1160.000,289.200,66.950,17.810,1077.000,264.100,57.740,14.670,105.600,39.250,11.220,3.667,281.100,89.170,27.580,8.649,baseline
1162.000,289.700,68.060,17.870,1078.000,264.100,56.990,14.730,104.800,39.250,11.180,3.682,281.000,89.370,27.630,8.679,baseline
1162.000,289.200,66.800,17.920,1082.000,263.900,57.010,14.710,108.100,39.780,11.210,3.702,284.900,89.810,27.620,8.729,baseline
1162.000,290.400,66.620,17.940,1080.000,264.400,57.990,14.740,105.800,39.450,11.140,3.678,282.700,89.100,27.900,8.754,baseline
1164.000,290.800,67.020,17.980,1079.000,265.000,57.700,14.730,107.200,39.700,11.210,3.723,285.600,89.630,27.920,8.813,baseline
1166.000,290.100,67.930,18.020,1078.000,265.000,57.540,14.730,112.500,39.620,11.200,3.693,283.000,89.710,28.080,8.746,baseline
1168.000,290.600,67.810,18.070,1082.000,264.900,57.960,14.780,108.100,40.290,11.270,3.705,285.600,90.370,27.950,8.825,baseline
1170.000,292.600,66.740,18.230,1084.000,265.000,57.940,14.790,107.000,40.140,11.190,3.722,286.700,90.080,27.810,8.900,baseline
1172.000,293.300,67.860,18.170,1082.000,265.100,58.080,14.780,107.000,40.010,11.290,3.745,286.400,90.820,28.100,8.817,baseline
1168.000,290.800,67.040,17.880,1081.000,264.100,58.000,14.700,104.700,39.650,11.130,3.705,286.400,89.560,28.040,8.715,baseline
1164.000,290.500,68.160,17.900,1081.000,264.500,57.910,14.760,111.100,39.790,11.210,3.693,283.100,90.230,27.720,8.664,baseline
1164.000,291.400,67.870,17.860,1081.000,264.900,57.490,14.710,105.400,40.110,11.160,3.712,286.800,90.450,27.950,8.867,baseline
1164.000,290.300,69.210,17.950,1082.000,264.700,57.220,14.710,103.900,39.700,11.180,3.713,285.100,89.540,28.200,8.829,baseline
1164.000,289.300,67.830,17.920,1082.000,264.200,57.370,14.730,103.400,39.470,11.180,3.680,285.100,90.450,28.040,8.782,baseline
1166.000,291.900,68.370,18.010,1086.000,264.400,57.130,14.750,107.200,39.490,11.320,3.722,285.400,90.140,28.090,8.808,baseline
1167.000,292.200,67.760,18.060,1082.000,265.000,57.920,14.730,106.400,39.660,11.250,3.733,287.600,90.070,27.920,8.851,baseline
1171.000,292.100,67.120,18.110,1083.000,264.900,58.080,14.750,103.900,39.840,11.250,3.701,287.300,90.370,28.100,8.830,baseline
1173.000,292.600,67.910,18.200,1085.000,265.000,57.890,14.750,107.500,39.690,11.320,3.728,288.900,91.150,28.190,8.876,baseline
1173.000,292.500,68.220,18.220,1083.000,265.400,57.500,14.770,108.500,39.790,11.220,3.720,290.700,91.320,28.450,8.954,baseline
1175.000,293.000,68.540,18.090,1083.000,264.300,57.470,14.690,107.400,39.940,11.230,3.702,288.100,90.300,28.090,8.748,baseline
1165.000,290.700,67.770,17.870,1084.000,264.100,57.510,14.690,105.000,39.530,11.100,3.761,286.700,90.330,28.060,8.831,baseline
1164.000,289.600,67.670,17.880,1083.000,264.400,57.900,14.700,111.200,39.710,11.250,3.670,286.100,90.280,27.860,8.752,baseline
1166.000,291.300,67.950,17.900,1084.000,264.300,57.280,14.700,106.300,39.880,11.240,3.746,286.300,90.210,27.850,8.808,baseline
1165.000,290.100,68.510,17.930,1080.000,264.100,57.200,14.700,107.700,39.670,11.210,3.698,286.900,89.950,28.050,8.802,baseline
1165.000,291.100,67.780,17.890,1083.000,264.300,56.770,14.660,106.300,39.540,11.240,3.761,286.300,90.300,27.900,8.856,baseline
1167.000,291.800,67.850,17.920,1080.000,264.300,57.730,14.680,107.100,39.750,11.200,3.712,287.000,90.280,28.490,8.832,baseline
1167.000,290.400,68.110,18.040,1083.000,264.200,57.400,14.720,108.700,39.650,11.250,3.704,289.200,91.110,28.260,8.826,baseline
1170.000,292.400,68.260,18.100,1081.000,264.800,56.900,14.700,107.400,39.730,11.230,3.714,288.700,91.200,28.440,8.963,baseline
1171.000,292.800,67.360,18.150,1082.000,264.300,57.730,14.690,102.600,39.900,11.290,3.713,291.000,90.930,28.230,8.930,baseline
1169.000,290.300,66.630,17.930,1078.000,263.500,57.720,14.650,110.600,39.460,11.300,3.702,288.800,90.330,28.180,8.884,baseline
1163.000,290.200,66.600,17.870,1078.000,263.500,57.090,14.620,105.400,39.320,11.270,3.700,287.100,90.990,27.920,8.763,baseline
1164.000,291.400,66.250,17.880,1079.000,263.800,57.050,14.600,106.900,39.670,11.230,3.737,287.900,90.050,28.080,8.789,baseline
1164.000,289.800,67.900,17.870,1080.000,263.100,57.200,14.660,110.400,39.710,11.260,3.721,288.600,90.010,28.010,8.836,baseline
1163.000,289.200,68.000,17.800,1081.000,263.800,57.480,14.660,107.300,39.620,11.100,3.717,290.100,90.570,28.160,8.823,baseline
1165.000,290.500,68.650,17.820,1078.000,263.800,57.140,14.630,105.900,39.490,11.350,3.678,289.800,90.960,28.360,8.881,baseline
1166.000,290.500,69.290,17.880,1079.000,263.800,57.090,14.640,107.300,39.900,11.140,3.751,292.000,91.250,28.450,8.825,baseline
1167.000,291.600,67.740,18.000,1079.000,264.200,57.340,14.690,108.900,39.820,11.270,3.728,289.000,91.070,28.210,8.918,baseline
1169.000,291.700,68.330,18.060,1078.000,264.100,57.820,14.650,106.500,39.950,11.350,3.731,291.700,91.120,28.670,8.924,baseline
1170.000,292.300,67.840,18.010,1078.000,263.300,57.500,14.630,105.300,39.670,11.230,3.732,289.600,90.530,28.060,8.861,baseline
1163.000,288.800,65.440,17.850,1075.000,262.900,57.370,14.570,106.800,39.980,11.160,3.683,289.200,90.360,28.030,8.778,baseline
1161.000,290.300,67.730,17.740,1070.000,263.300,57.750,14.570,107.600,39.520,11.250,3.714,288.600,90.190,27.890,8.779,baseline
1160.000,291.300,65.750,17.780,1080.000,263.100,57.560,14.570,106.300,39.640,11.190,3.702,287.800,90.820,28.060,8.823,baseline
1161.000,289.200,65.740,17.790,1078.000,263.500,57.120,14.580,104.800,39.420,11.270,3.687,289.000,90.830,28.250,8.771,baseline
1160.000,288.600,67.490,17.770,1078.000,263.100,57.300,14.570,108.400,39.700,11.310,3.682,289.900,90.520,28.140,8.864,baseline
1162.000,289.800,66.830,17.860,1080.000,263.700,56.960,14.630,107.300,39.780,11.220,3.715,288.700,91.400,28.270,8.908,baseline
1164.000,291.700,69.500,17.900,1078.000,263.600,57.450,14.650,107.400,39.550,11.270,3.683,291.800,91.720,28.320,8.804,baseline
1165.000,290.900,68.030,18.010,1078.000,264.300,57.460,14.640,106.500,40.080,11.250,3.713,289.600,91.910,28.300,8.902,baseline
1167.000,291.000,68.790,18.080,1082.000,264.700,57.820,14.670,105.500,39.670,11.270,3.727,293.400,91.050,28.340,8.962,baseline
1169.000,291.000,68.530,18.080,1080.000,263.500,57.600,14.580,107.700,39.680,11.260,3.696,291.300,91.500,28.520,8.874,baseline
1163.000,290.800,67.820,17.780,1072.000,262.900,57.050,14.490,108.200,39.600,11.300,3.684,288.900,91.160,27.800,8.778,baseline
1158.000,288.600,66.770,17.720,1077.000,262.900,57.590,14.520,107.200,39.690,11.170,3.677,288.100,90.560,27.980,8.851,baseline
1158.000,289.000,67.090,17.790,1076.000,262.900,57.480,14.550,107.700,39.070,11.260,3.672,290.600,90.520,27.980,8.803,baseline
1159.000,289.300,67.280,17.780,1072.000,262.800,57.700,14.560,108.300,39.840,11.210,3.683,289.000,90.700,28.210,8.850,baseline
1157.000,288.700,66.150,17.760,1073.000,262.200,56.950,14.590,108.200,39.890,11.240,3.726,289.000,90.700,28.090,8.811,baseline
1160.000,289.100,67.620,17.860,1082.000,262.500,57.510,14.580,107.800,40.080,11.190,3.708,291.300,90.850,28.400,8.850,baseline
1162.000,291.000,68.000,17.910,1077.000,263.000,56.700,14.590,105.800,39.360,11.270,3.690,289.700,91.260,28.520,8.854,baseline
1163.000,291.700,67.520,17.930,1076.000,263.000,56.990,14.650,104.800,39.790,11.230,3.717,292.100,91.050,28.310,8.897,baseline
