A-DC1,A-DC2,A-DC3,A-DC4,A-DC5,A-DC6,A-DC7,A-DC8,B-DC1,B-DC2,B-DC3,B-DC4,B-DC5,B-DC6,B-DC7,B-DC8,condition
1214.000,304.100,70.290,19.720,996.200,214.500,47.340,11.110,55.760,15.740,4.538,1.502,120.500,34.770,11.110,3.808,baseline
1223.000,304.500,68.920,19.900,1005.000,215.300,48.570,11.120,53.010,15.840,4.517,1.487,119.500,34.680,11.170,3.777,baseline
1230.000,307.200,70.190,20.150,1006.000,215.000,48.600,11.110,53.950,16.090,4.561,1.468,121.500,35.430,11.340,3.835,baseline
1237.000,310.100,70.380,20.210,1006.000,214.400,48.370,11.020,53.340,15.760,4.493,1.478,120.700,35.150,11.120,3.801,baseline
1212.000,301.600,68.330,19.650,994.300,212.600,47.660,10.950,50.950,15.730,4.538,1.475,118.200,34.650,11.180,3.746,baseline
1198.000,297.700,67.100,19.480,994.700,211.500,47.380,10.910,52.410,15.710,4.541,1.454,119.500,34.430,11.070,3.773,baseline
1190.000,294.800,65.670,19.330,990.000,210.800,47.570,10.900,51.010,15.780,4.478,1.465,119.400,34.650,11.000,3.745,baseline
1188.000,298.000,67.690,19.360,988.900,210.600,47.420,10.890,55.360,15.670,4.498,1.458,119.200,34.400,10.990,3.723,baseline
1189.000,298.000,66.310,19.260,994.900,211.000,47.380,10.950,52.030,16.030,4.599,1.456,118.800,34.460,11.090,3.808,baseline
1190.000,295.900,67.240,19.370,990.700,210.700,47.090,10.920,53.430,16.200,4.514,1.464,120.200,34.770,11.050,3.730,baseline
1193.000,297.000,68.520,19.440,993.900,211.000,47.880,10.930,50.550,16.270,4.489,1.453,120.500,34.650,11.050,3.869,baseline
1198.000,300.200,68.850,19.540,990.900,211.900,47.180,10.970,52.290,15.830,4.528,1.482,120.400,34.970,11.110,3.796,baseline
1204.000,300.300,67.960,19.640,995.100,211.500,47.410,11.020,54.850,15.890,4.576,1.462,121.200,35.380,11.390,3.873,baseline
1210.000,301.900,69.180,19.710,992.800,211.800,47.590,10.980,55.040,16.030,4.590,1.481,121.600,35.340,11.370,3.850,baseline
1217.000,302.900,70.500,19.880,992.300,212.000,47.650,11.020,55.010,16.310,4.580,1.476,122.700,35.450,11.360,3.863,baseline
1221.000,304.100,69.450,19.970,999.300,213.000,48.150,11.030,51.240,16.340,4.543,1.496,123.000,35.950,11.340,3.868,baseline
1229.000,306.800,69.170,20.140,1001.000,212.100,46.840,10.980,53.560,16.320,4.614,1.513,122.100,35.600,11.370,3.909,baseline
1220.000,302.700,68.820,19.590,994.800,210.100,47.160,10.920,55.730,16.060,4.590,1.468,122.900,35.160,11.310,3.878,baseline
1197.000,299.100,67.020,19.420,985.500,208.800,47.010,10.820,51.300,15.900,4.565,1.483,120.500,35.130,11.290,3.850,baseline
1191.000,297.300,65.770,19.270,988.200,209.000,46.350,10.830,56.850,15.670,4.511,1.488,121.000,35.390,11.140,3.860,baseline
1187.000,297.600,66.970,19.270,986.400,208.100,46.960,10.810,54.660,15.840,4.527,1.486,120.000,35.320,11.160,3.804,baseline
1188.000,295.600,67.300,19.330,985.100,208.100,46.600,10.820,53.990,16.240,4.624,1.490,121.300,35.220,11.280,3.854,baseline
1189.000,296.700,68.050,19.260,984.100,208.400,46.560,10.810,52.020,16.030,4.571,1.496,121.200,34.960,11.450,3.794,baseline
1192.000,296.400,68.500,19.370,985.800,208.700,47.430,10.850,57.790,15.960,4.604,1.465,120.400,35.720,11.260,3.876,baseline
1197.000,297.400,67.530,19.460,983.100,208.400,46.690,10.830,56.120,16.240,4.593,1.489,120.500,35.720,11.290,3.885,baseline
1200.000,299.700,67.730,19.540,984.900,209.600,46.830,10.850,55.630,16.040,4.588,1.486,123.100,35.870,11.350,3.851,baseline
1205.000,298.400,68.730,19.690,989.400,210.000,47.120,10.870,53.130,16.170,4.673,1.482,121.800,35.530,11.550,3.903,baseline
1210.000,302.500,68.430,19.710,991.300,209.900,47.830,10.850,55.020,16.050,4.619,1.501,124.600,35.850,11.530,3.913,baseline
1212.000,302.700,67.100,19.530,983.700,208.300,46.850,10.810,52.500,16.490,4.596,1.499,122.500,35.530,11.440,3.875,baseline
1190.000,294.100,66.840,19.220,980.600,207.000,47.170,10.750,54.030,16.040,4.607,1.494,122.000,35.490,11.480,3.893,baseline
1184.000,292.700,66.850,19.030,980.600,207.400,46.750,10.720,56.220,16.180,4.573,1.475,121.500,35.100,11.190,3.831,baseline
1181.000,294.200,66.510,19.060,980.900,206.800,46.910,10.730,52.520,15.810,4.603,1.475,121.200,35.820,11.220,3.852,baseline
1181.000,294.000,65.440,19.080,978.100,207.100,46.940,10.790,55.510,16.260,4.597,1.477,121.500,35.100,11.320,3.891,baseline
1183.000,294.500,67.050,19.100,982.300,207.600,46.460,10.810,56.380,16.170,4.556,1.489,121.900,35.870,11.380,3.838,baseline
1187.000,294.800,67.130,19.160,985.100,206.700,46.170,10.810,55.060,16.270,4.599,1.483,121.300,35.870,11.280,3.909,baseline
1191.000,297.300,67.220,19.280,981.000,208.100,46.820,10.880,58.370,16.240,4.555,1.507,124.200,35.730,11.460,3.944,baseline
1195.000,296.200,67.750,19.390,984.900,209.200,47.530,10.860,52.710,16.080,4.552,1.514,123.300,36.270,11.250,3.970,baseline
1201.000,299.400,67.340,19.440,985.400,209.100,47.520,10.860,51.590,15.870,4.609,1.504,123.800,35.610,11.420,3.885,baseline
1192.000,294.300,65.660,19.160,985.100,206.900,46.400,10.820,53.930,16.200,4.513,1.508,122.800,35.550,11.300,3.892,baseline
1180.000,292.300,65.370,19.010,975.500,207.000,46.130,10.760,55.320,16.270,4.555,1.477,122.200,35.440,11.270,3.849,baseline
1173.000,290.600,65.940,18.820,973.600,206.600,46.270,10.790,55.420,16.100,4.579,1.501,120.800,34.940,11.410,3.827,baseline
1171.000,292.900,65.440,18.790,974.900,206.900,46.420,10.800,55.390,15.900,4.530,1.489,120.800,35.020,11.150,3.889,baseline
1171.000,292.500,66.330,18.790,978.900,206.700,47.090,10.850,56.360,16.470,4.567,1.510,121.000,35.370,11.240,3.846,baseline
1173.000,290.600,65.930,18.850,977.300,206.800,46.570,10.870,54.990,16.000,4.633,1.468,122.600,35.230,11.130,3.878,baseline
1177.000,291.600,65.830,18.880,973.400,207.000,46.310,10.770,51.960,16.330,4.528,1.490,121.500,35.550,11.220,3.883,baseline
1176.000,291.800,66.570,18.890,972.700,206.900,46.530,10.820,52.670,16.060,4.606,1.482,121.700,35.230,11.310,3.862,baseline
1178.000,291.900,66.180,18.940,975.600,206.400,46.590,10.800,53.180,15.910,4.535,1.474,122.000,35.290,11.390,3.891,baseline
1181.000,293.000,66.810,19.020,973.200,206.900,46.680,10.800,56.100,16.290,4.540,1.458,121.800,35.480,11.170,3.845,baseline
1183.000,293.400,67.740,19.050,974.800,206.200,46.570,10.780,52.150,16.200,4.538,1.462,120.500,34.900,11.300,3.868,baseline
1187.000,294.700,65.400,19.140,970.800,206.300,46.350,10.710,55.840,15.820,4.545,1.477,121.400,35.190,11.290,3.812,baseline
1168.000,289.700,65.230,18.650,966.100,204.400,46.950,10.670,54.640,15.810,4.589,1.455,119.700,34.960,10.990,3.785,baseline
1161.000,287.300,64.020,18.530,963.700,205.200,46.330,10.700,52.870,15.740,4.473,1.449,119.900,34.630,10.960,3.753,baseline
1153.000,285.900,62.790,18.430,964.900,204.200,46.410,10.720,53.350,16.070,4.522,1.453,119.800,34.990,11.150,3.775,baseline
1155.000,285.500,63.690,18.430,967.400,205.100,46.950,10.760,55.700,16.420,4.543,1.446,120.700,34.610,11.110,3.826,baseline
1156.000,286.700,64.690,18.460,966.900,204.700,45.940,10.760,51.880,15.930,4.497,1.476,119.600,34.790,11.100,3.813,baseline
1160.000,288.100,65.240,18.620,969.700,204.900,46.620,10.860,54.440,16.080,4.549,1.473,121.000,34.970,11.200,3.824,baseline
1164.000,288.100,65.460,18.700,971.600,206.600,46.610,10.860,53.350,16.010,4.525,1.488,120.800,35.010,11.270,3.831,baseline
1169.000,290.600,65.700,18.790,975.200,205.900,46.610,10.930,52.390,15.860,4.484,1.500,121.000,35.140,11.340,3.874,baseline
1174.000,290.100,65.140,18.860,973.200,207.100,47.390,10.980,55.520,16.000,4.601,1.501,122.600,35.210,11.270,3.915,baseline
1179.000,294.100,67.760,19.060,981.300,206.800,47.240,11.020,54.280,16.080,4.605,1.498,121.500,35.480,11.320,3.906,baseline
1185.000,293.800,66.390,19.200,980.700,207.600,46.980,11.040,55.250,16.150,4.592,1.474,122.700,35.620,11.340,3.954,baseline
1192.000,295.800,66.720,19.150,977.900,207.400,47.350,10.950,55.860,16.400,4.612,1.519,121.700,35.600,11.520,3.904,baseline
1170.000,290.800,65.630,18.740,973.900,205.900,46.690,10.920,53.840,16.080,4.598,1.506,121.400,35.500,11.380,3.902,baseline
1163.000,288.400,64.980,18.580,969.200,204.900,47.040,10.850,55.560,16.110,4.540,1.495,120.500,35.060,11.220,3.852,baseline
1154.000,283.600,65.400,18.400,971.200,205.300,45.940,10.840,52.910,16.020,4.602,1.514,120.600,34.950,11.120,3.836,baseline
1154.000,287.300,64.340,18.440,969.100,205.800,46.610,10.880,52.650,16.100,4.472,1.495,119.400,34.800,11.200,3.865,baseline
1154.000,286.200,64.560,18.430,969.500,205.800,46.460,10.870,55.130,16.130,4.600,1.502,120.900,34.880,11.070,3.832,baseline
1157.000,285.000,66.150,18.560,972.900,206.500,46.280,10.950,56.160,15.930,4.588,1.496,121.400,35.250,11.270,3.841,baseline
1161.000,288.600,65.710,18.630,975.400,206.000,47.060,10.940,51.570,16.110,4.587,1.523,121.600,35.230,11.280,3.852,baseline
1166.000,287.600,65.120,18.720,977.900,207.700,46.270,10.990,54.690,16.130,4.565,1.511,122.000,35.550,11.250,3.911,baseline
1172.000,290.200,67.480,18.890,983.200,207.900,47.290,11.060,55.260,16.460,4.566,1.482,120.900,35.350,11.400,3.921,baseline
1180.000,292.700,66.630,19.100,985.400,209.600,47.280,11.040,53.450,16.120,4.556,1.497,121.700,35.620,11.390,3.928,baseline
1182.000,292.900,66.140,18.790,977.600,207.900,47.560,10.980,55.740,16.270,4.650,1.500,122.500,35.130,11.350,3.901,baseline
1164.000,288.000,64.490,18.650,976.900,207.100,47.380,10.960,56.830,16.200,4.526,1.489,120.900,35.000,11.100,3.789,baseline
1157.000,287.100,64.270,18.490,978.800,207.200,47.080,10.940,55.890,16.520,4.620,1.489,120.100,34.930,11.110,3.832,baseline
1154.000,285.500,64.260,18.410,981.500,207.500,46.730,10.960,53.970,16.430,4.586,1.494,120.400,34.980,11.330,3.787,baseline
1157.000,286.600,64.170,18.560,980.400,208.000,47.220,11.000,54.330,16.150,4.584,1.498,119.000,34.920,10.960,3.849,baseline
1158.000,287.400,65.320,18.630,982.600,208.500,47.480,11.030,52.230,16.010,4.651,1.501,120.600,35.360,11.400,3.873,baseline
1163.000,289.600,65.140,18.740,981.900,209.400,47.760,11.000,57.020,16.270,4.754,1.513,120.900,34.930,11.230,3.859,baseline
1166.000,289.700,65.140,18.810,983.900,209.600,47.250,11.070,56.690,16.440,4.595,1.518,120.700,35.390,11.140,3.868,baseline
1171.000,289.600,65.660,18.900,988.600,209.400,47.410,11.010,54.120,16.180,4.664,1.520,122.000,35.430,11.170,3.876,baseline
1176.000,294.200,66.720,19.150,991.500,209.500,48.060,11.080,56.330,16.540,4.676,1.525,121.700,35.730,11.420,3.921,baseline
1186.000,293.400,66.830,19.180,992.500,210.000,48.330,11.100,57.520,16.590,4.727,1.538,122.600,35.880,11.350,3.917,baseline
1191.000,296.200,67.730,19.370,995.100,211.500,48.470,11.170,57.410,16.230,4.781,1.546,123.500,35.590,11.590,3.975,baseline
1197.000,297.300,67.400,19.470,998.600,211.800,48.150,11.180,56.320,16.550,4.698,1.521,123.200,36.400,11.630,3.985,baseline
1204.000,298.900,68.470,19.640,997.000,212.700,47.890,11.180,56.500,16.720,4.811,1.539,123.800,36.360,11.640,3.988,baseline
1211.000,299.900,68.760,19.800,1000.000,212.500,48.450,11.150,57.280,16.910,4.705,1.536,124.300,36.230,11.710,3.997,baseline
1204.000,298.600,66.840,19.370,993.200,210.000,47.870,11.010,54.750,16.490,4.740,1.534,123.500,35.520,11.550,4.031,baseline
1180.000,293.300,68.470,19.050,988.600,209.500,47.400,10.920,55.820,16.950,4.658,1.534,122.900,36.120,11.540,3.962,baseline
1172.000,289.900,66.010,19.000,992.400,208.900,47.270,10.900,54.080,16.800,4.643,1.536,122.400,36.190,11.400,3.963,baseline
1168.000,289.900,67.150,18.950,988.500,208.700,47.220,10.970,59.660,16.600,4.754,1.526,123.000,35.690,11.470,3.906,baseline
1170.000,289.400,66.780,18.950,986.600,208.900,47.010,10.960,54.450,16.650,4.642,1.529,123.200,35.900,11.710,3.980,baseline
1173.000,291.500,66.630,19.030,985.100,209.000,47.890,10.970,56.960,16.490,4.684,1.514,124.000,35.960,11.420,3.967,baseline
1179.000,293.500,66.620,19.050,989.900,210.500,47.560,11.020,55.280,16.620,4.700,1.538,123.300,36.040,11.570,3.958,baseline
1183.000,291.800,68.420,19.190,998.400,211.300,47.790,11.030,56.970,16.450,4.698,1.564,123.500,35.700,11.500,3.973,baseline
1190.000,296.000,66.490,19.390,998.200,212.200,47.850,11.070,56.250,16.470,4.663,1.553,122.500,35.960,11.640,3.967,baseline
1196.000,295.900,67.370,19.440,996.800,212.100,48.070,11.080,54.880,16.600,4.702,1.542,124.500,36.020,11.650,4.031,baseline
1202.000,299.100,67.930,19.630,1002.000,213.700,48.250,11.140,54.370,17.120,4.803,1.558,124.000,36.460,11.690,4.045,baseline
1210.000,301.600,68.390,19.800,1009.000,213.800,48.420,11.150,53.510,16.670,4.708,1.539,123.500,36.450,11.560,4.058,baseline
1216.000,302.700,69.760,19.840,1008.000,214.700,48.340,11.210,56.710,16.230,4.741,1.549,125.500,37.010,11.820,4.102,baseline
1224.000,305.900,69.860,19.940,1011.000,213.600,48.690,11.120,57.950,16.610,4.731,1.541,125.800,36.810,11.600,4.095,baseline
1201.000,298.500,68.300,19.430,1000.000,211.900,47.590,11.050,53.410,16.930,4.681,1.551,125.100,36.160,11.790,3.991,baseline
1192.000,294.200,68.300,19.380,999.800,211.600,47.770,10.960,57.280,16.680,4.757,1.537,123.500,36.330,11.720,4.001,baseline
1187.000,295.800,67.350,19.300,993.900,212.600,48.090,11.000,58.730,16.740,4.776,1.539,123.100,36.180,11.580,4.028,baseline
1189.000,295.600,68.430,19.250,998.900,211.700,47.890,11.020,53.020,16.720,4.675,1.544,123.300,35.860,11.630,4.042,baseline
1189.000,296.500,67.720,19.220,999.000,212.400,47.770,10.990,55.100,16.960,4.730,1.554,124.000,36.540,11.400,4.006,baseline
1192.000,295.400,67.430,19.360,994.000,212.500,49.100,11.020,54.310,16.800,4.668,1.546,123.600,36.460,11.540,4.037,baseline
1197.000,297.000,68.240,19.490,1004.000,213.100,48.160,11.040,61.240,16.900,4.776,1.533,124.100,36.570,11.590,4.044,baseline
1203.000,298.700,69.110,19.560,1001.000,213.900,48.700,11.070,54.660,16.740,4.763,1.527,124.700,36.500,11.890,4.109,baseline
1207.000,301.800,67.580,19.760,1007.000,213.900,48.250,11.090,55.530,16.640,4.765,1.534,125.400,36.360,11.700,4.047,baseline
1214.000,303.400,68.000,19.810,1008.000,213.500,48.640,11.120,54.820,17.180,4.765,1.566,125.400,36.870,11.840,4.021,baseline
1220.000,303.600,69.660,19.990,1007.000,215.400,48.620,11.160,55.400,16.600,4.698,1.551,124.900,37.050,11.780,4.093,baseline
1227.000,306.700,71.490,19.980,1015.000,215.800,48.510,11.160,57.170,16.820,4.798,1.545,125.700,37.260,11.920,4.112,baseline
1211.000,301.000,69.430,19.540,1006.000,212.400,47.460,11.000,55.510,16.720,4.693,1.552,125.400,36.620,11.650,4.030,baseline
1197.000,296.800,69.390,19.410,999.800,212.500,47.860,10.980,56.840,16.750,4.746,1.566,123.700,36.420,11.660,4.013,baseline
1191.000,295.200,68.620,19.250,998.300,212.100,47.890,10.970,55.770,16.470,4.637,1.530,123.600,36.170,11.420,4.037,baseline
1190.000,296.700,67.320,19.350,1002.000,212.300,47.800,10.980,55.080,16.870,4.692,1.543,123.400,35.950,11.640,3.979,baseline
1190.000,295.400,66.940,19.250,998.300,213.100,48.170,11.000,53.750,16.620,4.658,1.555,124.300,36.180,11.680,3.974,baseline
1193.000,297.200,67.030,19.370,996.300,213.700,48.990,11.050,55.200,16.620,4.814,1.537,125.700,36.300,11.670,3.997,baseline
1198.000,298.100,68.200,19.500,998.900,213.700,48.330,11.060,56.790,16.650,4.787,1.530,124.400,35.840,11.710,4.024,baseline
1203.000,301.300,67.140,19.540,1006.000,214.500,48.600,11.050,55.080,16.500,4.749,1.537,125.800,36.140,11.490,4.046,baseline
1209.000,300.800,68.600,19.770,1006.000,214.200,48.410,11.170,54.970,16.960,4.769,1.535,125.800,36.750,11.570,4.017,baseline
1214.000,302.400,69.860,19.740,1007.000,215.800,48.260,11.160,55.620,16.620,4.778,1.559,125.800,36.750,11.810,4.071,baseline
1222.000,305.200,70.620,19.910,1017.000,216.000,47.690,11.150,54.010,16.860,4.777,1.539,125.400,36.750,11.790,4.098,baseline
1208.000,299.800,67.800,19.350,1001.000,213.500,48.110,10.990,55.440,16.710,4.682,1.523,124.400,36.300,11.630,4.023,baseline
1192.000,296.900,67.820,19.160,998.300,212.900,47.580,11.010,55.940,16.520,4.708,1.520,123.400,35.860,11.560,3.977,baseline
1184.000,292.900,65.930,18.980,995.500,213.100,46.960,10.950,56.760,16.580,4.783,1.521,121.700,36.080,11.510,3.946,baseline
1180.000,292.700,66.860,18.950,997.100,212.400,47.420,10.970,54.570,16.560,4.747,1.543,123.100,35.550,11.380,3.927,baseline
1179.000,292.500,66.690,18.970,996.000,212.600,48.160,11.040,54.770,16.810,4.752,1.556,123.600,35.900,11.460,3.917,baseline
1179.000,289.900,66.200,19.010,995.100,212.100,48.190,11.070,53.520,16.240,4.707,1.534,122.300,35.650,11.270,3.891,baseline
1183.000,294.000,66.410,19.010,1002.000,212.800,48.000,11.070,55.370,16.400,4.611,1.510,121.900,35.450,11.410,3.908,baseline
1185.000,295.100,67.180,19.140,995.600,212.500,48.110,11.080,56.760,16.980,4.701,1.583,123.200,36.320,11.430,3.958,baseline
1190.000,296.300,67.330,19.220,999.000,213.100,48.190,11.140,56.550,16.320,4.715,1.532,124.000,36.120,11.570,3.934,baseline
1195.000,298.200,66.770,19.350,1003.000,213.900,47.810,11.160,54.840,16.640,4.729,1.533,123.800,35.960,11.680,3.949,baseline
1201.000,299.500,68.800,19.560,1006.000,214.300,48.110,11.210,54.400,16.680,4.738,1.533,123.600,35.730,11.540,3.966,baseline
1207.000,300.300,68.570,19.710,1005.000,214.200,48.960,11.260,56.260,16.480,4.769,1.515,124.100,36.180,11.720,4.036,baseline
1216.000,303.700,70.320,19.790,1008.000,215.500,48.210,11.290,57.620,16.420,4.849,1.560,124.100,36.460,11.650,4.054,baseline
1221.000,305.100,71.350,19.960,1010.000,215.700,48.820,11.290,58.730,16.940,4.801,1.577,124.300,36.980,11.700,3.974,baseline
1228.000,305.100,69.840,19.760,1004.000,214.300,48.030,11.160,56.960,17.050,4.700,1.545,125.500,36.150,11.530,3.965,baseline
1194.000,296.100,66.460,19.190,994.000,212.300,48.310,11.090,55.810,16.480,4.770,1.564,123.500,35.650,11.570,3.915,baseline
1184.000,294.900,66.110,19.140,994.200,212.100,47.940,11.030,54.340,16.500,4.700,1.567,123.700,35.350,11.380,3.973,baseline
1175.000,290.900,65.450,18.920,994.800,211.200,47.990,11.070,54.900,16.680,4.747,1.555,122.400,35.730,11.340,3.918,baseline
1174.000,292.200,66.150,18.880,991.900,211.500,47.800,11.050,54.310,16.750,4.780,1.525,122.500,35.080,11.470,3.909,baseline
1172.000,291.600,64.990,18.900,990.500,211.100,48.590,11.100,53.300,16.690,4.785,1.532,121.300,35.490,11.340,3.892,baseline
1176.000,293.700,65.880,18.980,995.900,211.500,47.780,11.100,56.380,16.600,4.730,1.554,122.500,35.870,11.370,3.902,baseline
1181.000,293.500,66.680,19.080,999.900,212.100,47.950,11.150,55.840,16.910,4.645,1.571,121.600,35.910,11.450,3.979,baseline
1185.000,293.800,67.130,19.250,1000.000,212.700,47.670,11.210,54.560,16.760,4.792,1.551,123.400,35.780,11.530,3.903,baseline
1190.000,295.400,67.160,19.330,998.900,213.500,47.290,11.230,53.080,16.590,4.830,1.537,123.100,35.680,11.340,3.922,baseline
1196.000,297.100,68.550,19.360,1005.000,213.800,48.080,11.240,51.930,16.400,4.668,1.552,124.500,36.200,11.560,4.006,baseline
1203.000,298.600,68.620,19.550,1006.000,215.000,48.680,11.250,53.370,16.630,4.792,1.558,123.600,36.110,11.690,3.956,baseline
1208.000,302.800,68.600,19.650,1012.000,215.200,49.210,11.290,56.750,16.800,4.785,1.578,124.800,36.230,11.710,4.017,baseline
1216.000,301.500,69.240,19.820,1012.000,216.500,49.760,11.300,52.870,16.480,4.815,1.539,125.100,36.500,11.620,3.987,baseline
1224.000,305.800,70.010,19.960,1013.000,217.000,49.290,11.260,54.370,16.870,4.721,1.550,125.600,36.240,11.560,4.040,baseline
1206.000,298.800,68.140,19.400,1001.000,213.900,48.160,11.120,55.310,16.820,4.800,1.561,123.300,35.890,11.530,3.927,baseline
1186.000,294.000,67.140,19.070,1002.000,213.300,48.100,11.130,58.690,16.660,4.733,1.542,123.100,35.670,11.540,3.941,baseline
1177.000,293.400,65.080,18.960,993.900,212.800,48.500,11.080,55.580,16.510,4.790,1.531,122.400,35.810,11.270,3.896,baseline
1172.000,291.300,67.050,18.970,995.700,212.400,48.370,11.160,55.120,16.910,4.790,1.544,123.100,35.880,11.170,3.967,baseline
1170.000,291.200,66.410,18.850,997.300,213.100,47.830,11.090,55.910,16.830,4.777,1.546,121.800,35.240,11.450,3.923,baseline
1173.000,291.300,66.500,18.890,997.800,212.200,47.750,11.120,55.690,16.600,4.745,1.548,122.400,36.210,11.400,3.895,baseline
1177.000,292.600,67.030,19.070,996.700,213.800,47.690,11.210,55.650,16.430,4.674,1.541,123.200,35.600,11.380,3.907,baseline
1182.000,295.500,67.680,19.210,996.500,213.400,48.260,11.160,56.060,16.680,4.767,1.561,123.600,35.890,11.520,3.943,baseline
1187.000,294.800,67.570,19.190,1002.000,214.500,48.550,11.210,55.050,16.740,4.750,1.557,123.800,36.150,11.630,3.955,baseline
1192.000,297.800,67.930,19.420,1002.000,215.000,48.790,11.240,56.000,17.080,4.770,1.553,123.900,35.590,11.520,3.940,baseline
1199.000,298.600,68.580,19.570,1003.000,215.400,48.810,11.290,57.510,16.650,4.710,1.551,124.400,36.210,11.510,4.014,baseline
1205.000,301.500,68.220,19.660,1008.000,215.700,49.140,11.310,57.200,16.330,4.801,1.571,125.600,36.220,11.600,3.993,baseline
1211.000,302.700,69.670,19.810,1015.000,216.300,49.530,11.380,57.070,16.720,4.786,1.572,124.500,36.640,11.670,3.987,baseline
1218.000,303.900,69.840,19.980,1014.000,217.300,49.630,11.390,55.730,16.910,4.735,1.579,125.800,36.700,11.740,4.032,baseline
1221.000,304.400,68.550,19.750,1010.000,215.400,48.990,11.210,59.180,16.910,4.819,1.575,125.900,36.560,11.510,4.009,baseline
1188.000,295.400,66.630,19.200,1001.000,213.600,48.510,11.190,54.590,16.610,4.723,1.533,124.100,36.160,11.540,3.975,baseline
1180.000,293.400,68.150,19.080,998.700,213.400,47.740,11.140,57.690,17.080,4.768,1.545,123.400,36.250,11.410,3.948,baseline
1171.000,291.700,67.090,18.920,994.500,212.900,47.890,11.150,55.800,16.790,4.718,1.568,124.300,35.800,11.420,3.892,baseline
1171.000,290.100,66.550,18.920,994.400,213.000,47.600,11.150,55.010,16.560,4.728,1.520,123.000,35.870,11.440,3.937,baseline
1171.000,292.300,67.500,18.960,996.700,213.300,47.980,11.120,57.600,16.580,4.762,1.562,123.400,35.900,11.290,3.921,baseline
1174.000,293.100,67.800,19.040,997.600,214.400,48.360,11.150,57.610,16.790,4.663,1.544,125.100,35.970,11.450,3.956,baseline
1178.000,292.800,66.710,19.170,999.800,214.100,47.820,11.190,56.470,16.810,4.685,1.505,124.200,36.300,11.450,3.919,baseline
1183.000,294.500,66.550,19.270,1003.000,213.900,47.890,11.240,59.380,16.500,4.748,1.551,124.000,35.810,11.580,3.977,baseline
1188.000,296.700,66.340,19.290,1004.000,214.000,48.540,11.210,56.560,16.680,4.768,1.564,125.300,36.640,11.650,4.015,baseline
1193.000,299.000,67.620,19.500,1001.000,214.300,49.420,11.290,54.460,16.650,4.745,1.580,125.200,36.200,11.670,3.968,baseline
1199.000,299.600,67.540,19.560,1009.000,215.500,49.070,11.310,55.400,16.610,4.770,1.574,125.300,36.890,11.520,4.027,baseline
1206.000,299.800,69.330,19.720,1006.000,215.900,48.680,11.320,57.950,17.050,4.787,1.584,125.300,36.170,11.560,4.015,baseline
1212.000,301.400,69.210,19.920,1013.000,215.900,48.850,11.390,57.050,16.960,4.771,1.556,125.900,36.970,11.820,4.043,baseline
1221.000,303.900,71.040,19.970,1014.000,217.400,48.860,11.330,55.650,16.860,4.851,1.567,126.700,37.010,11.790,4.088,baseline
1206.000,299.800,66.890,19.270,1003.000,214.500,48.560,11.160,54.830,16.760,4.822,1.555,124.100,36.370,11.490,3.951,baseline
1181.000,294.100,68.590,19.130,1000.000,213.500,48.510,11.190,55.550,16.690,4.743,1.574,124.900,35.770,11.510,3.981,baseline
1173.000,292.700,65.290,18.990,997.600,213.100,48.020,11.120,59.080,16.570,4.785,1.532,124.500,36.020,11.520,3.957,baseline
1169.000,290.600,66.240,19.000,999.200,213.500,48.470,11.150,56.820,17.200,4.741,1.559,124.600,36.110,11.490,3.943,baseline
1169.000,292.000,66.130,19.040,997.900,213.100,48.280,11.090,58.390,16.830,4.727,1.562,124.000,35.990,11.490,3.948,baseline
1170.000,291.200,66.910,18.980,998.700,213.100,48.630,11.150,56.120,16.810,4.743,1.558,124.700,35.920,11.640,3.971,baseline
1175.000,294.900,66.690,19.080,1000.000,213.600,48.330,11.220,53.860,16.540,4.762,1.580,124.000,36.180,11.520,3.999,baseline
1179.000,294.700,66.110,19.160,1007.000,214.700,48.850,11.210,56.520,16.570,4.772,1.569,124.100,36.450,11.740,3.956,baseline
1183.000,296.000,67.750,19.250,1003.000,214.400,48.460,11.240,56.680,16.680,4.798,1.576,124.900,36.220,11.680,4.013,baseline
1188.000,296.500,67.560,19.350,1005.000,215.200,48.510,11.270,56.470,16.850,4.842,1.581,125.900,36.290,11.680,4.004,baseline
1195.000,298.300,68.680,19.550,1008.000,216.600,48.870,11.280,57.820,16.890,4.735,1.544,125.600,36.620,11.790,4.062,baseline
1202.000,301.000,68.050,19.650,1001.000,216.400,48.800,11.330,56.920,16.950,4.833,1.556,125.700,36.790,11.700,4.030,baseline
1207.000,302.200,69.210,19.740,1013.000,216.500,48.830,11.350,53.890,16.930,4.833,1.584,125.800,36.920,11.910,4.046,baseline
1214.000,304.600,69.340,19.910,1011.000,217.400,49.200,11.330,56.280,16.910,4.817,1.576,125.500,36.760,11.750,4.094,baseline
1219.000,304.700,69.970,19.760,1005.000,215.400,48.310,11.200,54.630,17.180,4.864,1.542,125.900,36.570,11.780,3.990,baseline
1182.000,295.500,66.830,19.160,997.200,213.900,48.030,11.090,57.140,17.150,4.737,1.535,124.900,36.440,11.590,3.951,baseline
1172.000,292.700,65.530,18.960,995.000,211.700,48.090,11.010,56.690,16.590,4.678,1.545,123.700,36.290,11.540,3.968,baseline
1163.000,289.300,65.310,18.870,990.900,212.100,47.910,11.040,57.920,16.740,4.732,1.539,124.000,36.130,11.530,3.894,baseline
1162.000,289.500,64.210,18.800,993.800,211.900,47.800,11.050,56.460,16.480,4.633,1.553,124.300,35.910,11.460,3.920,baseline
1161.000,289.100,65.550,18.820,991.300,212.100,48.200,11.040,50.700,16.600,4.764,1.548,124.800,35.960,11.300,3.914,baseline
1162.000,291.600,65.670,18.860,985.100,210.900,47.680,11.010,57.380,16.850,4.714,1.547,123.800,35.860,11.500,3.900,baseline
1165.000,290.200,67.110,18.800,992.800,211.000,47.490,10.990,55.380,16.470,4.701,1.513,123.800,36.140,11.340,3.968,baseline
1169.000,290.800,66.570,18.890,995.600,211.700,47.880,10.990,56.680,16.360,4.762,1.528,123.200,35.900,11.370,3.968,baseline
1174.000,292.800,67.000,18.980,995.800,213.100,48.030,11.100,58.940,16.700,4.737,1.545,124.300,36.240,11.440,3.934,baseline
1180.000,295.100,67.420,19.250,998.200,214.000,47.760,11.120,56.160,16.710,4.757,1.555,123.700,35.960,11.460,3.977,baseline
1187.000,296.800,68.070,19.300,1001.000,214.200,48.380,11.160,56.480,16.690,4.677,1.551,125.400,36.380,11.470,4.000,baseline
1194.000,298.500,69.170,19.500,1002.000,214.700,48.150,11.200,57.740,16.680,4.703,1.550,124.100,36.110,11.660,3.979,baseline
1200.000,301.300,68.280,19.630,1005.000,215.300,48.970,11.240,55.920,16.570,4.797,1.568,125.400,36.700,11.510,3.987,baseline
1209.000,302.200,69.810,19.760,1003.000,216.000,48.870,11.160,56.200,16.520,4.682,1.576,125.500,36.170,11.620,3.980,baseline
1185.000,295.100,66.530,19.060,999.000,212.500,48.400,11.060,56.550,16.210,4.749,1.542,123.500,35.670,11.410,3.878,baseline
1167.000,291.400,66.180,18.870,988.700,211.800,47.470,11.000,54.520,16.630,4.792,1.572,122.500,35.940,11.390,3.880,baseline
1159.000,289.300,65.510,18.750,986.800,211.800,47.200,10.980,58.590,16.590,4.694,1.536,123.200,35.420,11.350,3.854,baseline
1155.000,287.800,65.830,18.630,988.200,211.700,47.270,11.010,56.710,16.510,4.677,1.515,122.200,35.410,11.170,3.839,baseline
1155.000,289.100,66.100,18.620,987.400,211.200,46.600,11.010,57.320,16.320,4.763,1.527,122.500,35.600,11.360,3.841,baseline
1155.000,288.800,65.490,18.650,988.700,211.300,47.170,11.020,58.110,16.400,4.695,1.504,122.000,35.300,11.330,3.836,baseline
1159.000,288.200,66.310,18.790,993.000,211.600,47.330,11.070,53.960,16.570,4.747,1.523,122.900,35.900,11.390,3.934,baseline
1163.000,290.600,68.270,18.940,988.100,212.200,47.740,11.040,57.530,16.600,4.712,1.535,123.300,35.480,11.280,3.914,baseline
1167.000,291.000,66.920,18.970,990.200,212.000,47.700,11.130,52.930,16.390,4.748,1.540,122.400,36.050,11.510,3.903,baseline
1172.000,292.800,66.150,19.010,984.300,212.500,48.220,11.150,54.930,16.770,4.743,1.555,123.700,35.810,11.570,3.932,baseline
1177.000,295.400,67.020,19.170,997.900,212.400,48.370,11.150,57.030,16.960,4.737,1.571,123.700,35.760,11.470,3.902,baseline
1183.000,297.100,66.230,19.270,994.700,213.100,48.430,11.180,54.400,16.510,4.777,1.581,125.300,36.420,11.430,3.974,baseline
1190.000,296.900,67.390,19.420,997.800,213.400,48.380,11.230,57.320,16.690,4.632,1.566,124.500,36.460,11.410,3.952,baseline
1191.000,297.100,67.440,19.040,994.400,211.000,47.350,11.050,54.420,16.410,4.697,1.516,123.800,36.090,11.450,3.908,baseline
1159.000,288.100,65.170,18.620,989.900,210.900,47.280,10.950,52.440,16.050,4.671,1.550,122.900,35.590,11.450,3.870,baseline
1153.000,286.900,65.030,18.520,982.700,209.800,46.870,10.990,52.290,16.780,4.723,1.548,121.000,35.440,11.370,3.882,baseline
1146.000,286.200,64.860,18.430,984.400,208.900,47.310,11.000,55.750,15.940,4.677,1.522,123.000,35.790,11.290,3.821,baseline
1147.000,285.700,64.210,18.510,983.000,208.700,47.250,10.990,57.030,16.350,4.703,1.551,122.200,35.330,11.380,3.853,baseline
1146.000,284.400,64.970,18.480,984.900,209.300,47.180,11.030,55.440,16.240,4.753,1.536,122.500,35.620,11.180,3.832,baseline
1148.000,285.400,64.220,18.570,986.500,210.600,47.150,11.000,51.060,16.740,4.732,1.551,122.400,35.380,11.290,3.881,baseline
1154.000,287.700,64.620,18.720,987.100,209.500,47.450,11.060,53.120,16.560,4.617,1.525,122.700,35.550,11.370,3.919,baseline
1157.000,288.700,64.810,18.650,989.700,211.000,47.760,11.110,53.650,16.650,4.776,1.549,123.800,35.690,11.330,3.884,baseline
1163.000,289.000,64.510,18.800,987.300,211.400,47.970,11.120,58.070,16.730,4.715,1.553,123.600,35.440,11.380,3.952,baseline
1166.000,290.600,66.510,18.950,992.300,211.700,48.180,11.140,57.170,16.460,4.731,1.542,123.600,35.900,11.530,3.919,baseline
1173.000,292.300,67.170,19.070,993.000,212.600,47.850,11.190,57.590,16.860,4.680,1.552,124.500,36.070,11.490,3.886,baseline
1179.000,293.400,67.750,19.200,1002.000,213.100,48.710,11.220,51.960,16.740,4.716,1.547,124.000,36.070,11.560,3.935,baseline
1183.000,295.600,65.910,18.970,993.000,211.200,47.960,11.090,57.430,16.720,4.854,1.544,123.800,36.070,11.390,3.901,baseline
1151.000,286.100,65.470,18.600,982.900,209.300,47.290,11.000,53.600,16.740,4.735,1.527,122.900,35.440,11.310,3.830,baseline
1144.000,284.300,64.450,18.300,984.400,209.400,47.040,10.970,53.090,16.270,4.658,1.526,121.800,35.290,11.120,3.805,baseline
1135.000,282.900,63.990,18.160,978.600,209.600,46.510,11.010,53.450,16.620,4.744,1.564,122.100,35.330,11.250,3.852,baseline
1134.000,281.600,63.900,18.190,978.500,208.000,46.990,10.990,53.020,16.230,4.777,1.533,121.900,35.670,11.300,3.845,baseline
1133.000,280.800,62.880,18.150,974.400,209.500,47.220,10.970,53.570,16.000,4.718,1.534,122.500,34.940,11.170,3.855,baseline
1136.000,283.300,64.110,18.200,978.200,209.600,47.090,11.060,57.650,16.610,4.752,1.560,122.200,35.520,11.200,3.822,baseline
1139.000,285.000,63.340,18.310,982.500,209.700,47.780,11.050,55.120,16.480,4.685,1.580,122.700,35.620,11.290,3.867,baseline
1143.000,285.800,64.240,18.410,983.500,210.000,47.480,11.100,56.470,16.430,4.776,1.560,123.000,35.740,11.210,3.884,baseline
1147.000,287.400,64.510,18.450,988.900,210.700,47.710,11.120,56.450,16.660,4.720,1.540,122.700,35.370,11.330,3.857,baseline
1152.000,288.600,66.710,18.610,992.100,211.500,47.580,11.140,56.250,16.670,4.856,1.561,123.200,35.350,11.310,3.803,baseline
1158.000,289.900,65.600,18.770,992.500,212.400,47.540,11.240,54.500,16.640,4.686,1.545,123.700,36.000,11.360,3.923,baseline
1164.000,290.800,65.990,18.860,996.400,213.400,48.380,11.230,57.260,16.500,4.684,1.536,123.700,35.830,11.440,3.918,baseline
1170.000,293.500,67.440,18.960,997.800,212.800,48.010,11.270,57.350,16.680,4.740,1.559,124.600,36.400,11.450,3.988,baseline
1178.000,294.400,68.560,19.070,1000.000,213.300,48.530,11.270,58.680,16.670,4.822,1.577,124.400,36.380,11.690,3.973,baseline
1183.000,294.900,66.780,18.990,996.000,213.300,47.970,11.150,56.070,16.600,4.767,1.558,124.600,36.010,11.450,3.947,baseline
1151.000,284.900,65.630,18.380,985.100,210.500,47.840,11.040,55.850,16.680,4.803,1.543,122.600,35.760,11.210,3.906,baseline
1141.000,283.400,63.090,18.290,979.700,209.300,47.490,11.010,54.910,16.500,4.719,1.553,121.900,35.320,11.400,3.886,baseline
1132.000,281.700,62.980,18.080,982.300,208.700,47.400,10.990,55.890,16.250,4.766,1.531,122.800,35.500,11.160,3.859,baseline
1131.000,281.700,62.200,18.100,981.900,209.800,47.890,10.980,55.650,16.730,4.684,1.517,122.500,35.700,11.260,3.800,baseline
1131.000,279.800,62.850,18.130,977.000,209.500,47.190,10.990,55.460,16.570,4.765,1.550,121.600,35.360,11.380,3.829,baseline
1131.000,284.300,63.200,18.180,978.300,210.000,47.090,11.070,56.960,16.480,4.771,1.545,122.500,35.560,11.320,3.850,baseline
1134.000,282.900,64.480,18.320,979.700,209.800,46.980,11.070,55.640,16.460,4.828,1.539,122.400,35.850,11.150,3.831,baseline
1139.000,284.600,64.720,18.400,979.000,210.700,47.620,11.080,57.150,16.490,4.745,1.556,123.900,35.470,11.440,3.858,baseline
1142.000,285.600,64.980,18.440,983.600,210.500,47.940,11.160,53.780,16.300,4.742,1.554,124.400,35.710,11.280,3.872,baseline
1148.000,285.600,64.790,18.490,988.200,210.600,47.420,11.130,53.620,16.990,4.794,1.549,124.300,36.270,11.340,3.853,baseline
1154.000,288.200,63.840,18.620,990.700,211.200,47.810,11.230,56.690,16.770,4.760,1.579,124.800,35.790,11.480,3.937,baseline
1160.000,289.600,67.390,18.840,993.100,212.500,47.930,11.270,56.160,16.760,4.753,1.580,124.400,36.080,11.530,3.848,baseline
1167.000,291.400,66.200,18.940,992.800,213.000,48.210,11.240,57.650,16.590,4.874,1.550,124.600,36.460,11.460,3.959,baseline
1172.000,292.800,66.520,19.110,996.800,214.100,48.510,11.270,54.350,16.660,4.804,1.568,123.300,36.480,11.570,3.988,baseline
1178.000,295.100,66.120,18.920,992.500,211.200,48.170,11.090,55.510,16.890,4.714,1.546,123.700,36.350,11.240,3.870,baseline
1147.000,284.900,64.500,18.450,981.600,210.200,47.970,11.060,54.140,16.780,4.727,1.558,123.100,35.550,11.380,3.951,baseline
1138.000,282.700,63.610,18.330,984.600,209.300,46.980,11.000,53.190,16.330,4.763,1.544,122.000,35.670,11.360,3.849,baseline
1131.000,280.700,63.160,18.090,983.600,209.400,47.510,10.980,51.850,16.510,4.716,1.532,122.400,35.320,11.300,3.851,baseline
1131.000,281.100,63.090,18.090,980.900,208.700,47.250,11.000,56.750,16.380,4.792,1.545,122.200,35.370,11.310,3.829,baseline
1129.000,280.900,64.040,18.170,978.600,208.900,47.350,10.990,56.780,16.480,4.710,1.549,122.300,35.600,11.120,3.862,baseline
1131.000,282.100,64.220,18.320,976.900,209.500,46.780,11.050,59.340,16.720,4.751,1.573,122.200,35.460,11.340,3.914,baseline
1135.000,281.700,64.080,18.270,978.900,209.600,47.270,11.040,56.380,16.730,4.737,1.554,123.100,35.490,11.410,3.877,baseline
1138.000,284.900,65.400,18.410,984.000,209.600,47.140,11.050,55.400,16.300,4.760,1.548,123.600,35.590,11.390,3.866,baseline
1142.000,285.100,65.920,18.470,981.500,209.400,47.260,11.090,55.490,16.300,4.677,1.554,122.900,35.600,11.290,3.884,baseline
1147.000,286.500,64.900,18.630,983.400,211.100,47.890,11.090,56.360,16.540,4.733,1.535,123.200,35.660,11.490,3.883,baseline
1155.000,288.200,65.790,18.790,988.000,211.400,48.340,11.130,57.220,16.770,4.803,1.561,123.500,35.630,11.190,3.862,baseline
1160.000,290.400,66.160,18.960,995.300,211.600,47.820,11.140,55.510,16.470,4.727,1.577,123.700,36.310,11.380,3.909,baseline
1166.000,291.800,66.110,19.000,993.000,212.100,48.120,11.210,52.500,16.480,4.719,1.569,123.900,36.060,11.320,3.935,baseline
1173.000,293.300,67.200,19.160,1000.000,212.900,47.980,11.230,56.110,16.880,4.800,1.560,125.400,36.480,11.440,3.983,baseline
1179.000,295.500,67.100,19.070,992.700,211.500,47.690,11.070,55.590,16.480,4.727,1.563,125.000,35.610,11.540,3.885,baseline
1147.000,285.600,65.060,18.420,981.400,209.700,47.160,10.970,55.250,16.540,4.746,1.540,122.800,35.730,11.190,3.837,baseline
1137.000,283.700,64.650,18.300,979.500,209.400,46.990,10.930,57.610,16.480,4.690,1.561,123.600,35.700,11.380,3.797,baseline
1129.000,282.500,63.320,18.230,977.600,208.500,46.820,10.900,55.180,16.600,4.734,1.549,122.800,35.450,11.200,3.779,baseline
1129.000,280.400,63.860,18.190,976.900,208.300,47.340,10.930,60.100,16.470,4.768,1.571,121.400,35.240,11.170,3.860,baseline
1128.000,280.500,63.890,18.210,976.600,207.700,46.320,10.920,57.430,16.270,4.748,1.556,122.700,35.510,11.180,3.813,baseline
1131.000,282.400,63.980,18.350,978.700,208.700,46.500,10.930,58.180,16.110,4.734,1.552,121.600,35.360,11.120,3.776,baseline
1135.000,283.500,64.140,18.370,981.700,208.900,47.770,10.980,59.890,16.620,4.724,1.544,123.000,35.270,11.170,3.814,baseline
1139.000,283.300,64.070,18.500,983.100,209.200,47.750,10.980,54.540,16.780,4.693,1.546,121.900,35.680,11.210,3.846,baseline
1142.000,284.800,65.100,18.530,985.300,209.800,47.920,11.050,54.030,16.580,4.731,1.585,123.200,35.780,11.420,3.801,baseline
1147.000,287.100,65.580,18.580,985.700,210.500,47.950,11.030,56.530,16.510,4.769,1.546,123.600,35.480,11.460,3.842,baseline
1153.000,289.600,65.190,18.860,991.600,211.300,47.810,11.060,54.750,16.260,4.689,1.533,123.100,35.890,11.310,3.862,baseline
1158.000,289.900,65.830,18.920,991.400,212.300,47.750,11.110,54.520,16.700,4.828,1.537,123.500,35.900,11.330,3.920,baseline
1166.000,291.900,66.000,18.970,996.600,211.900,47.410,11.120,61.370,16.590,4.835,1.564,124.100,35.590,11.340,3.949,baseline
1171.000,292.900,65.670,19.170,998.800,212.000,47.470,11.160,56.650,16.920,4.831,1.534,124.600,36.160,11.540,3.920,baseline
1179.000,295.300,67.700,19.240,997.700,212.000,47.460,11.050,56.370,16.520,4.766,1.577,125.600,36.020,11.390,3.881,baseline
1154.000,288.000,65.790,18.700,991.000,209.400,47.970,10.990,54.900,16.650,4.835,1.570,124.000,35.560,11.360,3.862,baseline
1142.000,283.000,63.920,18.520,980.000,209.600,47.320,10.870,58.660,16.590,4.679,1.533,122.800,35.500,11.280,3.846,baseline
1135.000,284.100,65.100,18.340,983.300,208.900,47.040,10.920,55.210,16.560,4.717,1.548,121.500,35.510,11.180,3.810,baseline
1134.000,283.200,63.590,18.330,982.000,208.900,47.210,10.900,57.410,16.400,4.625,1.570,121.900,35.250,11.250,3.802,baseline
1132.000,281.800,64.150,18.290,977.300,208.800,46.740,10.910,57.170,16.340,4.778,1.536,122.400,35.180,11.190,3.788,baseline
1136.000,282.800,62.680,18.470,982.400,208.700,46.550,10.920,56.570,16.730,4.680,1.570,123.100,35.470,11.150,3.857,baseline
1139.000,285.000,64.140,18.520,986.900,210.500,47.410,11.000,55.820,16.650,4.741,1.559,123.200,35.410,11.210,3.825,baseline
1144.000,285.100,64.280,18.530,990.600,210.100,47.370,10.970,55.930,16.500,4.757,1.536,122.200,35.380,11.300,3.887,baseline
1148.000,286.100,66.360,18.640,993.500,211.000,47.670,11.040,56.400,16.460,4.789,1.554,123.400,35.800,11.270,3.859,baseline
1154.000,289.800,65.300,18.760,996.300,211.900,47.470,11.070,57.100,16.740,4.730,1.582,121.500,35.660,11.380,3.852,baseline
1160.000,290.600,66.570,18.900,995.700,212.400,47.730,11.090,56.290,16.690,4.771,1.574,123.300,36.080,11.370,3.939,baseline
1169.000,291.700,67.020,18.960,994.300,213.600,47.820,11.150,55.960,16.510,4.793,1.593,123.500,35.890,11.430,3.934,baseline
1176.000,295.400,68.230,19.200,1002.000,214.500,47.800,11.130,56.520,16.680,4.784,1.591,124.500,36.350,11.380,3.905,baseline
1181.000,296.200,67.340,19.360,1002.000,215.100,48.330,11.230,59.760,16.550,4.777,1.567,125.600,36.100,11.700,3.944,baseline
1190.000,298.900,65.890,19.420,1010.000,216.000,49.020,11.180,54.840,16.600,4.822,1.567,124.800,36.760,11.480,3.905,baseline
1178.000,292.900,65.990,18.850,994.600,211.800,47.880,11.040,57.050,17.010,4.832,1.572,122.400,35.710,11.330,3.841,baseline
1154.000,288.400,64.410,18.630,993.600,211.600,47.710,11.000,54.910,16.730,4.700,1.563,123.500,35.550,11.320,3.850,baseline
1147.000,285.200,64.390,18.470,989.500,210.800,48.030,11.000,56.510,16.670,4.783,1.562,122.800,35.030,11.130,3.817,baseline
1142.000,286.300,63.020,18.400,990.300,210.700,47.130,10.980,55.920,16.740,4.710,1.549,121.600,35.520,11.020,3.786,baseline
1143.000,283.600,62.630,18.270,993.900,211.300,48.020,10.990,56.810,16.510,4.776,1.563,120.300,35.110,11.150,3.780,baseline
1143.000,283.400,65.540,18.390,993.000,211.400,47.120,11.040,54.860,16.730,4.750,1.579,122.000,35.500,11.190,3.775,baseline
1147.000,286.000,64.800,18.460,988.300,212.200,47.700,11.060,57.720,16.680,4.791,1.551,123.200,35.790,11.220,3.823,baseline
1151.000,286.400,65.470,18.550,994.300,212.300,47.490,11.120,55.910,16.530,4.726,1.548,122.800,35.310,11.430,3.850,baseline
1155.000,287.400,65.980,18.720,992.500,213.000,48.410,11.140,54.320,16.650,4.802,1.558,123.700,35.140,11.220,3.861,baseline
1158.000,288.400,65.540,18.740,998.800,213.900,48.200,11.150,56.170,16.540,4.808,1.556,122.400,35.840,11.220,3.828,baseline
1165.000,289.300,65.760,18.810,995.400,213.800,48.010,11.180,57.370,16.620,4.703,1.605,123.900,35.810,11.320,3.844,baseline
1172.000,293.100,67.170,19.050,1003.000,214.600,48.410,11.220,56.590,16.920,4.779,1.581,123.900,36.270,11.490,3.926,baseline
1178.000,296.500,64.820,19.060,1006.000,215.100,48.960,11.240,58.510,16.570,4.828,1.581,123.300,36.190,11.420,3.959,baseline
1183.000,296.700,67.130,19.200,1009.000,214.600,49.060,11.280,56.920,16.970,4.840,1.573,124.100,35.820,11.520,3.960,baseline
1190.000,297.600,67.280,19.310,1005.000,216.700,48.920,11.290,55.460,16.340,4.835,1.603,125.700,36.180,11.760,3.909,baseline
1192.000,296.800,66.930,19.070,1001.000,213.300,48.040,11.120,56.520,16.750,4.872,1.566,123.900,35.820,11.260,3.912,baseline
1160.000,288.900,65.500,18.710,997.200,213.000,48.150,11.140,58.200,16.470,4.778,1.579,122.400,35.790,11.180,3.895,baseline
1155.000,289.300,65.760,18.550,994.700,212.200,46.730,11.130,55.940,16.500,4.785,1.573,123.000,35.620,11.080,3.811,baseline
1149.000,286.700,64.970,18.540,990.700,212.300,47.680,11.140,52.250,16.660,4.695,1.578,122.400,35.580,11.250,3.845,baseline
1150.000,286.700,64.760,18.470,994.500,212.600,47.780,11.160,54.830,17.060,4.803,1.576,122.700,35.510,11.050,3.831,baseline
1150.000,287.400,64.610,18.490,994.700,212.600,47.030,11.140,55.590,17.120,4.758,1.599,122.800,35.560,11.260,3.800,baseline
1153.000,287.200,66.000,18.580,994.800,213.000,49.040,11.210,53.150,16.620,4.882,1.585,122.900,35.600,11.210,3.804,baseline
1156.000,288.300,64.960,18.620,996.500,213.000,48.850,11.220,55.530,16.730,4.790,1.589,122.400,35.600,11.390,3.898,baseline
1161.000,291.300,65.020,18.760,993.300,213.600,48.180,11.210,56.230,16.890,4.838,1.568,123.100,35.500,11.430,3.859,baseline
1163.000,289.300,64.570,18.730,1003.000,213.500,48.190,11.270,58.330,16.720,4.757,1.598,123.100,35.490,11.260,3.847,baseline
1167.000,290.700,66.370,18.840,1003.000,214.600,48.320,11.280,54.440,16.820,4.809,1.580,122.900,36.280,11.270,3.935,baseline
1174.000,292.800,66.500,18.980,1002.000,214.400,49.070,11.310,56.560,16.790,4.817,1.622,124.600,35.540,11.330,3.853,baseline
1178.000,293.400,66.350,19.080,1002.000,215.100,48.370,11.340,58.620,16.740,4.833,1.572,124.700,36.340,11.380,3.885,baseline
1183.000,296.400,67.470,19.200,1008.000,216.300,48.160,11.310,54.780,16.290,4.861,1.597,124.300,36.000,11.480,3.920,baseline
1184.000,293.900,66.730,18.930,996.800,214.000,48.190,11.210,57.250,16.520,4.814,1.589,123.800,35.640,11.240,3.904,baseline
1157.000,289.200,66.600,18.590,992.700,212.500,47.820,11.170,57.140,16.830,4.849,1.593,122.800,35.340,11.170,3.801,baseline
1152.000,288.400,64.970,18.550,998.200,211.600,47.370,11.130,55.730,16.600,4.875,1.584,123.100,35.630,11.470,3.852,baseline
1147.000,286.900,64.340,18.420,992.800,212.100,47.870,11.110,56.470,16.720,4.711,1.572,121.500,35.530,11.090,3.853,baseline
1149.000,286.700,64.340,18.330,990.800,211.900,48.540,11.150,56.830,16.560,4.840,1.569,122.400,35.470,11.210,3.856,baseline
1148.000,285.100,64.960,18.430,987.300,211.600,48.930,11.150,56.850,16.690,4.804,1.598,122.700,35.490,11.260,3.795,baseline
1151.000,287.900,65.140,18.530,994.700,211.900,48.200,11.200,54.570,16.400,4.811,1.589,122.400,35.420,11.260,3.859,baseline
1154.000,288.600,64.870,18.510,994.300,212.200,47.660,11.210,58.270,16.910,4.775,1.573,122.300,35.650,11.190,3.829,baseline
1159.000,288.800,64.720,18.660,997.800,213.100,48.050,11.260,55.000,16.660,4.800,1.573,122.400,35.760,11.330,3.883,baseline
1163.000,292.100,65.100,18.720,996.800,213.000,48.510,11.270,57.360,17.020,4.778,1.581,123.400,35.610,11.220,3.870,baseline
1167.000,291.800,65.970,18.820,998.600,214.200,48.040,11.290,59.440,16.770,4.890,1.596,122.700,36.240,11.270,3.855,baseline
1175.000,294.900,66.850,18.960,1003.000,215.000,48.770,11.360,58.180,16.830,4.817,1.598,123.500,35.880,11.610,3.934,baseline
1180.000,294.600,68.730,19.060,1008.000,215.900,48.410,11.360,52.170,16.840,4.838,1.588,124.400,36.030,11.560,3.953,baseline
1185.000,294.900,67.240,19.270,1001.000,215.700,48.590,11.400,55.420,16.840,4.846,1.595,123.800,36.420,11.480,3.945,baseline
1190.000,299.200,67.490,19.110,1001.000,214.300,48.080,11.200,57.590,17.460,4.792,1.611,125.000,36.110,11.390,3.901,baseline
1161.000,287.500,65.400,18.460,990.800,212.800,47.640,11.200,55.960,17.030,4.742,1.607,122.500,35.530,11.320,3.833,baseline
1150.000,286.600,64.220,18.280,987.700,211.800,48.100,11.080,57.270,16.760,4.779,1.553,123.200,35.260,11.200,3.881,baseline
1142.000,283.400,64.000,18.180,988.000,211.100,47.600,11.090,56.750,16.380,4.840,1.572,121.600,35.110,11.270,3.781,baseline
1139.000,283.100,63.810,18.150,986.800,211.200,47.330,11.150,53.150,16.540,4.739,1.579,121.300,35.440,11.110,3.789,baseline
1139.000,283.700,63.700,18.120,981.700,211.300,48.410,11.180,54.440,16.560,4.757,1.549,123.300,35.210,11.040,3.821,baseline
1140.000,285.400,64.620,18.180,984.200,211.000,47.750,11.090,52.540,16.770,4.698,1.591,120.900,35.320,11.210,3.866,baseline
1145.000,284.800,64.610,18.230,992.600,211.700,48.220,11.210,55.220,16.610,4.870,1.588,122.900,35.400,11.050,3.862,baseline
1147.000,285.800,64.980,18.260,987.600,211.700,47.550,11.230,56.750,16.620,4.775,1.597,121.500,35.330,11.050,3.827,baseline
1151.000,285.500,64.330,18.390,986.900,213.100,47.470,11.270,56.750,16.340,4.837,1.612,122.000,35.330,11.300,3.816,baseline
1156.000,288.800,65.080,18.480,992.100,213.100,48.580,11.310,58.460,17.110,4.816,1.607,123.800,35.770,11.230,3.858,baseline
1161.000,290.000,66.810,18.600,995.400,213.200,48.430,11.360,55.710,17.000,4.915,1.605,123.800,35.730,11.060,3.852,baseline
1167.000,291.300,66.770,18.690,1000.000,214.400,48.730,11.330,56.100,16.860,4.851,1.623,123.500,35.930,11.210,3.835,baseline
1173.000,293.800,66.900,18.880,997.300,214.700,48.790,11.360,56.700,16.960,4.835,1.574,123.700,35.920,11.330,3.888,baseline
1178.000,294.500,67.370,18.930,1003.000,215.300,48.620,11.370,56.820,16.910,4.906,1.585,123.900,35.870,11.490,3.931,baseline
1185.000,296.700,67.500,19.030,1005.000,216.100,49.280,11.350,56.460,16.890,4.859,1.588,124.600,36.160,11.480,3.897,baseline
1176.000,292.500,64.630,18.540,991.900,211.700,47.780,11.190,55.460,16.610,4.894,1.579,124.100,35.730,11.280,3.880,baseline
1151.000,286.500,64.110,18.310,993.400,211.100,47.580,11.190,58.430,16.770,4.852,1.605,122.600,35.200,11.170,3.829,baseline
1142.000,283.100,64.090,18.140,982.800,210.800,47.910,11.100,54.890,16.840,4.791,1.579,120.700,35.150,11.140,3.844,baseline
1136.000,282.700,64.260,17.980,987.000,210.300,47.420,11.110,58.350,16.680,4.733,1.564,122.100,34.930,11.040,3.813,baseline
1137.000,282.100,63.710,17.970,981.000,209.600,47.200,11.100,53.070,16.610,4.848,1.578,120.800,34.840,11.090,3.773,baseline
1136.000,283.200,64.810,17.940,986.300,210.500,47.900,11.150,55.870,16.780,4.835,1.578,121.600,35.300,11.280,3.758,baseline
1139.000,283.700,63.980,18.100,988.200,210.800,47.430,11.200,57.420,16.450,4.817,1.577,121.200,35.320,11.210,3.797,baseline
1141.000,284.800,64.280,18.220,984.600,211.100,47.800,11.180,60.080,16.610,4.805,1.597,121.400,35.150,11.110,3.824,baseline
1145.000,284.600,64.740,18.270,988.600,212.400,47.770,11.230,56.300,16.560,4.818,1.613,121.800,34.810,11.290,3.788,baseline
1149.000,285.600,64.450,18.300,991.100,211.400,48.520,11.240,54.900,16.740,4.789,1.594,121.800,35.060,11.210,3.863,baseline
1153.000,288.000,65.410,18.440,988.700,212.800,48.020,11.300,56.250,16.780,4.873,1.567,123.900,35.820,11.020,3.847,baseline
1158.000,287.400,65.130,18.560,990.900,212.300,48.160,11.280,56.150,16.790,4.759,1.599,122.000,35.480,11.160,3.806,baseline
1164.000,291.300,65.400,18.600,994.100,212.700,48.930,11.340,56.220,16.940,4.905,1.611,122.600,35.570,11.290,3.904,baseline
1170.000,291.900,65.590,18.770,998.900,213.400,48.380,11.390,56.950,16.790,4.890,1.585,123.300,36.120,11.460,3.889,baseline
1173.000,293.100,66.080,18.860,996.700,214.800,49.190,11.420,56.230,17.230,4.778,1.607,123.400,35.860,11.340,3.899,baseline
1182.000,295.800,66.620,19.010,999.000,214.400,48.990,11.350,56.040,17.110,4.869,1.614,123.500,36.230,11.300,3.863,baseline
1162.000,290.400,66.410,18.350,990.500,211.600,47.490,11.170,56.070,16.910,4.788,1.595,121.800,35.890,11.390,3.853,baseline
1145.000,285.100,64.970,18.190,984.100,211.200,47.930,11.160,56.210,16.870,4.887,1.618,121.800,35.600,11.220,3.771,baseline
1139.000,282.000,63.390,18.130,986.800,209.800,47.400,11.140,56.880,16.800,4.843,1.575,122.200,35.260,11.010,3.793,baseline
1136.000,283.000,63.740,18.010,981.900,210.200,47.880,11.160,54.350,16.540,4.748,1.585,121.400,35.070,10.960,3.771,baseline
1135.000,284.300,63.640,18.090,979.300,210.200,47.890,11.130,55.800,16.690,4.816,1.590,121.600,35.270,11.030,3.773,baseline
1137.000,283.700,63.950,18.050,986.700,210.000,48.090,11.160,57.130,16.780,4.734,1.591,120.500,35.240,11.200,3.774,baseline
1140.000,285.400,64.420,18.140,985.300,211.200,48.060,11.160,55.230,16.780,4.801,1.578,121.700,35.040,11.160,3.800,baseline
1145.000,286.400,64.150,18.170,984.800,211.300,48.220,11.230,59.170,16.580,4.853,1.571,121.100,35.330,11.220,3.763,baseline
1148.000,286.300,63.120,18.290,991.400,212.000,47.830,11.200,55.010,16.540,4.833,1.593,121.900,35.170,11.050,3.780,baseline
1153.000,287.800,65.160,18.400,990.100,212.800,48.050,11.280,56.860,16.720,4.855,1.613,122.800,35.700,11.170,3.792,baseline
1157.000,287.600,64.080,18.490,993.100,212.900,48.210,11.310,54.230,16.840,4.883,1.611,123.000,35.280,11.210,3.874,baseline
1165.000,291.100,66.360,18.630,997.000,213.100,48.050,11.330,54.970,16.810,4.914,1.577,122.900,35.850,11.230,3.822,baseline
1171.000,292.600,66.970,18.780,995.600,214.000,47.530,11.370,55.250,16.870,4.895,1.596,124.100,36.070,11.290,3.882,baseline
1177.000,295.000,67.550,18.920,1003.000,215.300,48.550,11.390,56.680,16.760,4.862,1.602,123.900,35.820,11.420,3.867,baseline
1183.000,295.700,68.190,19.050,1001.000,215.100,48.580,11.420,58.030,16.900,4.904,1.636,124.900,36.220,11.520,3.921,baseline
1190.000,296.500,67.550,19.070,1004.000,214.400,48.620,11.320,62.870,17.060,4.875,1.617,125.400,36.090,11.490,3.859,baseline
1163.000,289.000,64.290,18.440,988.800,211.900,48.080,11.180,55.230,16.850,4.851,1.582,122.500,34.920,11.110,3.845,baseline
1149.000,285.000,63.390,18.240,980.900,210.200,47.320,11.140,56.170,16.780,4.729,1.609,122.000,35.870,11.240,3.822,baseline
1140.000,282.900,64.280,18.080,982.200,210.400,48.010,11.110,53.910,17.090,4.830,1.607,121.700,34.870,11.090,3.765,baseline
1137.000,282.700,63.040,18.080,978.000,210.600,48.060,11.160,56.370,16.730,4.808,1.608,121.800,35.140,10.930,3.757,baseline
1137.000,283.400,63.020,18.020,984.500,210.400,47.700,11.160,56.090,17.030,4.747,1.601,121.800,34.970,10.970,3.765,baseline
1136.000,284.800,64.400,18.080,985.000,211.400,47.350,11.140,55.630,16.620,4.854,1.597,122.100,35.070,10.960,3.789,baseline
1142.000,284.800,64.010,18.250,986.100,211.800,48.330,11.200,53.010,16.820,4.799,1.599,122.500,35.440,11.070,3.759,baseline
1145.000,285.500,65.860,18.210,985.500,211.500,47.620,11.230,54.600,16.830,4.843,1.579,120.200,35.430,11.100,3.765,baseline
1149.000,287.400,65.580,18.320,987.800,211.700,48.280,11.270,55.330,16.810,4.817,1.608,122.000,35.030,11.020,3.863,baseline
1153.000,288.100,65.690,18.420,990.900,212.200,48.190,11.290,56.190,16.980,4.873,1.616,122.200,35.860,11.270,3.862,baseline
1159.000,290.700,65.740,18.520,994.800,213.700,48.660,11.300,55.200,16.960,4.824,1.601,121.800,35.580,11.320,3.807,baseline
1166.000,290.900,65.100,18.700,988.800,213.000,48.990,11.370,56.500,16.950,4.922,1.625,123.000,36.140,11.280,3.837,baseline
1171.000,292.300,66.990,18.850,997.500,213.400,48.230,11.350,57.210,17.080,4.818,1.610,122.800,36.090,11.350,3.927,baseline
1178.000,295.300,65.650,18.930,999.200,214.500,49.530,11.380,59.390,17.080,4.863,1.609,124.900,36.050,11.460,3.882,baseline
1184.000,296.700,66.460,19.060,1005.000,214.900,49.150,11.400,53.320,16.890,4.930,1.602,123.800,35.740,11.520,3.921,baseline
1193.000,298.600,67.090,19.070,999.600,214.200,48.550,11.290,55.170,17.240,4.826,1.617,124.400,36.200,11.380,3.933,baseline
1164.000,289.700,64.170,18.480,988.500,212.100,48.240,11.170,57.600,16.810,4.913,1.580,122.400,35.700,11.290,3.864,baseline
1151.000,287.400,64.450,18.380,986.200,211.300,47.790,11.160,55.300,16.900,4.793,1.610,123.700,35.420,11.030,3.827,baseline
1144.000,284.400,63.620,18.160,986.400,209.400,47.790,11.100,52.750,16.940,4.884,1.589,121.900,35.130,11.120,3.810,baseline
1142.000,285.600,64.150,18.180,988.700,210.000,47.710,11.130,55.310,16.980,4.703,1.603,121.700,35.270,11.100,3.789,baseline
1139.000,284.100,63.740,18.130,982.900,210.300,47.360,11.110,54.700,16.710,4.731,1.599,122.100,35.260,11.010,3.809,baseline
1141.000,284.900,65.490,18.190,985.400,210.300,47.830,11.110,55.170,16.690,4.853,1.588,119.900,35.520,11.030,3.746,baseline
1145.000,285.500,64.830,18.360,986.800,210.600,48.230,11.120,57.320,16.910,4.757,1.608,122.600,34.980,11.160,3.799,baseline
1148.000,286.200,64.970,18.310,993.000,210.900,48.290,11.160,54.220,16.740,4.722,1.564,121.400,35.590,11.250,3.804,baseline
1152.000,288.600,64.650,18.510,989.400,211.700,48.070,11.220,57.160,16.360,4.828,1.597,122.400,35.450,11.160,3.846,baseline
1157.000,289.400,64.850,18.480,985.600,211.600,48.190,11.260,57.600,16.600,4.911,1.567,121.700,35.720,11.180,3.835,baseline
1163.000,289.700,66.830,18.690,992.600,212.200,48.240,11.270,58.000,16.960,4.851,1.630,123.600,35.740,11.290,3.836,baseline
1167.000,290.600,65.830,18.790,999.600,213.000,48.270,11.260,55.330,16.710,4.821,1.591,122.900,35.660,11.420,3.819,baseline
1173.000,294.000,64.780,18.900,995.000,213.300,48.310,11.320,56.110,17.040,4.824,1.597,122.800,35.650,11.440,3.798,baseline
1168.000,289.300,66.410,18.400,990.700,210.900,48.150,11.140,57.260,16.270,4.901,1.582,122.800,35.210,11.280,3.763,baseline
1144.000,284.900,65.080,18.180,986.800,210.400,47.200,11.110,57.560,16.390,4.803,1.572,122.900,34.990,11.140,3.781,baseline
1137.000,283.700,64.710,17.980,981.600,209.900,46.910,11.040,58.090,16.430,4.841,1.578,121.500,34.920,11.060,3.729,baseline
1132.000,280.400,63.690,17.940,981.300,209.000,46.600,11.050,59.050,16.720,4.745,1.611,121.400,34.800,10.990,3.779,baseline
1131.000,282.000,64.180,17.980,980.200,209.100,47.010,11.110,52.710,16.510,4.825,1.579,120.300,34.980,11.160,3.748,baseline
1132.000,280.200,62.220,18.010,978.500,210.500,47.140,11.090,57.680,16.800,4.770,1.596,121.200,35.170,11.050,3.777,baseline
1134.000,282.700,64.130,18.070,980.200,209.900,47.390,11.110,55.430,16.850,4.964,1.612,121.700,35.250,11.000,3.742,baseline
1139.000,282.800,63.610,18.180,982.100,210.500,47.420,11.100,51.820,16.710,4.858,1.590,120.400,35.370,11.010,3.828,baseline
1143.000,285.000,63.510,18.230,987.700,211.100,47.920,11.200,55.100,16.820,4.880,1.583,122.400,34.960,11.160,3.798,baseline
1147.000,284.800,65.380,18.330,986.100,210.800,48.640,11.220,54.030,16.450,4.868,1.594,122.700,35.470,11.210,3.800,baseline
1151.000,285.800,65.150,18.410,993.000,212.100,47.990,11.260,57.570,16.890,4.770,1.604,122.100,34.990,11.170,3.854,baseline
1157.000,288.700,65.910,18.550,987.700,212.600,47.960,11.280,57.370,16.860,4.887,1.590,122.800,35.560,11.280,3.864,baseline
1163.000,290.400,66.000,18.690,997.600,213.000,47.520,11.330,54.160,16.830,4.991,1.610,123.700,35.870,11.320,3.903,baseline
1169.000,293.600,68.060,18.820,1001.000,213.600,48.310,11.370,58.650,16.630,4.908,1.606,123.200,35.990,11.360,3.914,baseline
1177.000,293.700,66.230,18.910,998.500,214.300,48.600,11.380,56.280,17.120,4.886,1.629,124.400,35.850,11.310,3.904,baseline
1167.000,289.800,65.840,18.390,990.800,211.100,48.060,11.180,55.730,16.680,4.912,1.603,122.400,35.610,11.420,3.813,baseline
1145.000,285.100,63.980,18.170,990.200,210.700,48.220,11.190,58.130,16.890,4.795,1.575,122.300,35.470,11.260,3.854,baseline
1138.000,284.000,63.780,18.040,985.400,210.400,47.380,11.140,55.830,16.650,4.868,1.606,121.000,35.170,11.280,3.766,baseline
1132.000,281.500,63.740,18.050,981.400,210.400,48.030,11.100,55.410,16.990,4.857,1.600,120.900,34.940,11.130,3.763,baseline
1132.000,281.800,61.650,18.020,982.100,210.100,47.670,11.180,57.560,16.680,4.855,1.593,121.600,34.820,11.290,3.844,baseline
1133.000,281.500,62.810,18.050,982.900,210.900,48.320,11.190,56.460,17.120,4.854,1.610,122.500,35.500,11.100,3.831,baseline
1137.000,283.300,63.980,18.120,982.600,210.900,47.810,11.220,55.310,16.860,4.960,1.631,121.600,35.530,11.260,3.856,baseline
1140.000,283.600,63.420,18.240,989.000,211.400,48.120,11.220,56.350,16.820,4.863,1.635,122.500,35.370,11.140,3.889,baseline
1144.000,285.900,63.840,18.280,986.500,210.800,48.110,11.240,59.300,17.190,4.916,1.625,122.600,35.340,11.360,3.834,baseline
1146.000,286.700,65.340,18.380,988.100,211.800,48.000,11.310,57.910,17.020,4.952,1.604,123.000,35.860,11.220,3.834,baseline
1152.000,287.900,64.110,18.390,987.400,213.100,47.890,11.280,56.000,16.700,4.875,1.600,123.700,35.730,11.350,3.916,baseline
1156.000,288.500,66.390,18.610,993.400,213.300,48.630,11.340,56.290,17.090,4.931,1.662,123.400,35.970,11.470,3.943,baseline
1163.000,290.800,64.980,18.690,993.300,213.800,47.820,11.330,54.770,16.800,4.895,1.644,124.000,35.800,11.410,3.881,baseline
1168.000,292.100,65.580,18.830,999.300,213.900,48.550,11.440,55.390,17.210,4.862,1.632,123.800,35.970,11.570,3.942,baseline
1172.000,292.000,66.760,18.980,1003.000,213.800,49.770,11.410,57.880,17.360,4.922,1.641,124.900,36.210,11.620,3.999,baseline
1179.000,294.400,66.180,18.900,999.300,214.200,48.760,11.280,55.490,16.900,4.943,1.643,124.000,36.420,11.630,3.928,baseline
1154.000,287.700,64.380,18.430,989.500,211.400,48.610,11.250,55.370,16.870,4.900,1.634,124.000,35.750,11.350,3.897,baseline
1146.000,285.700,64.440,18.270,984.600,210.300,47.840,11.160,59.310,17.040,4.937,1.594,122.700,35.990,11.350,3.929,baseline
1138.000,282.400,63.860,18.130,986.100,209.900,47.570,11.190,54.240,16.730,4.898,1.623,122.200,35.150,11.320,3.868,baseline
1137.000,282.000,63.810,18.220,981.100,210.500,47.600,11.230,56.310,17.120,4.829,1.615,123.100,35.640,11.340,3.889,baseline
1137.000,283.500,65.030,18.130,983.500,210.500,46.950,11.180,56.400,16.930,4.802,1.631,123.000,35.420,11.360,3.846,baseline
1138.000,283.100,63.860,18.150,986.200,210.900,48.410,11.240,56.490,16.740,4.872,1.613,121.700,35.840,11.170,3.895,baseline
1140.000,282.900,63.890,18.200,987.500,210.800,47.930,11.260,54.330,17.290,4.836,1.625,123.500,35.870,11.420,3.889,baseline
1143.000,286.300,63.850,18.270,986.700,211.300,48.420,11.320,59.590,16.610,4.929,1.651,123.100,35.760,11.300,3.858,baseline
1147.000,285.900,64.900,18.370,992.800,211.900,48.030,11.310,53.750,16.990,4.942,1.625,124.500,36.070,11.360,3.909,baseline
1154.000,288.000,64.900,18.430,995.000,212.900,48.680,11.410,56.150,16.990,4.890,1.642,123.900,36.060,11.440,3.926,baseline
1163.000,289.700,65.980,18.640,1005.000,215.500,48.920,11.470,56.890,17.040,4.936,1.628,124.500,35.970,11.530,3.940,baseline
1172.000,293.400,66.300,18.880,1008.000,216.600,49.580,11.540,57.200,16.630,4.921,1.642,124.800,36.320,11.520,3.994,baseline
1184.000,296.200,66.910,19.020,1009.000,218.100,49.590,11.640,53.510,17.310,4.959,1.645,125.200,36.450,11.530,3.953,baseline
1191.000,298.200,67.380,19.130,1017.000,219.200,50.020,11.670,58.980,17.000,5.016,1.626,125.400,36.250,11.680,3.994,baseline
1201.000,298.400,69.260,19.320,1021.000,220.200,49.950,11.690,60.910,17.270,5.037,1.648,125.500,36.460,11.530,3.989,baseline
1198.000,297.700,68.390,18.980,1012.000,217.700,49.420,11.560,56.850,17.190,4.869,1.627,124.900,36.330,11.440,3.933,baseline
1178.000,293.800,67.160,18.770,1011.000,217.300,49.420,11.510,58.030,16.740,4.902,1.626,123.700,35.800,11.330,3.954,baseline
1174.000,293.800,65.440,18.600,1010.000,217.200,49.180,11.530,56.580,17.080,4.845,1.651,123.400,35.810,11.390,3.932,baseline
1168.000,289.900,65.310,18.530,1010.000,218.300,49.100,11.580,58.890,17.220,4.925,1.624,123.600,35.360,11.180,3.895,baseline
1170.000,291.700,65.100,18.580,1009.000,217.900,49.530,11.540,57.680,16.710,4.937,1.628,122.200,35.740,11.310,3.818,baseline
1171.000,291.300,66.530,18.620,1010.000,218.100,49.080,11.630,59.030,16.750,4.834,1.634,122.200,35.070,11.170,3.876,baseline
1175.000,291.900,67.600,18.640,1017.000,219.000,50.080,11.670,58.700,16.330,4.916,1.626,122.000,35.550,11.480,3.945,baseline
1177.000,293.900,67.200,18.760,1019.000,219.200,50.070,11.660,58.090,17.000,4.882,1.630,122.400,35.710,11.430,3.868,baseline
1182.000,294.000,67.680,18.900,1020.000,219.700,50.010,11.710,57.900,16.940,4.905,1.629,123.300,35.610,11.270,3.896,baseline
1186.000,296.400,65.540,18.920,1024.000,219.800,50.360,11.750,58.450,17.100,4.934,1.610,124.600,35.880,11.410,3.868,baseline
1192.000,299.300,66.640,18.990,1020.000,220.900,49.890,11.750,56.030,16.630,4.927,1.628,123.400,35.680,11.530,3.879,baseline
1197.000,299.000,68.650,19.050,1028.000,220.500,50.610,11.800,57.650,16.600,4.960,1.636,123.200,36.130,11.480,3.898,baseline
1202.000,301.200,68.960,19.250,1029.000,222.400,50.060,11.810,57.190,16.760,4.865,1.631,124.000,36.060,11.490,3.927,baseline
1210.000,302.700,69.910,19.330,1028.000,221.800,50.410,11.880,58.660,17.510,4.982,1.642,122.700,36.330,11.500,3.964,baseline
1216.000,303.100,69.730,19.500,1035.000,223.800,50.460,11.880,53.240,17.180,4.933,1.642,124.100,36.110,11.560,3.949,baseline
1224.000,306.600,70.140,19.670,1032.000,223.900,50.580,11.920,59.670,16.900,4.958,1.670,126.100,36.570,11.610,4.026,baseline
1225.000,302.600,68.950,19.420,1027.000,220.800,50.220,11.760,57.230,16.980,4.965,1.653,123.600,35.850,11.470,3.992,baseline
1196.000,298.700,66.570,19.030,1019.000,220.200,50.240,11.720,58.740,16.960,4.995,1.643,122.500,36.030,11.490,3.924,baseline
1189.000,296.200,66.800,18.850,1016.000,218.900,49.760,11.610,54.710,17.000,4.909,1.616,121.600,35.620,11.380,3.874,baseline
1182.000,295.300,66.600,18.890,1018.000,219.900,49.860,11.690,55.400,16.920,4.982,1.643,122.500,35.240,11.210,3.817,baseline
1183.000,294.100,65.870,18.740,1019.000,218.800,49.980,11.630,57.780,16.870,4.965,1.613,122.400,35.530,11.240,3.805,baseline
1182.000,294.700,66.430,18.810,1019.000,219.600,49.240,11.670,55.360,16.760,4.870,1.595,120.800,35.520,11.220,3.904,baseline
1184.000,296.600,67.900,18.880,1017.000,219.900,50.600,11.730,56.240,17.130,4.877,1.600,122.600,35.490,11.280,3.927,baseline
1187.000,297.500,67.280,18.920,1023.000,219.800,50.110,11.720,58.450,16.760,4.910,1.613,122.800,35.630,11.360,3.876,baseline
1191.000,297.400,68.120,18.980,1025.000,220.400,50.830,11.790,55.060,17.050,4.937,1.632,122.000,35.600,11.260,3.879,baseline
1196.000,299.500,67.990,19.030,1027.000,221.500,50.410,11.790,57.150,17.170,4.944,1.656,123.100,35.760,11.430,3.890,baseline
1200.000,300.000,68.730,19.190,1030.000,221.700,50.250,11.840,61.120,16.670,4.913,1.648,124.500,35.780,11.390,3.914,baseline
1205.000,300.200,68.780,19.380,1028.000,223.100,50.630,11.850,57.510,16.860,4.922,1.652,124.100,35.710,11.500,3.933,baseline
1210.000,302.700,70.380,19.410,1032.000,223.900,50.620,11.910,57.840,17.140,4.972,1.652,124.600,35.880,11.380,3.966,baseline
1216.000,303.600,70.310,19.510,1034.000,223.600,50.560,11.880,58.890,17.180,4.970,1.652,123.500,36.190,11.690,3.943,baseline
1222.000,306.400,70.090,19.670,1037.000,223.800,51.720,11.900,54.090,16.730,5.011,1.654,123.800,36.190,11.540,3.983,baseline
1217.000,304.000,67.170,19.240,1028.000,221.800,50.920,11.770,58.340,16.940,4.957,1.656,122.800,35.810,11.440,3.894,baseline
1194.000,297.900,68.490,19.090,1026.000,220.700,50.730,11.750,55.170,16.830,4.961,1.635,122.900,35.770,11.300,3.909,baseline
1189.000,296.800,67.330,18.870,1023.000,220.500,49.630,11.720,56.580,16.870,4.963,1.631,122.900,35.470,11.320,3.933,baseline
1186.000,295.500,67.230,18.970,1025.000,220.800,50.100,11.740,57.160,16.860,4.884,1.640,122.400,35.610,11.420,3.815,baseline
1186.000,297.100,66.540,18.930,1022.000,220.400,50.140,11.760,55.910,17.030,4.934,1.620,122.800,35.460,11.280,3.808,baseline
1186.000,297.600,68.420,18.870,1020.000,221.000,49.850,11.780,56.030,17.070,4.984,1.635,123.500,35.510,11.400,3.891,baseline
1192.000,297.200,67.780,19.000,1020.000,221.800,50.600,11.810,54.560,17.130,4.973,1.635,123.700,35.560,11.240,3.893,baseline
1194.000,298.700,68.450,18.990,1025.000,222.400,50.160,11.850,56.280,16.880,4.901,1.654,121.900,35.570,11.420,3.877,baseline
1199.000,298.400,67.830,19.150,1026.000,222.900,51.190,11.840,55.590,16.730,5.028,1.665,123.700,35.810,11.420,3.891,baseline
1202.000,301.600,70.310,19.290,1028.000,223.000,50.960,11.890,58.580,17.080,4.993,1.618,122.100,35.890,11.390,3.924,baseline
1209.000,302.900,69.690,19.420,1031.000,223.400,51.230,11.920,55.670,17.280,5.044,1.660,123.900,35.610,11.450,3.939,baseline
1216.000,303.800,70.170,19.570,1034.000,224.100,51.250,11.910,56.840,17.300,5.023,1.648,125.000,35.990,11.610,4.020,baseline
1222.000,305.300,69.810,19.610,1038.000,224.900,51.600,11.990,54.660,17.140,4.982,1.653,125.300,36.060,11.380,4.001,baseline
1229.000,306.300,70.510,19.870,1040.000,225.600,52.020,12.000,56.080,17.110,5.030,1.674,125.000,36.420,11.760,4.038,baseline
1232.000,308.000,68.810,19.550,1034.000,223.400,50.810,11.840,58.730,17.240,5.108,1.636,124.100,36.200,11.340,3.870,baseline
1201.000,300.300,67.810,19.110,1022.000,222.300,50.630,11.800,58.440,17.110,4.918,1.664,122.800,36.350,11.490,3.864,baseline
1191.000,296.300,67.700,19.000,1026.000,221.200,50.640,11.730,58.120,16.920,4.983,1.626,123.100,35.350,11.340,3.917,baseline
1183.000,295.200,67.640,18.850,1022.000,220.800,50.590,11.740,59.380,17.340,4.871,1.662,122.900,35.420,11.300,3.868,baseline
1183.000,294.600,66.830,18.880,1025.000,221.300,50.730,11.760,57.750,16.750,4.934,1.616,123.000,35.380,11.300,3.915,baseline
1181.000,295.300,67.600,18.990,1018.000,221.200,50.590,11.800,54.740,17.020,4.982,1.631,123.000,35.390,11.340,3.849,baseline
1186.000,296.600,68.780,18.890,1021.000,221.700,50.570,11.840,56.380,17.280,4.910,1.647,122.100,35.600,11.290,3.910,baseline
1189.000,297.000,67.490,19.080,1025.000,221.400,50.730,11.860,55.740,17.240,5.027,1.631,123.900,35.280,11.420,3.909,baseline
1193.000,297.300,68.120,19.150,1026.000,222.900,50.840,11.870,59.130,17.450,5.005,1.661,122.600,36.220,11.300,3.879,baseline
1198.000,299.900,67.990,19.270,1031.000,223.700,50.850,11.960,55.690,17.260,4.932,1.654,123.200,35.960,11.500,3.874,baseline
1204.000,301.500,68.890,19.360,1033.000,223.900,51.510,12.020,56.870,16.840,4.943,1.642,123.800,35.900,11.390,3.960,baseline
1209.000,303.900,69.760,19.530,1030.000,224.600,51.520,12.000,56.350,17.630,5.040,1.678,124.300,36.100,11.610,3.950,baseline
1215.000,304.100,70.590,19.610,1037.000,225.400,51.260,11.990,56.480,17.090,4.901,1.651,124.000,36.150,11.720,3.970,baseline
1224.000,304.700,70.370,19.830,1036.000,226.100,52.180,12.080,59.300,17.260,5.085,1.671,125.100,36.070,11.480,3.989,baseline
1229.000,307.700,71.160,19.880,1046.000,226.700,52.030,12.100,59.140,17.110,5.032,1.679,125.400,36.650,11.640,3.999,baseline
1237.000,308.800,72.050,19.860,1039.000,226.100,51.520,11.930,56.040,17.020,4.851,1.676,125.100,36.100,11.610,3.988,baseline
1207.000,300.800,69.880,19.330,1028.000,223.100,50.430,11.900,54.890,17.330,4.958,1.644,122.100,36.130,11.570,3.936,baseline
1197.000,298.900,68.840,19.170,1027.000,222.300,51.270,11.820,58.670,17.120,4.903,1.665,123.300,35.710,11.250,3.907,baseline
1189.000,296.300,67.670,18.990,1024.000,222.200,50.130,11.830,57.920,16.940,4.971,1.619,122.900,35.750,11.370,3.887,baseline
1186.000,297.800,67.660,19.030,1019.000,222.400,51.070,11.790,55.730,17.330,4.968,1.665,122.200,35.800,11.260,3.917,baseline
1185.000,294.400,67.570,19.100,1023.000,222.200,50.760,11.860,55.510,17.260,4.967,1.632,123.600,35.520,11.370,3.870,baseline
1188.000,296.800,67.870,19.170,1025.000,221.900,51.250,11.890,57.200,17.430,4.923,1.656,122.000,35.820,11.230,3.806,baseline
1192.000,296.800,69.600,19.230,1027.000,223.200,50.710,11.890,58.980,17.290,5.039,1.628,124.200,36.010,11.460,3.925,baseline
1195.000,298.700,68.690,19.330,1030.000,223.500,51.180,11.900,53.750,17.540,5.027,1.674,123.500,35.850,11.430,3.915,baseline
1199.000,299.700,70.250,19.320,1033.000,223.400,51.180,11.980,52.600,17.190,5.044,1.657,123.500,35.780,11.420,4.005,baseline
1205.000,301.400,70.910,19.490,1030.000,224.700,50.790,11.960,57.160,17.370,4.952,1.684,122.800,35.980,11.520,3.941,baseline
1211.000,304.200,70.770,19.590,1029.000,225.000,51.450,12.010,58.130,17.400,5.035,1.647,125.500,36.190,11.520,3.928,baseline
1218.000,304.400,70.400,19.740,1035.000,225.900,50.940,12.010,54.750,17.330,5.001,1.668,124.800,36.280,11.580,3.957,baseline
1225.000,306.500,71.500,19.940,1040.000,226.100,51.570,12.020,53.630,17.040,5.060,1.655,124.500,36.210,11.550,3.981,baseline
1232.000,307.700,70.250,20.060,1037.000,227.700,51.450,12.090,57.750,17.140,5.054,1.678,124.900,36.590,11.830,3.973,baseline
1239.000,310.200,71.850,20.180,1044.000,227.800,51.650,12.120,57.460,17.220,4.999,1.675,124.400,36.930,11.730,4.058,baseline
1245.000,310.900,71.950,20.140,1042.000,225.900,51.190,11.970,58.360,17.760,5.044,1.673,125.200,36.670,11.700,4.002,baseline
1211.000,305.300,69.390,19.660,1031.000,224.700,51.260,11.880,55.840,17.290,5.018,1.662,123.800,36.040,11.540,3.968,baseline
1203.000,300.000,68.250,19.440,1028.000,223.100,51.100,11.860,58.810,17.440,5.006,1.638,124.600,36.040,11.390,3.936,baseline
1193.000,299.000,67.280,19.280,1029.000,223.100,50.440,11.780,58.520,17.280,5.016,1.666,123.900,35.860,11.330,3.921,baseline
1192.000,297.600,67.930,19.310,1026.000,222.600,50.500,11.810,57.650,17.150,5.007,1.645,123.800,36.190,11.430,3.926,baseline
1190.000,297.800,68.750,19.250,1029.000,222.800,50.260,11.810,53.380,17.400,4.959,1.643,123.500,35.950,11.460,3.924,baseline
1193.000,297.100,69.350,19.420,1028.000,223.200,50.830,11.770,58.930,17.170,5.056,1.636,123.700,35.780,11.390,3.923,baseline
1197.000,298.800,68.620,19.520,1029.000,223.200,50.810,11.830,59.100,17.080,4.996,1.616,122.600,35.820,11.460,3.950,baseline
1202.000,298.200,69.720,19.540,1028.000,223.700,50.770,11.840,56.670,17.520,5.000,1.648,123.400,35.960,11.540,3.953,baseline
1205.000,301.300,69.930,19.630,1027.000,224.300,51.290,11.810,60.690,17.190,4.986,1.646,124.100,35.860,11.430,3.962,baseline
1210.000,303.000,69.500,19.730,1033.000,225.100,50.680,11.860,58.160,17.120,5.033,1.662,124.900,36.370,11.560,4.063,baseline
1216.000,304.700,71.190,19.830,1034.000,224.300,52.190,11.910,59.060,17.080,4.970,1.651,124.700,36.530,11.520,4.008,baseline
1222.000,306.900,70.290,19.960,1033.000,225.300,51.860,11.940,61.430,17.120,5.107,1.661,124.800,36.840,11.790,4.009,baseline
1229.000,309.100,71.410,20.150,1039.000,226.500,52.090,11.970,57.940,17.430,5.045,1.649,126.500,36.640,11.910,4.093,baseline
1235.000,309.700,70.650,20.250,1043.000,226.300,51.320,11.970,55.470,17.260,5.050,1.645,125.800,36.770,11.820,4.040,baseline
1242.000,310.900,72.110,20.430,1044.000,226.900,51.560,11.970,58.360,17.410,5.045,1.664,126.300,37.370,11.760,4.093,baseline
1239.000,310.200,72.100,20.000,1032.000,224.800,51.270,11.720,56.380,17.400,5.029,1.657,124.800,36.360,11.540,4.049,baseline
1206.000,301.200,69.640,19.650,1030.000,223.100,50.520,11.710,57.250,17.350,4.979,1.654,125.700,36.430,11.670,3.992,baseline
1198.000,300.900,69.370,19.420,1018.000,222.400,50.430,11.660,58.660,16.890,4.935,1.643,123.600,36.200,11.570,4.008,baseline
1191.000,298.000,69.930,19.390,1024.000,222.000,50.660,11.600,58.600,17.150,5.010,1.639,122.400,35.950,11.420,3.947,baseline
1190.000,296.400,68.010,19.340,1023.000,221.400,50.430,11.600,57.450,17.230,4.873,1.626,123.100,35.930,11.630,4.027,baseline
1191.000,298.600,68.630,19.510,1024.000,222.300,50.730,11.630,55.630,17.050,4.999,1.635,123.800,36.390,11.550,3.968,baseline
1194.000,299.900,68.800,19.450,1024.000,221.800,50.420,11.620,57.350,17.140,4.953,1.648,124.400,35.990,11.650,4.002,baseline
1198.000,300.900,68.750,19.580,1027.000,223.100,50.800,11.620,56.820,16.910,4.923,1.626,124.800,36.100,11.590,3.947,baseline
1201.000,303.000,68.590,19.590,1031.000,223.300,51.000,11.690,58.900,17.080,5.076,1.628,124.400,36.080,11.530,4.011,baseline
1204.000,302.900,69.710,19.740,1030.000,222.700,50.680,11.710,60.270,16.880,4.996,1.663,125.000,36.580,11.550,3.971,baseline
1211.000,304.100,69.810,19.840,1033.000,224.300,51.460,11.710,57.490,17.200,4.964,1.619,126.300,36.260,11.720,4.008,baseline
1216.000,307.100,71.390,19.990,1035.000,224.400,51.070,11.770,57.740,17.290,4.869,1.630,123.800,36.640,11.780,3.988,baseline
1224.000,307.500,71.020,20.090,1039.000,225.800,50.840,11.770,58.250,16.870,4.930,1.617,126.600,36.570,11.860,4.066,baseline
1230.000,308.300,72.020,20.190,1041.000,226.100,51.310,11.760,60.350,16.700,4.943,1.644,125.800,36.790,11.840,4.084,baseline
1237.000,310.600,72.410,20.290,1044.000,226.600,51.330,11.850,61.480,17.290,4.956,1.654,126.400,37.160,11.870,4.055,baseline
1246.000,313.200,74.000,20.500,1044.000,226.700,51.700,11.810,56.360,17.470,4.952,1.635,126.000,36.880,11.890,4.063,baseline
1238.000,308.400,70.870,19.990,1033.000,223.400,50.510,11.620,60.200,17.140,4.939,1.660,126.100,36.420,11.760,4.038,baseline
1207.000,303.000,69.630,19.700,1029.000,222.500,50.480,11.600,58.880,17.230,4.867,1.639,124.900,36.500,11.640,3.960,baseline
1200.000,299.300,70.090,19.510,1026.000,221.400,49.840,11.500,57.370,16.940,4.830,1.634,124.400,36.440,11.670,3.957,baseline
1191.000,298.400,68.530,19.450,1023.000,221.600,50.410,11.540,57.920,17.210,4.982,1.634,123.800,35.950,11.440,3.989,baseline
1191.000,298.600,69.430,19.380,1028.000,222.000,50.610,11.530,57.050,17.060,4.915,1.621,122.600,36.050,11.640,4.003,baseline
1191.000,298.800,68.980,19.490,1022.000,221.400,51.090,11.580,56.640,16.990,4.861,1.617,125.000,35.820,11.540,3.986,baseline
1194.000,301.000,68.050,19.480,1021.000,222.500,50.210,11.540,58.120,17.110,4.948,1.603,124.400,35.960,11.490,4.011,baseline
1197.000,300.800,69.810,19.510,1027.000,222.000,50.620,11.580,57.630,16.920,4.896,1.639,124.500,36.030,11.780,3.997,baseline
1201.000,300.300,69.420,19.580,1028.000,221.800,50.770,11.640,53.970,16.900,4.884,1.624,124.800,36.460,11.660,4.044,baseline
1204.000,302.800,69.840,19.750,1031.000,223.000,50.000,11.740,53.990,16.960,5.032,1.631,125.500,36.350,11.690,4.006,baseline
1211.000,303.000,71.440,19.790,1030.000,224.100,50.800,11.720,55.330,17.050,4.970,1.642,124.400,36.150,11.660,3.992,baseline
1216.000,304.900,70.390,19.930,1035.000,224.100,50.860,11.720,55.530,16.750,4.905,1.624,125.300,36.220,11.610,4.034,baseline
1221.000,306.000,70.440,20.020,1033.000,224.100,51.380,11.730,57.340,17.190,4.935,1.626,126.100,36.400,11.650,4.119,baseline
1228.000,308.400,71.130,20.130,1034.000,224.000,50.820,11.760,59.670,16.620,4.915,1.658,126.200,37.070,11.700,4.124,baseline
1234.000,309.500,71.600,20.260,1043.000,225.100,51.370,11.770,57.920,17.150,4.951,1.646,125.900,37.100,11.920,4.066,baseline
1239.000,310.900,70.680,20.120,1036.000,223.100,50.420,11.610,55.220,17.160,4.946,1.644,125.600,36.980,11.700,4.010,baseline
1204.000,303.200,68.930,19.650,1027.000,221.300,50.170,11.560,60.200,17.150,4.954,1.629,125.200,36.310,11.660,4.046,baseline
1197.000,298.600,67.970,19.440,1024.000,221.700,49.970,11.510,57.830,17.150,4.938,1.636,124.300,36.390,11.580,3.925,baseline
1188.000,296.300,67.750,19.290,1023.000,221.200,49.910,11.510,54.910,17.080,4.925,1.637,123.600,36.110,11.530,4.012,baseline
1186.000,296.900,67.000,19.290,1024.000,221.200,50.300,11.560,59.160,17.020,4.920,1.635,125.400,36.210,11.540,4.021,baseline
1186.000,299.300,67.800,19.260,1024.000,221.700,49.640,11.590,58.180,17.270,4.969,1.624,123.500,36.340,11.480,4.009,baseline
1189.000,297.500,69.440,19.410,1026.000,221.300,50.410,11.610,56.430,17.340,4.897,1.635,123.900,36.200,11.580,3.995,baseline
1192.000,298.200,69.860,19.330,1027.000,222.700,50.810,11.570,58.840,16.960,4.993,1.628,126.000,36.200,11.720,3.991,baseline
1196.000,299.500,69.090,19.450,1024.000,222.500,49.950,11.680,57.010,16.680,4.956,1.631,123.800,36.340,11.780,4.022,baseline
1201.000,302.000,69.490,19.550,1033.000,222.500,50.330,11.670,56.240,17.100,4.981,1.621,125.000,36.450,11.620,4.025,baseline
1207.000,303.000,69.540,19.710,1032.000,223.200,50.230,11.710,53.670,17.100,4.898,1.667,124.300,36.190,11.830,4.033,baseline
1211.000,305.000,70.790,19.880,1036.000,224.400,50.530,11.750,59.410,16.940,5.054,1.637,125.200,36.640,11.540,4.035,baseline
1217.000,305.700,69.990,19.900,1034.000,225.000,51.590,11.760,54.590,17.230,5.006,1.629,126.500,36.660,11.600,4.058,baseline
1223.000,307.100,69.170,19.990,1039.000,224.400,51.360,11.840,57.440,17.440,5.001,1.648,126.200,36.950,11.830,4.059,baseline
1229.000,309.000,71.060,20.110,1038.000,225.200,51.250,11.820,57.910,17.080,5.013,1.663,125.400,36.990,11.800,4.084,baseline
1236.000,311.000,72.220,20.240,1044.000,225.600,51.020,11.810,62.670,17.240,4.957,1.644,127.900,36.830,11.880,4.082,baseline
1219.000,305.400,69.580,19.600,1028.000,222.300,50.450,11.680,59.970,17.030,4.966,1.633,125.300,36.660,11.650,4.045,baseline
1198.000,300.500,69.990,19.450,1020.000,222.500,50.420,11.640,57.210,17.280,4.920,1.643,125.400,36.520,11.600,4.016,baseline
1189.000,298.000,68.650,19.220,1025.000,221.000,50.500,11.610,59.340,17.400,4.962,1.636,124.200,36.000,11.520,4.012,baseline
1184.000,296.100,67.020,19.170,1017.000,221.700,50.590,11.640,61.840,17.090,4.965,1.654,123.600,36.290,11.520,3.962,baseline
1185.000,295.800,68.410,19.200,1022.000,220.900,50.150,11.640,55.250,17.270,4.899,1.619,124.800,36.430,11.730,3.954,baseline
1186.000,297.100,68.480,19.230,1021.000,222.000,50.610,11.630,58.340,17.220,4.965,1.639,124.500,36.250,11.430,4.009,baseline
1187.000,297.700,66.050,19.200,1018.000,221.700,50.130,11.660,56.220,17.080,5.017,1.665,125.200,36.050,11.760,4.021,baseline
1189.000,297.200,67.690,19.250,1022.000,221.000,51.290,11.650,56.540,17.000,4.902,1.658,124.200,36.470,11.710,4.009,baseline
1192.000,298.300,67.750,19.370,1024.000,221.700,50.760,11.700,57.260,16.870,5.006,1.657,124.100,36.900,11.630,3.986,baseline
1196.000,299.600,67.130,19.510,1025.000,223.300,50.410,11.710,62.410,17.240,5.029,1.632,126.600,36.160,11.640,4.085,baseline
1202.000,301.600,67.950,19.470,1032.000,222.700,50.480,11.760,59.110,17.360,4.993,1.639,126.000,36.680,11.930,4.036,baseline
1207.000,302.500,69.860,19.620,1027.000,222.600,50.750,11.820,58.480,17.340,4.960,1.616,126.300,37.030,11.840,4.079,baseline
1213.000,303.300,70.650,19.750,1036.000,223.000,51.240,11.860,59.460,17.150,4.994,1.670,125.900,36.800,11.780,4.114,baseline
1218.000,305.300,69.050,19.860,1037.000,224.000,51.000,11.840,61.370,17.690,5.054,1.675,126.600,37.220,11.870,4.073,baseline
1224.000,307.400,70.870,20.010,1039.000,224.800,51.220,11.810,56.350,17.150,5.005,1.662,127.800,37.030,11.880,4.076,baseline
1219.000,305.600,69.200,19.600,1026.000,221.400,50.310,11.650,56.610,17.170,5.026,1.643,126.800,36.700,11.690,3.983,baseline
1194.000,298.800,68.570,19.370,1026.000,220.800,50.840,11.670,60.260,17.510,4.939,1.641,125.200,36.490,11.680,4.057,baseline
1189.000,297.700,67.750,19.200,1017.000,221.200,50.200,11.660,56.770,17.290,4.875,1.639,125.600,36.510,11.710,4.050,baseline
1185.000,295.900,66.530,19.180,1020.000,220.300,50.820,11.630,57.900,17.300,5.003,1.636,124.000,36.240,11.620,4.001,baseline
1184.000,297.300,68.600,19.170,1022.000,219.500,50.710,11.650,57.830,17.280,4.928,1.644,125.200,35.980,11.630,4.023,baseline
1185.000,297.100,67.360,19.230,1026.000,220.400,50.140,11.670,61.290,16.990,5.032,1.674,124.900,36.360,11.520,3.958,baseline
1189.000,297.700,67.330,19.190,1024.000,221.600,50.180,11.720,55.240,16.820,4.990,1.627,125.500,36.070,11.610,4.015,baseline
1192.000,298.100,67.950,19.340,1028.000,221.700,50.520,11.740,57.350,17.290,4.967,1.653,125.300,36.840,11.640,4.019,baseline
1196.000,300.100,68.830,19.400,1027.000,223.000,50.410,11.780,59.760,17.240,5.000,1.651,126.500,36.610,11.850,4.064,baseline
1199.000,300.500,69.040,19.460,1033.000,222.200,50.340,11.800,56.690,17.300,4.955,1.685,126.700,36.830,11.900,4.076,baseline
1206.000,301.700,69.530,19.500,1031.000,222.200,50.680,11.820,58.160,17.370,5.064,1.673,126.200,37.460,11.790,4.057,baseline
1211.000,303.100,69.000,19.640,1030.000,223.800,51.160,11.870,55.910,17.030,5.012,1.673,126.000,36.880,11.870,4.079,baseline
1217.000,304.800,69.370,19.700,1033.000,223.900,51.430,11.820,58.900,17.540,4.927,1.685,127.100,36.840,11.790,4.087,baseline
1204.000,301.600,68.600,19.440,1029.000,221.800,50.480,11.760,54.790,17.540,4.925,1.676,125.600,36.520,11.840,4.075,baseline
1190.000,296.700,68.200,19.230,1022.000,220.500,50.980,11.700,58.360,16.990,5.060,1.653,125.200,36.460,11.620,4.049,baseline
1185.000,297.100,67.180,19.090,1024.000,220.200,50.360,11.750,55.880,17.500,4.992,1.654,125.600,36.070,11.480,4.024,baseline
1184.000,297.600,67.080,19.030,1022.000,220.600,51.060,11.700,56.990,17.210,4.960,1.675,124.400,36.020,11.520,4.034,baseline
1183.000,295.200,65.540,19.040,1020.000,221.600,50.260,11.770,58.120,17.250,5.011,1.660,124.900,36.070,11.580,4.019,baseline
1184.000,295.200,66.870,19.050,1023.000,221.400,50.880,11.740,59.290,17.630,5.065,1.671,124.500,36.630,11.470,4.013,baseline
1188.000,295.500,67.090,19.190,1027.000,222.000,50.940,11.840,55.800,17.200,5.046,1.649,125.000,36.430,11.530,4.022,baseline
1191.000,298.400,68.120,19.130,1024.000,221.700,50.500,11.820,57.110,17.430,5.060,1.666,124.700,36.320,11.800,4.035,baseline
1195.000,298.300,68.190,19.340,1029.000,222.200,51.020,11.850,57.710,17.230,4.968,1.655,124.800,35.990,11.590,4.021,baseline
1199.000,300.000,68.320,19.340,1030.000,223.300,51.290,11.890,58.060,17.450,5.010,1.656,125.800,36.240,11.520,4.029,baseline
1206.000,301.500,69.630,19.440,1027.000,222.600,50.820,11.870,57.590,17.660,5.097,1.689,124.800,36.550,11.660,3.958,baseline
1191.000,297.200,66.890,19.020,1019.000,219.900,50.670,11.720,57.410,17.500,5.015,1.657,125.100,36.570,11.570,3.930,baseline
1180.000,295.100,67.050,18.890,1020.000,219.300,49.870,11.720,59.290,17.280,5.042,1.651,123.800,36.170,11.460,3.969,baseline
1173.000,294.100,65.880,18.760,1019.000,219.500,50.680,11.710,61.130,17.400,4.996,1.666,123.200,35.920,11.480,3.907,baseline
1171.000,290.900,65.230,18.710,1019.000,219.400,50.280,11.740,55.530,16.820,5.035,1.668,122.400,36.180,11.340,3.877,baseline
1170.000,291.400,65.960,18.680,1018.000,219.100,49.980,11.760,58.200,17.400,4.944,1.634,123.200,35.570,11.430,3.935,baseline
1170.000,291.700,66.210,18.700,1013.000,219.600,50.310,11.720,55.950,17.210,5.006,1.661,123.100,35.700,11.330,3.849,baseline
1173.000,292.400,66.130,18.770,1020.000,219.400,50.020,11.810,59.450,17.080,5.012,1.670,123.600,35.710,11.450,3.884,baseline
1176.000,294.900,67.050,18.820,1019.000,219.800,50.660,11.810,57.990,17.080,5.029,1.649,123.600,35.780,11.530,3.943,baseline
1178.000,294.300,68.220,18.940,1022.000,220.600,50.220,11.840,59.040,17.310,4.989,1.679,124.300,35.800,11.550,3.957,baseline
1184.000,296.100,67.550,19.040,1020.000,220.000,50.280,11.810,59.740,17.200,5.020,1.626,124.300,36.080,11.480,3.997,baseline
1188.000,297.100,67.900,19.190,1025.000,221.200,51.070,11.880,57.290,17.480,5.027,1.673,123.600,36.130,11.620,3.986,baseline
1193.000,299.200,67.830,19.300,1024.000,222.000,51.420,11.970,55.340,17.350,5.016,1.688,124.000,35.980,11.480,3.941,baseline
1200.000,302.700,68.820,19.380,1030.000,222.000,50.790,11.940,59.920,17.260,5.040,1.635,125.200,36.550,11.570,4.014,baseline
1208.000,301.200,68.240,19.540,1028.000,222.600,51.320,11.950,58.400,16.930,5.034,1.685,126.200,36.310,11.350,4.044,baseline
1212.000,304.000,70.600,19.630,1037.000,223.600,51.070,11.990,57.980,17.240,5.073,1.686,125.600,36.190,11.750,4.024,baseline
1221.000,306.100,70.670,19.710,1036.000,224.100,51.800,11.910,59.080,17.460,5.075,1.671,125.900,36.180,11.530,4.044,baseline
1201.000,299.200,68.170,19.100,1024.000,220.500,50.400,11.780,57.630,17.280,5.089,1.662,123.100,36.090,11.660,3.937,baseline
1183.000,296.000,66.610,18.980,1020.000,220.200,49.860,11.690,57.460,17.390,4.921,1.656,124.400,35.480,11.440,3.952,baseline
1173.000,292.500,66.700,18.730,1017.000,218.600,50.040,11.690,59.920,17.320,4.996,1.682,124.300,35.730,11.300,3.893,baseline
1167.000,290.800,66.170,18.650,1017.000,218.800,49.930,11.750,59.400,17.220,5.010,1.653,123.500,35.350,11.420,3.918,baseline
1168.000,290.700,66.750,18.690,1016.000,218.800,49.890,11.710,56.750,17.370,4.997,1.669,122.200,35.610,11.410,3.877,baseline
1170.000,291.400,66.670,18.750,1016.000,220.100,49.920,11.710,57.950,17.080,5.057,1.661,122.700,35.410,11.210,3.929,baseline
1173.000,293.700,66.740,18.950,1020.000,220.200,50.140,11.780,60.370,17.240,5.036,1.662,122.200,35.520,11.380,3.928,baseline
1176.000,292.500,66.630,18.910,1024.000,220.700,50.180,11.800,59.260,17.560,5.079,1.677,124.400,35.740,11.480,3.981,baseline
1180.000,295.400,66.770,18.990,1023.000,220.700,50.220,11.790,50.800,16.970,5.046,1.652,124.300,35.800,11.450,3.895,baseline
1184.000,297.200,66.740,19.060,1022.000,221.000,50.340,11.780,55.890,17.020,4.953,1.656,124.200,35.820,11.450,3.902,baseline
1189.000,299.500,66.730,19.300,1024.000,221.300,51.610,11.860,58.300,17.230,5.031,1.682,122.900,36.160,11.600,3.911,baseline
1194.000,299.700,69.490,19.350,1030.000,222.700,51.490,11.870,57.290,17.160,5.140,1.677,125.100,35.890,11.510,3.957,baseline
1200.000,299.900,68.500,19.420,1029.000,222.600,50.870,11.880,56.440,17.450,5.087,1.683,124.500,36.230,11.570,4.038,baseline
1207.000,300.600,68.910,19.550,1033.000,223.800,51.140,11.920,56.680,17.590,5.101,1.672,123.900,36.050,11.580,4.006,baseline
1213.000,304.300,68.500,19.620,1043.000,224.800,51.210,11.930,61.700,17.480,5.061,1.667,125.900,36.240,11.700,4.020,baseline
1219.000,304.500,70.010,19.770,1042.000,224.300,51.500,11.990,59.260,17.290,5.057,1.688,125.700,36.610,11.750,4.033,baseline
1224.000,305.300,70.540,19.770,1037.000,223.200,51.100,11.860,57.220,17.520,5.062,1.653,124.000,36.400,11.660,4.031,baseline
1194.000,298.300,67.580,19.310,1024.000,221.800,50.060,11.720,57.880,17.270,5.010,1.658,123.200,36.080,11.490,3.966,baseline
1184.000,295.100,67.510,18.970,1023.000,220.600,49.890,11.670,58.860,17.010,5.069,1.678,123.700,35.560,11.410,3.957,baseline
1174.000,292.500,67.570,18.870,1021.000,219.700,50.240,11.680,55.220,17.400,5.108,1.672,123.200,35.910,11.530,3.935,baseline
1172.000,291.400,65.010,18.750,1016.000,220.100,49.860,11.670,55.890,17.400,4.951,1.664,123.100,35.520,11.330,3.927,baseline
1170.000,292.200,66.210,18.910,1020.000,220.500,50.180,11.690,59.070,17.300,4.931,1.672,123.600,35.470,11.450,3.947,baseline
1173.000,293.000,66.810,18.830,1018.000,219.700,50.200,11.680,58.570,17.430,4.976,1.666,122.800,35.860,11.460,3.885,baseline
1177.000,293.500,66.170,18.920,1023.000,220.000,50.210,11.680,56.640,17.340,4.982,1.666,123.400,35.430,11.490,3.940,baseline
1181.000,295.200,67.010,19.030,1024.000,219.800,50.060,11.750,55.290,17.410,4.920,1.670,123.300,35.620,11.480,3.975,baseline
1184.000,293.300,67.500,19.130,1027.000,221.200,50.470,11.690,56.400,17.110,5.076,1.655,122.800,35.380,11.620,3.928,baseline
1189.000,295.400,67.910,19.150,1022.000,221.700,50.730,11.760,58.550,17.210,5.075,1.684,124.200,35.800,11.590,4.008,baseline
1194.000,299.200,68.910,19.330,1032.000,221.900,50.780,11.800,57.820,17.310,4.959,1.639,124.700,35.860,11.600,4.008,baseline
1201.000,299.800,69.130,19.450,1036.000,222.700,50.790,11.840,58.170,17.200,5.056,1.662,125.400,35.790,11.620,4.004,baseline
1207.000,302.200,69.620,19.550,1035.000,223.800,50.940,11.830,59.030,17.390,5.019,1.675,124.900,36.110,11.580,4.004,baseline
1214.000,302.000,69.590,19.750,1039.000,224.100,50.860,11.920,56.200,17.380,5.015,1.674,124.800,36.420,11.550,4.069,baseline
1220.000,305.600,69.120,19.840,1042.000,225.300,51.370,11.890,60.540,17.020,4.995,1.665,125.300,36.860,11.850,4.093,baseline
1228.000,306.900,70.590,20.020,1043.000,224.900,51.730,11.830,61.530,17.370,5.061,1.686,125.600,36.960,11.770,4.058,baseline
1210.000,300.700,68.480,19.350,1027.000,222.100,50.990,11.730,60.070,17.150,5.113,1.665,125.100,36.190,11.600,4.019,baseline
1190.000,297.500,67.440,19.240,1030.000,221.100,50.520,11.710,56.520,17.490,5.005,1.660,124.200,35.700,11.410,4.037,baseline
1181.000,294.000,66.940,18.990,1023.000,220.000,50.170,11.650,56.210,17.470,4.918,1.652,123.700,35.770,11.450,3.949,baseline
1176.000,293.000,66.570,18.910,1023.000,220.700,50.510,11.650,59.280,17.370,5.005,1.623,123.000,35.900,11.380,3.919,baseline
1177.000,293.500,67.400,18.900,1026.000,219.900,49.990,11.650,55.080,17.150,4.954,1.643,123.400,35.720,11.470,3.962,baseline
1177.000,294.800,65.940,18.980,1026.000,221.100,49.950,11.660,60.330,17.150,4.988,1.651,123.700,35.930,11.430,3.982,baseline
1180.000,294.000,68.030,19.030,1024.000,220.000,49.840,11.650,57.700,16.850,5.074,1.635,124.100,35.570,11.470,4.035,baseline
1183.000,294.000,67.950,19.120,1029.000,221.700,50.310,11.740,55.700,16.820,4.956,1.618,123.700,36.300,11.350,3.944,baseline
1187.000,296.000,67.390,19.190,1029.000,222.000,50.300,11.730,56.250,16.950,4.949,1.645,124.000,36.040,11.480,3.983,baseline
1191.000,298.800,67.320,19.400,1031.000,221.700,50.690,11.710,54.750,17.200,5.036,1.630,123.800,35.980,11.550,4.029,baseline
1196.000,296.700,68.220,19.330,1037.000,222.200,51.560,11.820,57.750,16.950,4.936,1.634,123.800,36.140,11.640,4.041,baseline
1201.000,300.200,67.440,19.420,1034.000,222.600,50.560,11.840,59.240,17.060,4.952,1.651,125.100,36.260,11.600,4.041,baseline
1207.000,301.500,69.260,19.580,1038.000,223.600,51.780,11.810,57.400,16.920,4.982,1.669,125.200,36.120,11.760,4.028,baseline
1211.000,303.200,69.680,19.640,1037.000,224.200,51.390,11.900,59.880,17.040,4.998,1.641,125.800,36.060,11.700,4.025,baseline
1218.000,303.700,69.410,19.840,1041.000,224.900,51.350,11.800,56.600,17.300,4.986,1.652,124.800,36.590,11.730,4.045,baseline
1209.000,299.400,68.710,19.310,1026.000,221.200,50.150,11.700,59.450,17.290,4.942,1.654,124.300,36.310,11.550,4.022,baseline
1187.000,295.300,66.610,19.170,1030.000,220.700,49.900,11.680,59.920,17.330,4.975,1.631,123.900,36.040,11.600,3.999,baseline
1180.000,293.700,66.840,18.950,1022.000,220.000,50.240,11.640,56.660,17.380,4.993,1.623,123.700,35.530,11.420,3.940,baseline
1174.000,293.200,66.190,18.900,1022.000,220.300,50.230,11.620,54.630,16.850,4.880,1.629,123.700,35.660,11.450,3.957,baseline
1174.000,291.400,67.500,18.890,1024.000,221.000,49.920,11.680,62.350,17.050,4.897,1.630,123.700,35.380,11.460,3.926,baseline
1175.000,291.800,66.530,18.990,1024.000,220.900,50.270,11.680,55.580,17.090,4.850,1.629,122.900,35.660,11.490,3.928,baseline
1179.000,292.600,66.410,19.080,1021.000,221.100,50.700,11.710,58.650,17.200,4.911,1.620,122.900,35.440,11.410,3.954,baseline
1183.000,295.000,66.990,19.170,1026.000,221.700,50.960,11.700,55.320,16.990,4.883,1.639,124.200,35.700,11.450,3.960,baseline
1187.000,296.800,67.300,19.160,1031.000,221.700,51.060,11.750,56.590,16.920,4.967,1.642,125.800,35.870,11.530,3.954,baseline
1192.000,297.800,68.730,19.280,1028.000,222.600,50.960,11.810,58.120,16.990,4.972,1.635,123.900,35.980,11.550,3.998,baseline
1197.000,299.400,69.370,19.410,1035.000,223.200,50.360,11.820,58.780,16.790,4.978,1.658,124.600,36.320,11.450,4.019,baseline
1203.000,299.900,68.910,19.580,1032.000,224.000,50.720,11.910,58.440,16.840,4.981,1.626,124.800,36.400,11.520,4.060,baseline
1209.000,301.600,68.910,19.720,1038.000,223.800,51.190,11.850,58.610,17.020,4.981,1.628,125.400,36.520,11.700,4.043,baseline
1216.000,304.400,70.360,19.730,1038.000,225.300,51.130,11.930,56.400,17.060,4.923,1.642,125.300,36.630,11.650,4.063,baseline
1224.000,307.500,70.790,19.950,1043.000,225.400,51.000,11.910,56.760,17.140,4.915,1.674,125.300,36.540,11.650,4.110,baseline
1212.000,302.000,68.880,19.400,1034.000,223.100,50.670,11.710,55.200,17.250,4.972,1.650,123.700,36.190,11.650,4.034,baseline
1189.000,294.400,69.140,19.200,1028.000,221.000,49.950,11.660,60.170,17.100,5.000,1.635,122.900,36.050,11.560,3.987,baseline
1181.000,294.500,67.330,18.960,1024.000,220.700,50.230,11.660,57.860,17.190,4.991,1.637,124.100,35.590,11.530,3.932,baseline
1176.000,292.400,66.410,18.930,1025.000,220.700,50.410,11.650,58.730,16.670,4.959,1.652,124.100,35.910,11.530,3.873,baseline
1176.000,293.600,66.940,18.870,1024.000,220.900,50.440,11.680,58.670,17.120,4.943,1.621,123.100,35.470,11.420,3.960,baseline
1176.000,293.900,66.890,18.940,1024.000,221.300,50.230,11.700,56.200,16.950,4.897,1.621,123.200,35.620,11.560,3.973,baseline
1181.000,292.800,66.900,19.020,1026.000,222.300,50.940,11.720,59.170,17.260,4.976,1.631,123.900,35.870,11.360,3.942,baseline
1184.000,295.700,67.490,19.100,1032.000,221.600,50.610,11.770,54.450,17.260,4.911,1.659,123.700,35.700,11.390,4.047,baseline
1187.000,297.200,68.410,19.110,1030.000,221.700,50.840,11.810,58.600,17.430,5.011,1.640,123.600,35.890,11.570,4.008,baseline
1193.000,297.400,67.470,19.240,1034.000,223.100,50.730,11.790,59.210,17.000,4.989,1.659,124.300,36.310,11.450,4.051,baseline
1198.000,300.100,69.610,19.450,1032.000,223.800,50.840,11.890,57.480,16.860,5.007,1.637,123.800,35.770,11.730,4.012,baseline
1204.000,302.500,68.400,19.470,1039.000,223.700,50.930,11.890,58.280,16.850,5.038,1.661,125.700,36.180,11.710,4.068,baseline
1210.000,300.900,68.830,19.710,1043.000,224.300,51.410,11.810,59.370,17.330,4.982,1.651,126.700,36.640,11.620,4.072,baseline
1216.000,303.500,69.910,19.730,1040.000,224.700,51.370,11.910,57.660,17.160,5.015,1.656,124.600,36.290,11.650,4.052,baseline
1223.000,306.400,70.360,19.930,1050.000,226.100,51.440,11.980,57.120,17.190,4.953,1.656,126.300,36.590,11.810,4.039,baseline
1229.000,307.000,71.300,20.050,1047.000,225.900,51.740,11.920,59.340,17.550,5.003,1.644,126.200,36.870,11.800,4.083,baseline
1216.000,303.100,68.180,19.500,1032.000,223.700,51.160,11.750,60.030,17.050,4.921,1.665,124.800,36.300,11.670,4.088,baseline
1193.000,298.400,67.410,19.220,1032.000,222.100,50.690,11.700,56.240,17.170,4.952,1.637,124.400,35.500,11.510,4.001,baseline
1186.000,295.300,66.860,19.010,1025.000,222.200,50.430,11.700,56.250,17.200,5.082,1.652,123.100,36.230,11.470,3.983,baseline
1181.000,293.600,67.790,18.930,1025.000,222.100,50.350,11.740,57.640,17.060,5.011,1.645,123.800,36.090,11.450,3.950,baseline
1182.000,293.600,67.020,19.080,1030.000,221.900,50.790,11.680,60.610,17.110,4.941,1.627,123.500,35.750,11.520,3.958,baseline
1182.000,297.700,68.170,19.170,1026.000,221.600,50.860,11.720,55.500,17.650,4.984,1.663,123.300,36.270,11.230,3.963,baseline
1185.000,296.600,68.730,19.140,1027.000,222.800,50.450,11.740,61.170,17.320,4.950,1.625,124.600,35.620,11.590,3.992,baseline
1190.000,296.300,68.260,19.190,1030.000,222.000,51.150,11.810,61.970,17.020,5.021,1.672,124.000,35.930,11.590,3.989,baseline
1194.000,299.200,68.160,19.280,1035.000,224.000,50.750,11.820,56.630,17.160,4.986,1.642,124.100,35.970,11.540,3.983,baseline
1199.000,299.300,68.420,19.510,1032.000,223.000,51.070,11.840,58.210,17.410,4.997,1.651,124.400,36.830,11.630,4.026,baseline
1204.000,301.700,68.980,19.560,1035.000,223.600,51.520,11.870,61.380,17.590,4.961,1.647,123.900,36.270,11.650,4.043,baseline
1211.000,303.300,69.940,19.700,1039.000,225.100,51.580,11.890,57.430,17.040,4.988,1.644,124.900,35.920,11.520,4.022,baseline
1216.000,304.000,69.660,19.770,1042.000,225.100,51.480,11.950,59.910,17.340,5.034,1.648,126.300,36.510,11.630,4.091,baseline
1222.000,304.300,68.960,19.930,1046.000,225.100,51.300,11.940,58.580,17.720,4.972,1.661,124.900,36.700,11.780,4.094,baseline
1228.000,307.500,71.120,20.030,1051.000,225.700,51.690,11.940,56.660,17.360,5.027,1.693,126.000,36.670,11.610,4.089,baseline
1236.000,308.100,72.270,20.190,1051.000,225.300,51.420,11.880,54.260,17.200,4.995,1.682,126.800,36.860,11.720,4.100,baseline
1212.000,301.800,69.270,19.550,1037.000,223.200,50.810,11.770,58.220,17.190,4.976,1.655,125.900,36.490,11.740,4.039,baseline
1198.000,297.400,68.680,19.340,1023.000,223.000,49.590,11.710,56.090,17.730,4.918,1.644,124.500,36.210,11.540,3.997,baseline
1190.000,298.000,68.440,19.160,1030.000,221.700,50.920,11.700,55.270,17.380,4.977,1.666,124.600,36.250,11.490,3.922,baseline
1188.000,296.000,69.330,19.150,1028.000,222.100,50.310,11.710,59.950,17.610,4.975,1.656,122.800,36.230,11.530,3.993,baseline
1187.000,296.000,69.520,19.180,1032.000,221.500,50.280,11.650,53.410,16.920,5.014,1.614,123.700,35.850,11.350,3.997,baseline
1189.000,294.900,67.600,19.240,1029.000,222.200,49.880,11.760,57.310,17.370,5.053,1.653,124.500,35.900,11.650,3.991,baseline
1192.000,295.700,66.770,19.330,1035.000,222.200,50.280,11.770,60.180,16.890,4.955,1.630,124.100,36.000,11.660,3.997,baseline
1196.000,299.500,68.630,19.300,1038.000,222.800,50.480,11.800,61.860,17.290,5.061,1.679,125.100,36.280,11.400,3.963,baseline
1200.000,299.700,68.430,19.420,1036.000,223.300,51.070,11.780,60.430,17.590,4.957,1.636,124.100,35.930,11.540,3.993,baseline
1205.000,301.200,67.730,19.590,1036.000,223.700,50.640,11.800,59.970,17.260,5.059,1.641,125.200,36.100,11.620,4.034,baseline
1210.000,301.900,69.710,19.730,1040.000,224.600,50.640,11.820,59.540,17.270,5.050,1.664,125.500,36.420,11.590,4.056,baseline
1216.000,302.900,69.980,19.780,1043.000,223.900,51.600,11.870,61.490,16.990,5.037,1.646,125.400,36.400,11.860,4.054,baseline
1222.000,306.300,70.390,19.960,1044.000,225.400,50.860,11.950,56.260,17.200,4.985,1.674,124.900,36.410,11.700,4.081,baseline
1229.000,307.700,70.570,20.030,1042.000,225.000,51.850,11.940,56.290,17.460,5.122,1.647,127.000,37.250,11.910,4.117,baseline
1235.000,310.400,71.780,20.180,1051.000,226.500,51.620,11.960,58.820,17.100,5.015,1.662,125.300,37.000,11.730,4.150,baseline
1240.000,309.000,70.590,20.120,1046.000,224.100,51.040,11.780,58.600,17.140,5.119,1.644,126.500,36.940,11.850,4.061,baseline
1208.000,302.200,69.210,19.530,1033.000,223.500,50.740,11.750,56.870,17.350,5.031,1.664,125.300,36.170,11.620,4.014,baseline
1198.000,299.800,68.460,19.420,1029.000,222.700,50.140,11.650,60.040,17.110,5.015,1.628,125.400,35.580,11.530,4.034,baseline
1189.000,297.400,68.300,19.260,1028.000,221.800,50.600,11.650,57.580,17.260,4.977,1.636,123.300,35.840,11.530,4.009,baseline
1186.000,297.800,68.240,19.140,1031.000,221.100,50.770,11.670,56.320,17.270,4.994,1.663,123.200,35.950,11.410,3.980,baseline
1187.000,296.700,67.770,19.190,1027.000,221.100,50.660,11.670,57.880,16.910,5.039,1.627,124.300,35.900,11.450,3.954,baseline
1189.000,297.800,67.660,19.350,1030.000,221.800,50.280,11.720,58.200,17.180,4.970,1.635,124.100,35.630,11.610,4.012,baseline
1191.000,298.100,67.970,19.360,1032.000,221.900,50.970,11.710,56.540,17.260,4.987,1.658,124.700,35.850,11.570,3.934,baseline
1196.000,299.600,68.720,19.430,1030.000,222.800,50.800,11.800,56.980,17.140,4.961,1.626,124.400,35.550,11.590,3.953,baseline
1199.000,299.800,68.520,19.470,1035.000,222.900,50.910,11.750,57.910,17.200,4.917,1.649,124.800,36.040,11.540,4.010,baseline
1205.000,302.500,68.920,19.580,1035.000,222.600,50.910,11.810,58.220,17.170,5.062,1.645,124.500,36.330,11.720,3.974,baseline
1209.000,302.300,68.750,19.700,1038.000,223.900,50.610,11.780,57.780,17.800,5.071,1.666,124.600,36.250,11.620,4.025,baseline
1215.000,304.300,69.450,19.800,1039.000,223.900,50.860,11.850,62.190,17.690,4.994,1.652,125.200,36.670,11.770,4.027,baseline
1223.000,305.500,70.340,20.070,1039.000,225.100,51.130,11.910,59.500,17.700,5.088,1.647,126.900,36.250,11.660,4.082,baseline
1228.000,306.600,71.340,20.090,1044.000,224.900,50.900,11.890,61.270,17.540,4.992,1.648,125.900,36.470,11.730,4.071,baseline
1234.000,309.200,71.480,20.240,1047.000,225.300,51.830,11.900,56.840,17.840,4.992,1.641,126.900,36.840,11.720,4.072,baseline
1234.000,308.000,69.730,19.960,1032.000,223.200,51.400,11.700,56.270,17.680,4.997,1.650,127.000,36.330,11.650,4.050,baseline
1201.000,300.300,69.110,19.500,1031.000,221.900,50.230,11.690,57.390,17.440,5.052,1.642,124.800,36.240,11.640,4.018,baseline
1193.000,296.900,68.600,19.390,1026.000,221.600,50.480,11.610,58.310,17.270,5.021,1.638,122.900,36.230,11.370,4.030,baseline
1186.000,297.200,68.670,19.260,1029.000,220.700,50.140,11.670,57.440,17.120,4.918,1.637,122.900,35.880,11.510,3.998,baseline
1186.000,293.700,67.220,19.320,1028.000,221.600,49.570,11.640,57.920,17.310,4.936,1.630,123.800,35.610,11.620,3.995,baseline
1185.000,296.700,67.270,19.190,1024.000,221.700,50.200,11.640,55.870,17.420,5.024,1.641,123.300,36.210,11.480,4.014,baseline
1188.000,295.400,67.090,19.280,1025.000,221.000,50.620,11.690,54.690,17.240,4.986,1.634,123.200,35.930,11.460,3.981,baseline
1192.000,296.300,68.810,19.410,1025.000,222.000,50.900,11.710,56.200,17.200,5.038,1.658,123.500,35.890,11.710,3.999,baseline
1194.000,298.500,68.950,19.420,1030.000,221.800,50.780,11.730,57.290,17.430,4.927,1.627,124.100,36.030,11.530,3.967,baseline
1199.000,299.300,68.660,19.570,1036.000,222.700,50.610,11.700,57.740,17.320,5.043,1.654,124.800,36.280,11.570,4.003,baseline
1204.000,300.200,68.940,19.610,1033.000,223.400,51.370,11.750,59.820,17.380,5.012,1.658,124.400,36.350,11.730,3.958,baseline
1209.000,302.200,67.750,19.710,1033.000,224.000,51.050,11.740,58.670,17.370,4.943,1.648,125.400,36.620,11.810,4.058,baseline
1214.000,304.900,70.080,19.860,1038.000,224.400,50.730,11.850,58.010,17.220,5.040,1.662,125.400,36.440,11.660,4.016,baseline
1220.000,305.500,70.120,19.910,1038.000,224.600,51.440,11.850,57.380,17.090,5.059,1.682,124.700,36.600,11.700,4.026,baseline
1228.000,306.700,71.090,20.160,1043.000,225.200,51.330,11.830,54.960,17.290,5.062,1.665,125.300,36.630,11.810,4.107,baseline
1216.000,304.500,70.250,19.680,1035.000,222.500,50.700,11.670,58.210,17.150,5.048,1.650,124.200,36.210,11.540,4.035,baseline
1196.000,299.700,68.970,19.490,1032.000,221.700,50.160,11.660,61.700,17.310,4.996,1.673,125.100,36.200,11.540,4.000,baseline
1190.000,299.200,68.980,19.360,1027.000,221.500,50.830,11.630,57.640,17.440,4.985,1.653,123.500,35.900,11.470,3.976,baseline
1189.000,298.800,67.740,19.440,1028.000,221.400,50.430,11.620,55.170,17.190,4.955,1.649,124.200,35.440,11.510,4.049,baseline
1187.000,297.700,68.900,19.360,1031.000,221.600,51.050,11.650,55.810,16.930,5.007,1.644,124.300,35.670,11.420,3.993,baseline
1190.000,298.100,68.110,19.460,1029.000,222.100,50.900,11.680,56.500,17.360,5.099,1.629,124.900,35.840,11.530,3.990,baseline
1195.000,300.100,68.460,19.560,1027.000,221.400,50.780,11.650,60.930,17.540,4.939,1.681,124.400,35.930,11.590,3.979,baseline
1198.000,300.300,68.040,19.600,1037.000,222.800,50.980,11.700,59.220,16.920,4.958,1.639,125.600,36.200,11.520,3.987,baseline
1201.000,300.000,68.380,19.700,1033.000,222.700,50.650,11.750,57.500,16.980,5.058,1.637,124.900,36.440,11.570,3.967,baseline
1207.000,302.200,70.020,19.740,1035.000,223.300,51.250,11.810,58.500,17.040,5.055,1.661,126.100,36.500,11.800,4.039,baseline
1213.000,304.600,69.840,19.900,1042.000,224.000,51.350,11.750,59.140,17.440,4.994,1.638,125.000,36.410,11.690,4.022,baseline
1217.000,305.900,69.910,20.000,1042.000,224.300,51.510,11.820,55.230,17.390,5.058,1.650,125.200,36.140,11.690,4.102,baseline
1223.000,305.400,71.250,19.930,1039.000,224.100,50.280,11.690,57.550,17.590,5.019,1.648,126.100,36.280,11.600,4.026,baseline
1198.000,297.600,68.450,19.440,1029.000,221.100,49.830,11.610,58.620,17.230,4.987,1.651,125.300,35.870,11.500,3.970,baseline
1189.000,297.200,68.270,19.320,1022.000,221.100,49.590,11.560,58.360,17.260,5.074,1.643,123.400,35.760,11.540,3.952,baseline
1180.000,293.900,68.530,19.120,1028.000,220.900,50.330,11.540,58.740,17.040,5.005,1.636,122.900,35.470,11.600,3.945,baseline
1179.000,295.800,67.130,19.160,1020.000,220.800,50.010,11.600,58.480,17.080,4.921,1.628,122.300,35.660,11.410,3.954,baseline
1178.000,293.600,67.390,19.190,1026.000,220.400,50.210,11.560,56.740,17.280,4.934,1.611,123.600,35.600,11.570,3.980,baseline
1180.000,294.000,67.570,19.240,1025.000,220.800,50.700,11.630,61.980,17.500,4.994,1.658,124.800,35.280,11.500,4.003,baseline
1183.000,295.500,67.870,19.270,1029.000,221.100,50.180,11.690,57.530,17.230,5.010,1.635,124.300,35.450,11.430,3.922,baseline
1187.000,297.500,68.120,19.410,1029.000,220.200,51.010,11.750,59.050,17.130,4.967,1.631,125.600,35.780,11.440,3.925,baseline
1191.000,297.700,68.330,19.430,1030.000,222.300,50.700,11.720,61.280,17.430,5.038,1.640,124.200,35.790,11.560,3.987,baseline
1197.000,299.200,69.250,19.560,1028.000,222.000,50.080,11.740,58.180,17.160,5.136,1.661,123.500,35.980,11.580,3.985,baseline
1203.000,301.300,70.410,19.660,1036.000,223.200,51.060,11.790,60.540,17.090,5.041,1.621,125.200,36.300,11.480,4.017,baseline
1210.000,303.400,69.770,19.770,1038.000,224.300,51.520,11.800,57.650,17.270,4.985,1.653,125.100,36.550,11.570,4.046,baseline
1216.000,303.900,70.360,19.860,1038.000,224.900,51.320,11.840,57.310,17.780,5.127,1.677,124.400,36.290,11.620,4.067,baseline
1222.000,306.700,69.950,20.080,1045.000,225.700,51.560,11.910,59.590,17.560,5.010,1.656,125.500,36.790,11.830,4.102,baseline
1225.000,305.000,69.460,19.770,1034.000,222.700,50.760,11.660,55.130,17.500,5.005,1.644,123.700,36.050,11.490,3.998,baseline
1191.000,297.100,66.830,19.370,1029.000,221.500,49.900,11.660,57.700,17.430,4.989,1.627,123.800,36.010,11.490,3.926,baseline
1184.000,295.100,68.100,19.290,1024.000,221.000,50.190,11.590,61.720,17.220,4.999,1.634,124.300,35.260,11.400,3.966,baseline
1176.000,293.000,66.970,18.940,1019.000,220.200,50.790,11.620,58.800,17.260,5.035,1.650,123.200,35.680,11.390,3.934,baseline
1175.000,294.200,66.030,19.080,1022.000,220.000,50.800,11.620,59.960,17.270,5.016,1.650,123.300,35.880,11.530,3.904,baseline
1176.000,294.900,67.190,19.060,1025.000,220.300,50.200,11.680,56.050,17.090,4.969,1.644,123.700,35.490,11.260,3.970,baseline
1177.000,294.500,66.260,19.240,1022.000,221.500,50.330,11.680,54.720,17.300,4.980,1.643,122.700,35.490,11.440,3.932,baseline
1181.000,296.200,68.890,19.230,1025.000,221.900,49.810,11.740,58.410,17.200,5.010,1.636,123.800,35.780,11.290,3.981,baseline
1185.000,297.100,69.600,19.280,1029.000,221.700,50.320,11.760,58.790,17.470,4.996,1.659,124.000,36.250,11.530,3.930,baseline
1188.000,296.600,68.390,19.330,1031.000,222.700,50.280,11.770,58.810,17.140,5.013,1.661,125.000,35.940,11.530,3.972,baseline
1195.000,298.700,68.720,19.520,1027.000,223.200,50.840,11.830,56.560,17.200,5.012,1.642,124.200,35.920,11.450,3.978,baseline
1200.000,300.600,69.600,19.700,1030.000,223.700,51.540,11.840,57.170,17.570,5.011,1.679,126.300,36.250,11.500,4.008,baseline
1205.000,303.700,68.500,19.750,1039.000,223.800,51.340,11.860,61.450,17.450,4.985,1.684,124.100,36.540,11.570,4.033,baseline
1213.000,303.600,69.440,19.840,1037.000,224.100,51.250,11.910,57.730,17.370,5.062,1.686,124.600,36.520,11.790,4.047,baseline
1218.000,304.700,68.840,20.010,1045.000,224.800,51.700,11.940,56.950,17.880,5.064,1.678,126.500,36.710,11.550,4.032,baseline
1226.000,308.800,70.210,20.060,1042.000,225.100,50.890,11.880,58.460,17.390,5.028,1.672,127.000,36.470,11.600,3.995,baseline
1201.000,300.800,68.950,19.430,1032.000,222.300,51.090,11.730,61.440,17.420,5.072,1.674,124.900,36.190,11.480,3.976,baseline
1187.000,296.700,69.360,19.230,1030.000,221.200,50.800,11.680,62.330,17.550,4.986,1.692,122.900,36.270,11.490,3.989,baseline
1178.000,294.600,66.760,19.150,1020.000,220.500,49.960,11.680,60.410,17.240,4.923,1.665,123.900,35.580,11.460,3.995,baseline
1175.000,293.500,66.400,19.070,1024.000,220.600,50.060,11.690,57.940,17.120,5.078,1.632,123.200,35.670,11.380,3.917,baseline
1177.000,294.300,66.350,19.010,1025.000,220.700,50.110,11.700,57.740,17.390,4.983,1.664,124.100,35.610,11.540,3.984,baseline
1179.000,294.100,67.920,19.100,1022.000,220.900,50.000,11.740,56.150,17.350,5.094,1.665,124.200,35.560,11.420,3.917,baseline
1181.000,294.800,67.390,19.220,1029.000,221.200,50.660,11.720,58.060,17.300,5.006,1.655,123.300,35.860,11.540,3.975,baseline
1186.000,296.700,67.400,19.250,1027.000,222.000,50.770,11.740,58.750,17.540,5.057,1.635,124.200,35.860,11.590,3.942,baseline
1188.000,295.500,68.500,19.440,1028.000,221.900,50.890,11.770,55.460,17.240,4.991,1.676,124.300,35.970,11.720,3.936,baseline
1194.000,297.400,68.680,19.490,1030.000,222.100,51.460,11.770,55.750,17.500,5.047,1.650,124.900,36.230,11.530,3.976,baseline
1199.000,301.400,68.300,19.590,1033.000,223.400,50.630,11.850,58.280,17.460,5.035,1.646,125.000,36.570,11.590,4.021,baseline
1204.000,303.700,69.590,19.710,1039.000,223.400,51.420,11.860,56.570,17.580,5.001,1.693,126.500,36.310,11.820,4.003,baseline
1211.000,303.400,69.270,19.910,1040.000,223.700,50.880,11.930,56.870,17.500,5.047,1.656,125.200,36.390,11.790,4.031,baseline
1218.000,305.000,69.550,19.900,1039.000,225.000,51.470,11.900,55.750,17.420,5.038,1.674,127.200,36.770,11.860,4.099,baseline
1223.000,307.000,70.980,20.080,1043.000,224.800,51.320,11.940,58.770,17.330,5.073,1.688,127.200,36.770,11.920,4.072,baseline
1227.000,306.700,71.280,19.850,1032.000,223.700,50.690,11.760,59.290,17.940,5.127,1.667,126.500,36.620,11.560,4.045,baseline
1194.000,298.500,68.190,19.390,1031.000,221.700,50.630,11.750,59.840,17.520,5.053,1.668,125.600,35.910,11.510,3.958,baseline
1187.000,297.100,68.730,19.210,1025.000,220.700,50.400,11.650,55.190,17.650,5.072,1.663,124.900,35.750,11.380,3.967,baseline
1178.000,293.400,67.670,19.040,1025.000,221.300,50.070,11.570,54.640,17.310,5.086,1.683,125.200,36.200,11.530,3.931,baseline
1178.000,294.300,66.700,19.100,1022.000,221.200,50.220,11.650,59.930,17.370,5.030,1.659,124.300,36.020,11.520,3.980,baseline
1178.000,295.000,66.700,19.170,1017.000,221.000,50.760,11.630,58.700,17.390,4.986,1.668,123.400,35.940,11.370,3.962,baseline
1182.000,296.500,67.210,19.250,1023.000,220.900,50.990,11.690,59.220,17.060,5.037,1.661,124.700,35.960,11.350,3.986,baseline
1186.000,297.400,68.160,19.250,1026.000,221.200,50.760,11.750,59.810,17.230,5.045,1.670,123.500,35.870,11.410,4.012,baseline
1188.000,297.600,67.330,19.350,1024.000,221.300,50.980,11.770,58.080,17.360,5.128,1.690,124.500,36.320,11.640,4.000,baseline
1192.000,298.200,69.140,19.450,1029.000,222.000,50.730,11.800,58.220,17.790,5.110,1.699,124.100,36.030,11.550,3.969,baseline
1198.000,300.400,68.830,19.550,1032.000,222.600,50.270,11.840,58.870,17.420,5.002,1.697,123.700,36.520,11.570,4.042,baseline
1204.000,300.100,69.290,19.580,1035.000,222.800,51.050,11.870,57.340,17.860,5.140,1.690,125.900,36.420,11.610,4.043,baseline
1209.000,302.400,69.750,19.670,1033.000,223.300,50.820,11.860,60.300,17.490,5.041,1.706,125.200,36.830,11.650,4.037,baseline
1215.000,305.400,70.250,19.840,1037.000,224.000,51.030,11.960,59.980,17.650,5.021,1.669,125.300,36.650,11.960,4.052,baseline
1221.000,307.200,70.080,19.930,1042.000,224.500,51.360,11.940,58.890,17.690,5.103,1.688,126.400,37.060,11.870,4.106,baseline
1228.000,306.300,69.970,20.040,1039.000,224.000,50.850,11.830,59.710,17.350,5.105,1.654,125.900,36.790,11.780,4.063,baseline
1202.000,299.500,67.700,19.460,1023.000,221.800,50.500,11.670,58.860,17.530,5.082,1.662,125.400,36.340,11.570,4.039,baseline
1190.000,296.400,68.130,19.160,1025.000,221.300,50.250,11.620,59.520,17.180,5.134,1.656,123.900,35.730,11.520,4.027,baseline
1181.000,293.900,66.520,19.030,1020.000,220.300,50.690,11.660,57.830,17.340,5.067,1.653,124.800,35.950,11.650,3.953,baseline
1179.000,293.700,66.630,19.030,1024.000,219.800,49.910,11.660,56.740,17.400,5.091,1.646,123.700,35.750,11.480,3.985,baseline
1179.000,293.500,66.280,19.010,1022.000,221.000,50.590,11.640,59.220,17.230,5.080,1.674,123.500,35.800,11.420,3.979,baseline
1181.000,296.000,67.230,19.090,1023.000,220.800,50.110,11.700,61.420,17.520,5.052,1.678,123.800,35.800,11.560,4.014,baseline
1183.000,295.700,67.360,19.220,1025.000,222.000,50.380,11.680,57.040,17.270,5.043,1.654,124.100,36.070,11.560,3.955,baseline
1188.000,296.300,68.460,19.290,1021.000,220.900,50.470,11.730,57.270,17.600,5.028,1.649,125.000,35.920,11.430,3.975,baseline
1192.000,297.900,68.280,19.310,1025.000,221.400,50.620,11.780,59.800,17.400,5.080,1.680,125.200,35.910,11.450,3.960,baseline
1197.000,298.700,68.920,19.470,1027.000,222.000,50.710,11.840,59.170,17.190,5.091,1.650,125.100,36.120,11.690,4.058,baseline
1202.000,300.100,69.660,19.610,1031.000,223.200,50.590,11.850,56.710,17.420,5.048,1.653,125.100,36.240,11.740,4.050,baseline
1208.000,301.200,69.960,19.600,1036.000,223.400,51.480,11.830,60.090,17.360,5.085,1.686,126.600,36.180,11.540,4.074,baseline
1215.000,304.100,70.140,19.740,1035.000,223.700,51.650,11.880,60.590,17.830,5.021,1.677,125.300,36.290,11.720,4.056,baseline
1221.000,305.600,70.260,19.860,1037.000,224.500,51.720,11.870,58.070,17.480,5.100,1.676,126.100,36.520,11.830,4.096,baseline
1228.000,308.300,69.730,20.120,1043.000,225.400,51.070,11.970,58.510,17.320,5.106,1.666,126.300,37.020,11.890,4.078,baseline
1231.000,306.700,70.220,19.830,1038.000,222.400,51.160,11.720,56.500,17.530,5.070,1.630,125.400,36.200,11.810,4.076,baseline
1197.000,298.200,67.750,19.370,1029.000,222.200,50.650,11.680,58.420,17.340,4.941,1.676,124.700,36.270,11.570,3.993,baseline
1189.000,296.500,68.670,19.180,1027.000,220.400,49.980,11.660,61.420,17.240,5.142,1.643,124.300,35.810,11.630,4.014,baseline
1181.000,293.400,67.410,19.100,1021.000,220.200,49.720,11.640,55.290,17.400,4.984,1.619,123.300,36.100,11.380,3.967,baseline
1180.000,294.200,67.990,18.980,1022.000,220.200,49.770,11.670,58.980,17.530,5.039,1.642,124.300,35.680,11.460,3.944,baseline
1180.000,293.100,68.030,19.040,1022.000,220.400,50.140,11.670,57.750,17.450,5.050,1.659,125.000,35.650,11.480,3.992,baseline
1183.000,294.400,67.120,19.120,1023.000,221.700,50.380,11.690,57.100,17.490,5.063,1.681,123.700,35.780,11.480,3.947,baseline
1186.000,297.200,67.660,19.170,1026.000,221.700,50.410,11.710,56.340,17.420,4.988,1.658,125.200,35.770,11.520,3.949,baseline
1191.000,297.900,67.250,19.280,1030.000,222.700,50.870,11.740,55.170,17.210,4.999,1.671,124.400,35.880,11.510,3.974,baseline
1194.000,297.800,68.680,19.410,1029.000,222.100,50.590,11.790,57.260,17.410,5.067,1.666,124.600,35.850,11.700,3.952,baseline
1200.000,299.300,69.320,19.510,1029.000,222.800,51.010,11.820,58.600,17.620,4.978,1.681,124.100,36.060,11.460,4.077,baseline
1204.000,303.000,68.790,19.620,1040.000,222.700,51.400,11.870,59.820,17.380,5.058,1.673,125.100,36.470,11.610,4.046,baseline
1211.000,303.800,69.010,19.720,1039.000,224.400,50.320,11.860,58.770,17.400,5.126,1.673,126.400,36.460,11.760,3.991,baseline
1218.000,304.000,70.550,19.880,1041.000,224.300,50.310,11.930,60.230,17.640,5.069,1.656,126.800,36.740,11.730,4.046,baseline
1224.000,306.200,69.800,20.050,1046.000,224.500,50.890,11.990,59.640,17.530,5.135,1.685,125.200,36.470,11.820,4.059,baseline
1231.000,308.900,71.990,20.100,1040.000,225.700,51.470,11.940,58.090,17.430,5.111,1.684,127.100,36.650,11.890,4.108,baseline
1227.000,303.800,70.320,19.660,1032.000,223.100,50.990,11.760,60.160,17.570,5.073,1.675,125.400,36.230,11.720,4.009,baseline
1195.000,299.200,69.140,19.330,1028.000,221.700,50.170,11.750,59.010,17.410,5.036,1.673,122.400,36.190,11.610,3.983,baseline
1188.000,296.900,68.950,19.190,1023.000,220.800,49.790,11.650,58.840,17.600,5.054,1.683,124.000,35.610,11.630,3.949,baseline
1181.000,294.600,68.540,19.040,1025.000,221.400,51.000,11.670,59.190,17.220,4.959,1.647,123.600,35.970,11.490,3.956,baseline
1181.000,295.400,67.230,19.080,1028.000,220.400,50.180,11.660,58.180,17.160,4.978,1.642,123.300,35.730,11.440,3.966,baseline
1183.000,294.600,67.160,19.080,1023.000,221.500,49.890,11.690,56.810,17.330,5.024,1.642,124.100,35.700,11.550,3.958,baseline
1184.000,295.400,67.700,19.220,1024.000,221.200,50.300,11.730,60.810,17.530,5.105,1.629,123.300,36.000,11.560,3.935,baseline
1188.000,298.300,67.590,19.260,1028.000,222.100,50.840,11.770,57.910,17.200,5.014,1.661,124.300,36.470,11.580,3.964,baseline
1193.000,298.200,67.220,19.370,1026.000,222.600,50.540,11.770,60.280,17.260,5.107,1.644,124.700,36.020,11.480,4.007,baseline
1196.000,299.000,68.350,19.380,1033.000,222.500,50.420,11.800,59.650,17.310,5.105,1.661,124.900,35.950,11.550,4.001,baseline
1202.000,301.200,69.280,19.600,1031.000,223.800,50.000,11.840,59.700,17.270,4.980,1.651,124.800,36.150,11.490,3.995,baseline
1207.000,301.600,70.340,19.610,1034.000,223.300,51.090,11.900,60.570,17.520,5.046,1.662,124.500,36.230,11.750,4.026,baseline
1213.000,304.800,70.050,19.750,1040.000,224.400,51.380,11.910,59.690,17.930,5.094,1.681,124.000,36.520,11.720,4.048,baseline
1219.000,304.400,69.910,19.900,1043.000,224.500,51.580,11.970,57.610,17.490,5.071,1.672,125.200,36.640,11.760,4.041,baseline
1227.000,307.200,71.890,20.000,1042.000,225.100,52.140,11.940,58.520,17.630,5.096,1.661,125.400,36.970,11.710,4.080,baseline
1229.000,307.700,70.610,19.780,1036.000,223.400,51.000,11.760,58.330,17.470,5.066,1.658,125.700,36.380,11.790,4.008,baseline
1197.000,299.200,68.710,19.370,1026.000,221.800,50.390,11.750,62.430,17.510,5.070,1.666,126.000,35.920,11.540,3.982,baseline
1188.000,296.400,66.920,19.160,1026.000,221.100,50.230,11.700,57.180,17.500,4.975,1.636,123.900,35.940,11.610,3.970,baseline
1181.000,294.700,67.530,19.080,1026.000,220.700,50.530,11.730,56.460,17.060,5.058,1.649,123.800,35.920,11.460,3.941,baseline
1180.000,296.000,67.870,19.100,1023.000,220.800,50.300,11.680,57.590,17.450,5.113,1.664,124.100,35.670,11.430,3.932,baseline
1180.000,296.400,68.660,19.100,1026.000,221.500,50.850,11.740,59.870,17.420,4.982,1.664,122.900,35.500,11.460,4.018,baseline
1183.000,294.800,67.090,19.200,1024.000,221.700,50.020,11.760,57.980,17.530,4.972,1.641,123.700,35.840,11.430,3.978,baseline
1187.000,296.100,68.510,19.240,1028.000,221.800,50.160,11.780,58.530,17.910,5.102,1.655,124.000,35.850,11.650,4.007,baseline
1190.000,298.000,69.550,19.350,1024.000,222.600,50.460,11.760,58.500,17.740,5.097,1.682,123.600,35.750,11.650,3.945,baseline
1195.000,299.300,71.150,19.480,1030.000,223.000,50.270,11.800,61.220,17.560,5.069,1.664,124.400,36.270,11.560,3.984,baseline
1199.000,299.600,69.750,19.510,1033.000,223.000,50.410,11.860,60.450,17.370,5.045,1.664,126.000,36.140,11.710,4.021,baseline
1204.000,301.600,68.620,19.600,1033.000,223.100,51.210,11.850,57.400,17.440,5.126,1.666,124.300,36.010,11.580,3.988,baseline
1211.000,303.200,70.710,19.750,1039.000,224.400,51.600,11.880,57.630,18.070,5.118,1.706,125.200,36.600,11.630,4.052,baseline
1218.000,304.600,68.810,19.930,1038.000,224.100,51.390,11.890,56.150,17.640,5.044,1.676,126.600,36.570,11.790,4.005,baseline
1222.000,306.300,70.670,20.000,1044.000,225.300,51.300,11.940,61.000,17.580,5.081,1.688,126.600,36.840,11.700,4.076,baseline
1231.000,309.900,70.780,20.220,1046.000,225.300,51.500,11.860,59.630,17.270,5.161,1.693,127.400,36.500,11.820,4.064,baseline
1210.000,301.900,67.920,19.560,1030.000,221.900,50.810,11.760,55.230,17.460,5.079,1.673,124.400,36.380,11.540,3.998,baseline
1192.000,300.100,66.930,19.410,1029.000,221.600,50.380,11.730,63.310,17.950,5.094,1.667,124.100,36.470,11.630,3.964,baseline
1184.000,296.600,68.780,19.210,1018.000,221.300,51.000,11.690,59.480,17.510,4.989,1.669,124.400,36.020,11.490,3.991,baseline
1180.000,294.900,67.520,19.080,1023.000,220.900,50.090,11.720,57.920,17.310,5.079,1.672,122.900,35.760,11.480,3.929,baseline
1180.000,294.100,67.000,19.120,1025.000,221.600,50.300,11.680,56.360,17.450,5.081,1.678,123.900,36.170,11.390,4.028,baseline
1181.000,295.400,68.160,19.210,1026.000,221.600,50.470,11.740,59.620,17.350,5.101,1.658,123.900,36.120,11.580,3.953,baseline
1184.000,295.300,67.470,19.290,1028.000,221.400,50.300,11.790,54.320,17.380,5.042,1.681,123.900,36.030,11.460,3.985,baseline
1190.000,298.800,67.030,19.370,1027.000,221.700,50.730,11.780,61.650,17.420,5.048,1.678,123.700,35.690,11.540,3.942,baseline
1192.000,299.100,68.070,19.490,1030.000,221.500,51.520,11.770,58.580,17.470,5.133,1.663,124.300,36.080,11.580,3.990,baseline
1199.000,300.900,67.720,19.530,1033.000,222.100,51.050,11.830,57.870,17.680,5.085,1.699,124.400,36.420,11.490,3.975,baseline
1202.000,301.000,69.500,19.750,1036.000,223.000,51.180,11.830,60.810,17.700,5.087,1.657,125.700,36.440,11.820,3.966,baseline
1210.000,301.700,70.110,19.750,1037.000,223.300,51.120,11.880,58.360,17.350,5.084,1.689,125.200,36.590,11.800,4.053,baseline
